0.021685296253394274,0.5082083913883192,0.03583266221657318,0.058588590482557,-0.07927017956779571,-0.11123741999285974,-0.1147003032102053,0.6294913398056423
-0.015243477866166562,0.5452145833018847,-0.01597896435194835,-0.0019218330754039148,-0.10071951192285826,-0.17904049207004716,-0.18538629481935479,0.6328968212262648
-0.022337165041241835,0.5215918528964395,-0.01845260506579162,-0.025905793684442246,-0.11834049687373431,-0.20134938285627788,-0.21047485296821808,0.601827585638909
0.0252545969252635,0.5717402325530136,0.05447996982581693,0.07673846151577832,0.0036855739590640267,-0.06382710906181785,-0.0841039056234402,0.6396764636859344
0.016319170844206747,0.5105378423486979,0.058366379618142575,0.07774506014885925,-0.012530156095734367,-0.06458553577819277,-0.0769958869288927,0.6448071206235353
0.022020818827347275,0.5394741192991923,0.04272665634008534,0.05133641797007863,-0.014004202805994565,-0.07491756243161282,-0.08579448345330104,0.6133319834229639
-0.007209565890709071,0.588830782590935,-0.010666275792075334,-0.007847522702314098,-0.05567660478762748,-0.12949262578193588,-0.17470985663010222,0.6899482950340272
-0.023534116296047815,0.5331974521579224,-0.04859527218492107,-0.04955549817854673,-0.09886022375776446,-0.18201241384000927,-0.224411245992096,0.6154958156541865
-0.04840742250424952,0.5289471696020477,-0.0840639051608326,-0.09349103392159865,-0.1477252071901643,-0.2552593804192779,-0.2861093261192986,0.5513562731533372
-0.028016931265043014,0.5147927248335735,-0.04300153973704019,-0.06579252222039236,-0.09251978147319355,-0.15677000823507242,-0.21339947897983036,0.5675582806713333
-0.011635687275261887,0.5597647591078737,-0.025540646365523074,-0.05424394462688634,-0.05407716616562326,-0.11371677200769163,-0.1607826091975579,0.5629193569977606
-0.00796842876349,0.5790106257702482,-0.03123188146799969,-0.057333941796671783,-0.02260525757812316,-0.11914853361507806,-0.15136753466484457,0.6576391609085982
-0.013864516611494026,0.5841747203740543,-0.06798772163541768,-0.11282275384457494,-0.08527712676344731,-0.18293590471586532,-0.20795499152505365,0.5935423775122574
-0.045197159236443095,0.5387636903229455,-0.11000706621569639,-0.15374121819560432,-0.14092399996227672,-0.2199701900584699,-0.2605918396942457,0.615085797080335
-0.07374251000060401,0.4651686947440737,-0.1573936614001908,-0.19782923827313578,-0.16507211088509194,-0.2797632663174084,-0.3029115782589154,0.5795060101753736
-0.03851394576622077,0.4976596188944724,-0.10117349976724861,-0.15345217573597422,-0.04633072016956344,-0.18768553628832205,-0.2079168247760902,0.6780705047331439
-0.023885913016394884,0.5671789619152625,-0.08963054698594648,-0.1357364043173039,-0.06211494002881073,-0.14535476073306802,-0.17137899217060074,0.654380688969509
-0.02716653587801102,0.562661166615718,-0.10358907141928211,-0.16682763713398685,-0.04463612517551505,-0.16094780305959142,-0.1823359373477813,0.6720329581319984
-0.04215613823173434,0.5460018393411932,-0.14910647061450774,-0.21637409464627116,-0.1001480515034459,-0.20118103207414031,-0.25521152084886567,0.6403402021591431
-0.06918640421849123,0.5802407574936043,-0.1696060728108257,-0.2567442803129263,-0.15189418830433443,-0.25574512229862445,-0.3120807549949324,0.6332106543025154
-0.09457775670084555,0.5152721763308833,-0.21167639773161528,-0.3039815747312711,-0.1933390510604957,-0.30150554804029145,-0.3498406017028306,0.5456557824398824
-0.06156957132952151,0.5627371000082506,-0.16810508657777848,-0.2420526002900112,-0.11788716744759402,-0.22977705399047368,-0.26337354407204,0.5364877933766098
-0.06345800233071498,0.5619385316870458,-0.15175669973980213,-0.20749067804060436,-0.06442306734210658,-0.16894165184028362,-0.21210666738065698,0.5223600487320629
-0.041201087536937714,0.5284680489541451,-0.13780932105312854,-0.2054488277413853,-0.05261783289985567,-0.150189915160772,-0.18745342237403456,0.5210545890798308
-0.0561785792009946,0.5184172555266062,-0.16233723028038097,-0.2538023828232086,-0.10913727964287397,-0.2165707068337112,-0.2453730272530123,0.5295181520915585
-0.07281523128831469,0.5389447750398251,-0.21535869616886424,-0.27721576066266607,-0.14492841185249095,-0.23223389368463862,-0.2865301161277996,0.5474327357385855
-0.09571691319067108,0.5353127395131511,-0.24070810589192507,-0.33181259106929,-0.17003819040458437,-0.3124146611149354,-0.350392149426456,0.5726215509389426
-0.0831927965390138,0.5773716196474543,-0.21089511963046298,-0.288184537680607,-0.11321113051264808,-0.24380319128407504,-0.2646971619899235,0.593391440317718
-0.049201236407728575,0.5426051465920889,-0.1566212692934698,-0.24106684689868157,-0.0462844292510574,-0.15164145337215065,-0.18887160067828238,0.5024594820339574
-0.03836042695630626,0.5554983577899542,-0.14324765062106307,-0.2272655422568738,-0.052981565852057336,-0.14321049332492594,-0.19582782975274166,0.6323301141525259
-0.06638863909558496,0.5835054743805775,-0.1774306978351403,-0.2572541268734612,-0.09196853769284125,-0.16544995752455557,-0.2214891388027937,0.6455354360867526
-0.0762913417241782,0.5669404179948044,-0.2017612609668588,-0.29350127067812853,-0.1387830239064918,-0.2275084373365528,-0.27093140115468206,0.5639282910880737
-0.10627673467007592,0.5099345502992284,-0.22745953015696632,-0.3284127790425553,-0.16033336266756343,-0.27604259091642824,-0.3332130548515477,0.5868520257234934
-0.10941069797322206,0.5560984567688175,-0.23344928515640526,-0.31306236491171,-0.1619705598977443,-0.25860781467944305,-0.30716123959857566,0.5817695819284191
-0.06296509728623947,0.547268133451156,-0.15190609736821908,-0.24957975020981535,-0.08193520325333599,-0.17587369838181488,-0.2001058924184525,0.5786933024481411
-0.06735780391401411,0.5499063123406273,-0.1633632009084061,-0.23168222954717377,-0.06549085764374696,-0.16990963985984472,-0.2095104169350645,0.5850123090075249
-0.06761466962669752,0.5792847882657901,-0.17955735912751844,-0.2618812693913945,-0.09663550907179115,-0.20575210823412277,-0.24374510312837405,0.5962547915238888
-0.08073000415940923,0.5498775380948113,-0.21004565807266218,-0.29403827034138064,-0.15224932370936625,-0.2340080092026885,-0.31156763723855824,0.5477151703722528
-0.09628807452280817,0.5472722063679991,-0.24440233990368418,-0.3383419588321222,-0.17339591285940867,-0.3014697688940428,-0.3543318105474978,0.5299920636779158
-0.06654140832363947,0.5166959938264996,-0.17640601913744314,-0.2531605229436419,-0.06566921251810272,-0.1755530386588118,-0.23630440935875704,0.551333733302781
-0.04523814146436812,0.592921699350409,-0.1483185292208723,-0.21826564625382675,-0.058487173013903423,-0.15899296179502148,-0.1991419792346324,0.6130344412670897
-0.03997270228608141,0.5902767881191668,-0.15301625208779668,-0.23039783925439764,-0.052958196829303444,-0.15786927588710975,-0.19635417621937698,0.5568030568667678
-0.062024442387584505,0.5613142501628372,-0.18385690632092552,-0.2649998882486386,-0.1041227969284051,-0.22346987053196576,-0.259030806724076,0.5497931133168489
-0.07462144094541814,0.4990085821568414,-0.1999201394218616,-0.29248562755317636,-0.14393428564271588,-0.24337856466799637,-0.29629182164328416,0.571613297421422
-0.10608761334648313,0.5467178613805616,-0.2350002670983244,-0.32660588358160236,-0.1965894270287222,-0.300362783421132,-0.36589249613673613,0.6096260649604769
-0.05153448098322055,0.5940193426882545,-0.17364703683525143,-0.23726488162304155,-0.07951694306079092,-0.19516129127826706,-0.21732244011845325,0.5584894264473358
-0.045028042033461155,0.5766617676196989,-0.13052435206410304,-0.2102433307740413,-0.06059432886910449,-0.15469620115904922,-0.18746641890660143,0.5942157808944134
-0.022231593088904492,0.5804817295134488,-0.1493527823910113,-0.19700905727191867,-0.05306001631496906,-0.15926268755450354,-0.20309808804981627,0.58158776574505
-0.04355608788046571,0.5852589411466476,-0.16703676926714808,-0.23534140549160495,-0.11866032937960991,-0.22818838671418176,-0.2597337428146658,0.6018147103378013
-0.07297395833664323,0.5549930079645624,-0.20288432583881316,-0.25797321661050976,-0.14742260886650443,-0.2747298355588729,-0.31318527150084224,0.54496704738083
-0.09443217225360144,0.5889122129459924,-0.23090841249741154,-0.3001581345756571,-0.19557240080797708,-0.31287120535841967,-0.3658699077481939,0.5505201241329863
-0.05468652210741809,0.6020810976742135,-0.14469141250137305,-0.21661497062799068,-0.0936073411895018,-0.20788629853993015,-0.24203361025153197,0.5451512303267612
-0.023190672387780775,0.5677375902139972,-0.10758465604632313,-0.16547286919643292,-0.07237605841570996,-0.16674259364461752,-0.17906654397406396,0.6192791362382576
-0.01510878976875817,0.5853985762729924,-0.10728516295667935,-0.15926561791156912,-0.060799838665718746,-0.1497778527492378,-0.19744908287466612,0.5931336681540549
-0.03981342469987802,0.5948353058203418,-0.12992212440875575,-0.18714510349882496,-0.09643204915521472,-0.1902586998837402,-0.2200986896733354,0.6316048029071175
-0.03888240004679717,0.6052536299944707,-0.15506162133652562,-0.22299510441613407,-0.1389515004879672,-0.23841244325584013,-0.2860571026141521,0.6219331733956869
-0.06294222125732968,0.5695733642044832,-0.16592172807553396,-0.23586635979249623,-0.18390307888846913,-0.2879036488924232,-0.3232480596903756,0.577981703326825
-0.05113796260496991,0.5954646200634293,-0.1364582425521061,-0.18510118565497558,-0.13142375983889326,-0.2181698891280808,-0.22537427694082998,0.6007123587734446
-0.008733449908773087,0.5809699889476538,-0.06691262009731641,-0.10690323087769267,-0.07307438814285366,-0.11817673805343552,-0.17233484117637088,0.5590194462645081
-0.008050971676156987,0.6195097401081385,-0.07289256826072485,-0.10269830097903693,-0.051704165454681615,-0.12084830559966725,-0.15105078179124543,0.5194134213007665
-0.013862316192819042,0.5391726677373995,-0.10280298418107166,-0.1110735876515392,-0.0884645005497941,-0.14910965422768305,-0.1761589570052465,0.6250255130550962
-0.02219984317201779,0.6171930285935444,-0.09723413364779195,-0.13509452926502502,-0.11539495168894934,-0.20311464119555134,-0.23574132837573553,0.571329922634759
-0.04365304641414377,0.6285967056009762,-0.10655032061361133,-0.14339474454317971,-0.1624021149934878,-0.2570599617422359,-0.27307731454146833,0.5240443686540444
-0.0066596465817431475,0.6374570280102176,-0.05467623063640399,-0.08404293099461788,-0.08797465390609066,-0.15949800407763134,-0.1818438368280038,0.5264070972905581
0.009778071965284078,0.6412106242603005,-0.02204834748498784,-0.042594022866017024,-0.032398710448387935,-0.09450322946547193,-0.11318746394074566,0.5656816499731696
-0.005772874844112621,0.5861739190606697,-0.030668532135718747,-0.05174456836175681,-0.05266228710805032,-0.1012749437539945,-0.11001965715153587,0.579882958602846
-0.01137352843075248,0.6507915664240047,-0.07513320817988413,-0.08924285524591938,-0.07235836130569137,-0.12452666082741497,-0.14287042276458733,0.5893953112180761
-0.026348291215252607,0.5865970874910924,-0.09497429144420858,-0.14175613267538217,-0.1239816869390593,-0.18700553070145098,-0.21843637716672423,0.5683752010373642
-0.041502659876920645,0.6230198897036852,-0.13336293099219979,-0.15848496475710866,-0.15374329028488537,-0.22666810530006865,-0.25393536539145917,0.5846218014193847
-0.030881307495355687,0.5908582034696889,-0.0706542083917325,-0.09295592691500094,-0.08658546773336491,-0.1461745923094813,-0.1607954707917487,0.5642476323497534
-0.002304684657566589,0.6001261473010352,-0.02797567308728123,-0.06286670849577848,-0.02644355314415525,-0.09565076668150414,-0.11203038797614337,0.5910555675681275
-0.005932866877802005,0.6487724428669035,-0.04347102071897319,-0.06449626871203556,-0.03377443328619727,-0.09225662662717193,-0.09927592508785384,0.6239704073289758
-0.02256271199839083,0.5987172226424055,-0.0857944668325873,-0.09471320940540341,-0.07084392716093664,-0.13225799579334108,-0.13603837912758793,0.5256006561873549
-0.030727274079028335,0.5959620869392838,-0.10592397799051367,-0.13855141165677226,-0.12317993362124102,-0.17276804565676485,-0.1911325490605519,0.6290443827208909
-0.058131465530547884,0.632168233429857,-0.11598807339308123,-0.14450347493050522,-0.12741958102851758,-0.1779411120635256,-0.20975624184261168,0.5678813278617925
0.001072964787119312,0.5758777915356932,-0.042306869391835304,-0.0812469502308949,-0.016206164004010894,-0.06930363263976062,-0.07966487462918788,0.5501557831221247
-0.005072827244839446,0.6063592355745374,-0.04666549528080291,-0.08628535492015392,-0.020293938005376974,-0.06814715123953499,-0.0921415475290487,0.5938379346845357
-0.022777827441951563,0.5642355120733882,-0.06456308048581456,-0.08255015189852762,-0.02716818595988247,-0.0860192863590342,-0.09430402911428624,0.6281080579209463
-0.029824836139881822,0.6140352132017945,-0.0909231907659534,-0.10884186537343016,-0.09480346221053186,-0.1418907337888565,-0.1652924077574858,0.6255562539564585
-0.05434251860628475,0.5771187780803673,-0.11484676069938617,-0.1533341584316458,-0.1108183122414658,-0.17654670853375684,-0.18755942060305406,0.625731048352444
-0.026635709060663672,0.6003630819443322,-0.0648041354591222,-0.07569859169892103,-0.01783089985718995,-0.08074618371645939,-0.08910008110659591,0.5682844003664898
0.006019772043638557,0.6607534157108547,-0.042502743199868034,-0.03911837734385391,0.00724457654635999,-0.026047396294964116,-0.029730187088383174,0.6376077519640072
0.0016833155074137823,0.6695118220366283,-0.0322580757246307,-0.025694948897785296,0.020999307448142386,-0.03826460514094114,-0.04485521432132853,0.6170994921877845
-0.020134796831906297,0.6352961887699039,-0.04685047216442869,-0.05912911396963931,-0.04138370630186109,-0.06934983326891446,-0.0793452100727229,0.660077145911416
-0.02873225919796432,0.5697604770996654,-0.05610222077709201,-0.08395980979288233,-0.07415643212484178,-0.10920913742378774,-0.13378413083593552,0.5509920482359809
-0.03576754035361309,0.62222764676972,-0.07409206047556884,-0.0806098948831545,-0.06978601693927196,-0.11606999403474612,-0.14971149539893605,0.5752844327652318
0.002832049386823758,0.6648200550457893,0.021747685385900765,0.03515418639930013,0.03085100598470046,-0.004483139554730539,-0.005466434321998375,0.5596968315728961
0.032610598145692705,0.6174237642128857,0.03301007998928574,0.050170971908148586,0.04541610426028849,9.689868984332344E-4,-0.028584354925416392,0.6363340548808777
-0.003644857058806246,0.5885254001850607,0.01908720694916204,0.012241861266726982,0.007203926287837593,-0.009961488390814722,-0.023731274945750235,0.6278217781178254
-0.0038501346547113817,0.609391097869425,-0.022075705628306113,-0.02193058538204211,-0.01840598790126083,-0.06619891822887644,-0.08042171961598438,0.5881239730193576
-0.02230399134881623,0.5957426453579424,-0.05430978105274786,-0.06096947790740803,-0.09143023224381328,-0.1021367597591689,-0.12093652570760645,0.6299488193112567
-0.012045770542565011,0.6234781005986523,-0.012142863419676785,-0.012061719328648808,0.01918523268954263,-0.028637779274057192,-0.041707757142132054,0.6557209797801854
0.031692238962100744,0.6122614337140733,0.04459441596015144,0.05072269675272052,0.07481239280966973,0.0600623521024729,0.0576160536438152,0.6532939184813044
0.02737383898616668,0.6202598088806167,0.030438008925761564,0.0543102332452227,0.09849713711379496,0.06910904215311936,0.05067653980242897,0.6608280924130797
0.03884871920376054,0.6281110010022957,0.011492552210907975,0.014530636054404479,0.06146490550451131,0.02989127032107802,0.009249875813718464,0.6410976235246606
0.009552568435561477,0.5987992594605364,-0.00954704555877056,-0.014622263872890496,0.03203865830419771,-0.004608896754089933,-0.038002097266484874,0.6339264957539834
5.0403255534904E-5,0.6384487189787682,-0.02117481318272341,-0.01997934421516691,-0.01959469128430877,-0.06236180847712702,-0.07611968452485467,0.6127068147139613
0.018618082372209712,0.6308341417570541,6.331483896413832E-4,0.013872873378838352,0.05068502897057981,0.013586660448618622,0.0056411822450212565,0.6432555860962903
0.056848552213964766,0.6098348679680605,0.06552233462014923,0.08730114105052174,0.10731551254783801,0.08589605156673429,0.08654549640503872,0.5759544207544143
0.04749255679289359,0.6168837022666054,0.08080186838348583,0.08268829152746215,0.08919141285544459,0.08268080202628007,0.06909078744378515,0.6118758670120219
0.037271266755809794,0.6892883315420355,0.02495481941277058,0.04454674036641296,0.07420269738775793,0.06447263556890805,0.04616748421244374,0.6541543042646697
0.018926750740207766,0.6545440263535489,-1.5364591199346195E-4,0.002339813747148477,0.04916362877704753,0.008373761767910185,-0.005430172003923638,0.6908667366738718
-4.019228941662859E-4,0.6372380169737267,-0.027209155701148437,-0.01497812689403287,-0.0074354360114687055,-0.051226979419387454,-0.052741049840566344,0.5805124882905118
0.004158956020868027,0.6566457577299871,-0.03199311751587953,-0.012459129074879319,0.012063156400476564,-0.017410067072171936,-0.03506806200480773,0.6190835210420169
0.05065125015231187,0.6779887993834453,0.048836044105937726,0.07000286983373698,0.08435207190041728,0.07975353984933829,0.09054226250640211,0.6520866118044266
0.03610883473170234,0.6977779062348778,0.045454730262677955,0.060631967630796896,0.09341144838142716,0.07466551367545478,0.06625295112648034,0.6903859565821295
0.04648141206666041,0.6695539328919798,0.0230471351358028,0.024484005013029782,0.059378713592460414,0.06316006847484587,0.038153231198135004,0.6813425352200423
0.01781217516847549,0.6481718364156847,-0.004828592808210366,-0.013097685350639172,0.019232299141240368,-9.72452005121681E-4,-3.986883550845055E-4,0.6275566182016702
-0.011108759527913337,0.5926173829379751,-0.03337064794308843,-0.04365096194107419,-0.021064186518305338,-0.05049419217070954,-0.06663491626471313,0.6423638371595684
-0.0038233161325693524,0.6311949347012925,-0.020371465779955727,-0.00895323823754522,0.02566621036306759,0.001093111623317885,0.003401544992110194,0.6239420770411226
0.02469162977187563,0.6098006845450544,0.016420869760811672,0.023199337416076705,0.05372146459952551,0.03268857467455026,0.04953047359347783,0.6581832896285843
0.015591277492401507,0.6311011784661105,0.005761581164861821,0.008779202260369129,0.02540022622158744,0.04911883842749487,0.04451425111093645,0.6308507675734376
9.237512583359709E-4,0.5906386290854794,-0.02945627596253601,-0.03955722027103489,-0.009158586039914453,-0.015845839346484647,-0.01753327050774061,0.5811155759169023
-0.013661351010876779,0.6201449839619309,-0.06427919272958689,-0.0592287099870811,-0.02393646566597348,-0.06704815238423846,-0.07385733283217816,0.5729366930734335
-0.01918152902532152,0.6274617583288393,-0.050152322760947596,-0.05171584248781658,-0.0014222948297102557,-0.032694186829300316,-0.028997192973104165,0.6386125814509487
0.03603661388803771,0.621100888990414,0.003760968836970664,0.0328680514121255,0.08406617570310967,0.08223250034415162,0.0925544698647714,0.6100002770751357
0.036202701252135275,0.629704664417867,0.014383883478118444,0.014957637712009177,0.09521164196922678,0.09855586046476968,0.08703354933406605,0.6684152638693696
0.016084711386975876,0.6616533610828327,0.009525267679360142,-0.025660996138583907,0.06371833833944039,0.067342755805074,0.05593413206396541,0.6262689235158283
-0.002319802701959704,0.6362063211260953,-0.03832640616543348,-0.03770640906025271,0.051730925318433894,0.029662799000439322,0.013832221409657888,0.7022548928591933
-0.01280486849016572,0.6233246975221648,-0.04753143401786305,-0.050766335083446294,0.009387810557534253,-0.008519771300553938,-0.013562901418854911,0.5759154665282571
0.010117690228051084,0.641844921444045,0.018104975970851818,0.011043007966117005,0.11758916342091094,0.1122872723842974,0.13135218867739912,0.5791709214293039
0.021090205604309416,0.6105361072726936,0.03356902025139644,0.0551671262879998,0.11939449587841808,0.15305471673742907,0.1510985519461082,0.6392312874837721
0.037416664028180564,0.6387360316408454,0.032547772670599016,0.0355772372036561,0.11627509344874802,0.15222887434495264,0.14599334438467895,0.6177437608095292
0.02595118240894766,0.6042038821756878,0.0021620756875764652,0.0020122432272083744,0.06793839896902905,0.08355555769416946,0.09836735972716125,0.7248097614471514
-0.004499074050986266,0.6431984606794717,-0.029493178229510756,-0.01635122896280058,0.03200659155724374,0.05002222415254801,0.0359137662374024,0.6710134881089338
-0.01040033943456555,0.6100385491823646,-0.04833632578708126,-0.07503943430603131,0.0057965200955500855,-0.010707298294578596,0.023136092965927692,0.6899688563142465
0.03984055456564134,0.5925577258215192,0.029462544352573287,0.02368118049947593,0.10771648210770403,0.12269217197988143,0.15139361747364738,0.5902223105319062
0.03541910433399946,0.6138989187093462,0.041660857577249674,0.049565918935263714,0.09881123173239233,0.1267339913348379,0.13963432779795948,0.6607202927493235
0.029738979586258797,0.6034964770060127,0.03959209736333147,0.018292224004042127,0.11029052401810656,0.1378256690386365,0.12564889200338622,0.6850235174592474
0.030316803654173993,0.5980243394546112,-0.007461929585061278,-0.012136368839041253,0.08499442152026616,0.07710310410538146,0.08161798491160925,0.641572079456347
0.009396201143782878,0.5835805509053629,-0.037857959469707776,-0.051041063530063345,0.031304176127091396,0.015046147634503577,0.04460090138538386,0.6227665346000326
-0.00474060127291552,0.6114832867486417,-0.03124164616513178,-0.06412989086446193,0.015294957372885377,0.0026047627466934484,0.021469959051235193,0.6233620827960961
0.02047889886591939,0.6538109450498777,0.0210782380854318,0.03562028548233395,0.11105776000664681,0.13822629257189584,0.13492035154730578,0.6301137505366395
0.03205355730751729,0.6393446773393704,0.029858463815073854,0.03135456997303579,0.11900871354885123,0.11816324851948408,0.15070235479408778,0.5859270792386885
0.038856804806210454,0.6041400018416815,0.02359185196408563,0.02472570079215717,0.08167426639815883,0.08600386325944184,0.11448730673471133,0.5995846328547301
0.0150717996500736,0.5757407480398542,-0.018995432972789578,-0.025605441861950035,0.03646780198275034,0.020738682394984043,0.03862522419655706,0.5667307412239646
-0.004246194727903743,0.5927960228565701,-0.048180885276191035,-0.03534285632591399,-0.005255926294245704,-0.008942558572682582,-0.007066506196195186,0.5721826974335861
-0.004222222210921928,0.610086381236987,-0.0512926653073374,-0.03564743800128034,0.007955137939953397,-0.007019918846385706,0.020523928699936436,0.5818116514201912
0.025093752494396347,0.6323502944813072,0.018261665025807873,0.018818709576689876,0.08915018543504716,0.0603437053914104,0.07894467824121866,0.6333101449368109
0.035892362952023575,0.6201567886965694,0.031427069409229604,0.02809079637366138,0.09143177835515988,0.08518602169376961,0.09346297842722534,0.6148200747507587
0.02483353957228724,0.6045122283427342,-0.001290101929993065,-0.01293008015899003,0.059007186991001194,0.026280251475933512,0.04473840622678955,0.5858503805219708
0.019113491757088225,0.5673369321742192,-0.011223078796361537,-0.027080487270381176,0.0030357191376588666,-0.0029497070887225664,-0.016691330088473056,0.5686961397877834
0.001385300705591629,0.5591751373595033,-0.033225208892487194,-0.024905911964662415,0.0076367623758350775,-0.013880666380296903,0.009745892364709635,0.5827712911139777
0.023826273629853883,0.6692896224355848,0.02482263632131827,0.031034040568847364,0.06885826427416615,0.05047232507439799,0.05511693391718531,0.6249352373430024
0.02246374810426202,0.610415901476057,0.02728063594459665,0.03603511498429717,0.06274496892057421,0.05466113562069662,0.07345477778545677,0.6301545886128329
0.031059922063953808,0.5862866247370249,0.008776007755409891,0.004427617303353168,0.05523872777377036,0.03084231604491511,0.034810387161531106,0.5888792216485104
-0.001970053365188067,0.5864723700732554,-0.025094959340133637,-0.036344142688560156,0.0011811616914748117,-0.046420218646768305,-0.017614201439552873,0.587744954724347
0.0017802053390002313,0.6102535667164599,-0.016923571084849893,-0.03177057595490168,-0.012556820955759584,-0.057548740889981485,-0.03509442504223619,0.6074743277092396
0.045369751245736833,0.6079623554347816,0.05075495226095541,0.04935258485082364,0.07860557563035626,0.06439656968776757,0.09669728940176532,0.6974355828234349
0.05040363245586191,0.6319812860480811,0.05965792876787533,0.07187665739221528,0.08663546120991106,0.09616893013780108,0.12865540522277047,0.601957854202373
0.04929677964714072,0.6155420668084406,0.04865032975183193,0.07167237342494617,0.08941924119356147,0.05520115625300278,0.08862547963707046,0.6017202479307178
0.045815968647658495,0.6291975699170719,0.014654856923249525,0.026590812299698372,0.054428766583041535,0.02929430507155571,0.024735760062863543,0.6328799561129798
0.022038431409783905,0.5991836492383932,0.022655370200708194,-0.007831492941387934,0.009436954353079327,-0.01650575329027883,0.005489451969489721,0.6022397247363808
0.02389188899681859,0.5991140434671471,0.05385664300140068,0.0401893139525449,0.04870990339298319,0.0346392512022101,0.049312588637117155,0.6702787462618464
0.07111516346266256,0.6397467171781682,0.09867313464974874,0.11435609271144849,0.10981518527674401,0.10622106984799348,0.1248026424521314,0.6012840934945142
0.06855427691157516,0.6535468580893484,0.1045804864037403,0.11647829845963797,0.09420481835374789,0.10830622132489864,0.12871450259077644,0.6418895318582502
0.05870463878634877,0.5523747024697556,0.07934389324922868,0.07332800434175575,0.09192618957661539,0.06961753569341918,0.08738105184590511,0.6499632753830034
0.04646238199585809,0.6692736041641569,0.05404731520151643,0.04849324264227661,0.03634065934802317,0.024824750805869027,0.029542379214447224,0.6390971544509193
0.03400749645434579,0.6443381846177476,0.010339977597074104,0.007701196569966495,-0.02036157342838403,-0.039356203632672816,-0.042943032113912316,0.6303024972527188
0.03550433849469047,0.6233046296129605,0.041549634611637166,0.056564182736434265,0.02246144824955041,0.010642449603554665,0.023238411666225655,0.5746979840189009
0.07698829339945355,0.6696689296048883,0.10480828914835025,0.13520142982059533,0.0783468757191507,0.08434977302241731,0.09588672754616104,0.670271877299699
0.0764378991228642,0.6195721384662961,0.09380124116544315,0.1276922665913821,0.0734154246735081,0.08436857931719174,0.09536552520785624,0.5781998738923774
0.06641784456415588,0.6123121472379959,0.07006599722969264,0.0805825884575188,0.05236164678227705,0.03137075793431557,0.041288160038525715,0.5671426349676266
0.03301395544441819,0.6556194947869465,0.04282124111730277,0.053845016280036476,0.02380101689731249,-0.030832920610037843,-0.012990914538375848,0.5939542944672342
0.01617841489452858,0.6001424240412556,0.002807633703000353,-6.536990952128472E-5,-0.0408550324330106,-0.07996861484762556,-0.07852123778078422,0.5738168846465587
0.01659487051495663,0.6301380624556386,0.02097413968998258,0.027748059095825353,0.002213512539049501,-0.04687001738151814,-0.022819952380863293,0.5780674815986215
0.05685246693541626,0.606696088880105,0.07085827554322773,0.09464685154398898,0.042052118649254226,0.03595127221622867,0.03207289256723968,0.5735163179894781
0.052203276051423886,0.5862368878206583,0.05796376723544687,0.07855464119765924,0.04160400669263846,0.027377785141209275,0.036602184410496355,0.6299561152414082
0.043330964314444026,0.641091748574721,0.036409891336708515,0.055607104162600736,0.0058524202746980105,-0.01378386587033617,-0.01235243161707251,0.5823995259466538
0.03204250216925568,0.612043321655591,0.01999570285754132,0.023305770904262585,-0.006181054798161082,-0.06577632321228251,-0.05938654371000001,0.5556385044916954
0.010367094854402608,0.5886506287589993,6.357559079700598E-4,-0.003176924545172882,-0.027906809092645892,-0.08396799882887714,-0.06713414082206359,0.5739820946250594
0.05535004562384834,0.6154868021250375,0.05278385807143831,0.05542856725124145,0.054349884171590875,0.023709040222897375,0.030462940588750573,0.5616955794637443
0.04965240711904844,0.628937654488098,0.036623905294892505,0.06135733703998809,0.0422327524528005,0.02055415415046903,0.030034551425752263,0.5830179520638
0.0384297790539094,0.6702749311258075,0.030297042965692137,0.03672097283712954,0.03956749055961664,0.003733303246754809,0.005738866538580854,0.6062844280773956
0.017947524362113797,0.592265113756112,-0.018074383209871092,-0.01927161137960784,-0.015525702906336201,-0.055405307316008026,-0.05972692453851858,0.6241502555194941
0.014292199398299218,0.5805268667667498,-0.03839489508404236,-0.041164291050412014,-0.024507217645218394,-0.08764044179415974,-0.09302649927118403,0.551117197932008
0.020307055502088944,0.5790528889135828,0.019843057808108622,0.017859300798422087,0.03692765640721389,-0.0026834416707467975,0.016687784293431516,0.611229562997037
0.05768538137689688,0.6029117201923339,0.05069149334573598,0.044696476096878636,0.06537132854240758,0.05044884152682131,0.055208234710580256,0.6180398894028208
0.05231257933853758,0.644838432544196,0.04354177741732562,0.033576313621033416,0.07859086513130409,0.045829643503302465,0.06454967517058363,0.6704024834837388
0.04602387625343596,0.6236832800305839,0.004273368631060444,0.008714226234926606,0.039450850299832245,0.004394201527090732,0.008984324881160388,0.6911917679577811
0.030431191328227,0.5603285874658085,-0.009450561121499872,-0.03420011981767467,0.008725073260058799,-0.045618560601457324,-0.018560632400080792,0.6459545954445861
0.0037276950578651368,0.5856390298658914,-0.026014536678802377,-0.033974155752179054,-0.02560982819835996,-0.060685766367255624,-0.076318349649245,0.6104388491589511
0.042616270614717504,0.583936395039982,0.05018723868110554,0.0440411848282488,0.07618112371492751,0.05187677917456887,0.07169841283247248,0.6018546266722572
0.05855265224494971,0.59339236924203,0.05088421548097862,0.06500969763293857,0.07744294027143324,0.05004474353155845,0.08021938269204863,0.5615804055567728
0.05969620915672196,0.6244120473351003,0.043470914548705976,0.051288933482185065,0.06683636216665255,0.04178962069982077,0.056979583468175145,0.5939963437852563
0.04985875650762953,0.6495521355666256,0.023327415968220272,0.01900726339129054,0.03817868956248298,-0.012481098868604,0.001460512007674727,0.608155864900401
0.02703690427482374,0.5837415948886994,-0.008085335475742424,-0.005422984064965417,-0.002177565180440353,-0.0534927065695282,-0.04277084483085855,0.5716992048037672
0.024499384613925562,0.5997922305453522,0.001379931022241727,0.00332489094249059,0.012341087960458531,-0.02761253385742455,-0.016556629385386327,0.5240556362573435
0.05336571593962198,0.6243980622409671,0.07611318527725275,0.06179391792044977,0.10161651181891007,0.05435254342974026,0.06979994836426547,0.49441643584107053
0.0625956192128821,0.6955991028063936,0.05672795297106684,0.06059971633050399,0.06706698953018118,0.03492499367185357,0.06641667181300426,0.5685021255556237
0.0506579489927885,0.6503674200056011,0.03235840558693118,0.04855219498627732,0.04917577954268736,0.01682489677804409,0.020913894228106814,0.5242002423458484
0.03670517934923702,0.6765917885082338,0.011562606823719365,-0.003587606021488749,-1.4614136077325908E-4,-0.03973983788772923,-0.03837993715854236,0.5143790705102937
0.02318385108997484,0.6410952581972031,-0.02383571317169918,-0.04972191603685886,-0.03174025116134777,-0.08361242070505456,-0.08420730383118569,0.5420663457422852
0.02903618322163429,0.6044909186480159,-0.002760763440884521,0.004029244905311463,0.007694714791662226,-0.035057296440603014,-0.03123728734641091,0.5486048663733964
0.04867277600435296,0.6825888204646245,0.029428986654861437,0.028740427920913962,0.019492527956062645,-0.004241380354638021,-0.0033119777612712767,0.5133852435335617
0.043848439313866804,0.6818608573916808,0.03438367593105433,0.022072193753394018,0.005242100705115575,-0.014689692544045271,-0.016483496047841724,0.527747307052708
0.01936025635061056,0.6564720329259989,-0.01594304754596367,-0.020002686406184387,-0.029075264630356874,-0.0638608086911947,-0.07661623704191153,0.49464704796101605
-0.0029100707478843225,0.62400945886222,-0.049704446398487936,-0.07317001712003599,-0.07258403222277947,-0.11357378982983,-0.12848377662524388,0.5008946822512994
0.026826465076730185,0.6858299353751944,8.190390936857617E-4,8.540940299489811E-4,5.100806550324547E-4,-0.04061601481882498,-0.032729150815590524,0.531190793856803
0.046427343798423726,0.6883261135588888,0.047126879285006355,0.020302004227739697,0.0274720781872216,0.023311313888194546,0.02749709192748607,0.5470374402704719
0.05558337253184882,0.6452553836706031,0.04786562858682917,0.037331818338891,0.04405863859058592,0.026232160420504747,0.03640968980714429,0.42812127187847054
0.04191880521516182,0.6305123329909494,0.007909179839310734,0.019391275112934963,0.006473431205113803,-0.008871207662689019,-0.004712774521504451,0.43545814550159334
0.041052660027764656,0.6091083114845838,0.0154537603727913,0.012676800919516043,-0.02277687954387293,-0.04327864091654899,-0.019057563014701576,0.4249437123389882
0.0342049243545734,0.5951425631007685,0.03654560486358997,0.02957853529118272,0.017965898598347206,-0.003594074626445742,-0.01390951334019876,0.45732048331470854
0.07440618105832587,0.6171981190521274,0.10326550299877725,0.1157704463671575,0.07041521856224416,0.07961034155898747,0.08993816923678301,0.5205277839730552
0.06134317726385108,0.6268236990400567,0.10923884848007526,0.12591366907768708,0.08109583391384555,0.08820815672016194,0.07905145205749828,0.5333066666059273
0.07517291813555127,0.6258081711933512,0.08959093367620233,0.10508111484383378,0.07226133801286501,0.04631181447360777,0.06419163950617243,0.519547893421047
0.054089117540877606,0.5813487445637733,0.061318092235143985,0.06270153467294397,0.01185635991358766,0.0026918215264331476,0.023793621078098966,0.4980802950038548
0.03120343634380629,0.5954325984154204,0.0305494194490282,0.025322613998846895,-0.034468864103193726,-0.05518084657297077,-0.03356435931226699,0.501023295765072
0.03884369571695295,0.5882161476976264,0.06728994587450547,0.07934496291322812,0.03055812139729243,0.015035888183935935,0.026367551652057543,0.5682637315923655
0.08672622629966961,0.646378434621452,0.09680320663654965,0.10898923810207423,0.0634461833914378,0.06331132591338107,0.07008475266881899,0.5348583614416834
0.07482010594833799,0.645539997675152,0.07706255407867486,0.1202985823395975,0.04429533638249362,0.060529615312086116,0.07489064951929551,0.5360111843853159
0.05947757127616946,0.5601914772790249,0.08339344300525275,0.09237143389443438,0.017399441581386673,0.011209390991236466,0.03662202691035183,0.559304214915279
0.05231023743778065,0.5899138297952929,0.07250732273433463,0.07809128345676783,-0.012548467370945275,-0.022529211995046507,-0.027318239967133232,0.5298964764183277
0.03810975050169783,0.6060903714770388,0.04678118771806101,0.05706762205957439,-0.04495480965711215,-0.0560678465202936,-0.06154226103522817,0.4810240013101731
0.06091882764071612,0.5877938825450922,0.10329408400099795,0.11716429662142774,0.03808509516200412,0.03479665235805724,0.044345887578446604,0.5185205947249094
0.05667025604832683,0.6288707498124073,0.09373949830485544,0.12198605677776356,0.018119645500922925,0.012895972454365507,0.047343975004286394,0.48607031231461095
0.05604040033180895,0.6178892379174549,0.08050243493958947,0.0913618602909575,-0.010499924451762272,-0.012171561319296075,-0.011223195861713742,0.49816685960135476
0.04135846268882132,0.608096642432151,0.034612506681689345,0.04169638985915451,-0.05105059486493798,-0.0703608703249606,-0.0722408251697255,0.45437462225796116
0.01969128696130111,0.6671855962027688,0.010836277254603082,0.006975487799446427,-0.08334235810458776,-0.12589095983768442,-0.12387566797399581,0.5404219744975717
0.03763496424619135,0.6682423966171086,0.07474104585338641,0.08590833738645627,0.005489301110093974,-0.021150794615424625,-0.010716173726343583,0.5479856142337839
0.067494824681948,0.6775652235455838,0.09476630465229832,0.10926091357912748,0.03289118178157981,0.01596017919285828,0.014227573394192753,0.49444941774228585
0.06127389362253941,0.6405143833119438,0.08545714948856004,0.10405188727387435,0.04681225281596782,0.02463762038294357,0.004439775319302511,0.5019150380275967
0.04650051876625448,0.6385535270700384,0.04121544931281562,0.051255376277400864,-0.007213737017608766,-0.05075355404029193,-0.039096515949041795,0.533462250277362
0.046320260252443186,0.6724412346014389,0.01831578046264586,0.033857150019530734,-0.052713911696456325,-0.09572553483819506,-0.09376334388580555,0.5443059954678632
0.02344977320561945,0.5794171982419599,0.01188239302555804,0.021759728512645928,-0.04931832799300637,-0.08518224597885765,-0.09209703471183038,0.5511787354660691
0.05867272631605866,0.680700720915093,0.08258081999914393,0.09500764424249204,0.016336330842731214,0.04415392887279242,0.0415664124260868,0.4988270466191062
0.06990500541370369,0.6005381783298336,0.06458881184711376,0.08667300328601599,0.043974059217707466,0.00948241689038892,0.02325723027724853,0.5010962945816786
0.06334202529150225,0.653743000773609,0.06490917516234719,0.07838470984591123,-0.0010900758201633134,-0.005244223691760249,-0.01210306037766669,0.5172315228085191
0.05199124312369664,0.6201649870617826,0.027892466553714964,0.047673840297647624,-0.04720784544504245,-0.0670888223556094,-0.06964954570004755,0.5204850180600611
0.03534305746795157,0.6275357552094527,0.0015799924320878094,0.013940708027803993,-0.06319306602337228,-0.13311937292776996,-0.1220054063986099,0.4835120742641916
0.04012548546188672,0.5542179841131795,0.028812996251235814,0.03432707796155985,-0.052059523260823505,-0.07689893225623781,-0.08148452429826768,0.4338748727753636
0.06431625909781082,0.6372416637091457,0.07302275253857754,0.09155109368711409,-0.008945692412728802,-0.006751403595473066,-0.0022648793234059162,0.49532628598038775
0.061345479709681724,0.6292771716285434,0.08048702528464846,0.08394679468113243,-0.0040191967379598235,-0.027982278777857778,0.004152257847460995,0.526780777283222
0.054792488554986536,0.6084137707482664,0.04882005830425589,0.050602052653729225,-0.01625224865946889,-0.029417795512818763,-0.04468180495304535,0.5448187355326832
0.03906296261294103,0.6131833137587447,0.027487974190415914,0.016360340550932752,-0.06075110745353157,-0.09487917453262412,-0.09031963404903999,0.522743003926159
0.03880521882573155,0.5987215071615256,0.005422810010278788,-0.0030883641765999115,-0.08300671163624804,-0.11584202898653509,-0.10792303337710518,0.45475869269075564
0.05240669739457096,0.6295724401104764,0.0571998162129552,0.07605779551594342,-0.003589262158952123,-0.030943349758414212,-0.004387357009719395,0.5003350736436152
0.05733726338291122,0.6455022206448469,0.0678495742165079,0.06794207333503258,-0.008183171289911662,-0.020129635649315653,-0.0036192633854325996,0.49194133971366066
0.05541856074922191,0.6688661734144269,0.030633841795173946,0.06143151670963465,-0.018600558390366336,-0.04618378014117333,-0.01917069625412361,0.5181157060763008
0.03670502924593431,0.6608203254924175,0.035791889224207146,0.019803735409251164,-0.09139660897509921,-0.08883772634603086,-0.08699019810469683,0.41666600543927285
0.019884111067577186,0.6057538320858601,0.016880954001871337,0.016965014852698284,-0.0923186282950678,-0.1384995787345986,-0.15224021740653018,0.4454688940449393
0.03753749212516895,0.6482989128744193,0.0632319699241557,0.05495122853696462,-0.059375111653022596,-0.08220156448980746,-0.08414434608600567,0.43749215352923415
0.06658901432093074,0.6699458184112757,0.10853111571350411,0.12301677716327941,0.027024547547399726,0.009970845123141562,0.028790886382344852,0.5370319089105638
0.07053400554508471,0.6730774022115932,0.08665053635506019,0.11709213235328171,0.02134302717413098,0.019043878497477216,0.0480643667604685,0.4939784673964611
0.07246229841645951,0.6307778605788514,0.07336081867234753,0.08754056391236927,3.6415956825573426E-4,-0.005804660416742829,0.00914634930958723,0.4413006329690643
0.05590876233011252,0.584825584024384,0.061683761728600156,0.04841020148051584,-0.05617105323358926,-0.05571618502418608,-0.05180701198541852,0.49451960819633484
0.027786445783968734,0.5876552053082783,0.004699951224428683,0.02830747531457759,-0.08127112241144589,-0.07949797017675819,-0.09210631549483785,0.5566760591400953
0.05184544474829607,0.6114995487651079,0.0802637139692048,0.0973145074510102,0.03790215509600354,0.025496331794701028,0.036034051285768066,0.5667139264116835
0.05772457229871446,0.5647494949055362,0.08602077235999947,0.12132279018784649,0.013387685934371478,0.05359366368479202,0.07090989928331146,0.616065195838479
0.04683926327655919,0.6232908740442463,0.07210757243213224,0.09542462407403908,0.031781228771001264,0.05540024974071416,0.04320117616729515,0.5432860972850758
0.03979050766173748,0.583766515181392,0.04286287027777481,0.04340465492263678,0.01507040213898339,-0.0161459713942519,-0.010051992459452945,0.631483540812989
0.019635608858665908,0.5898364418802756,0.0032626807959458336,-0.009706581557388152,-0.04351329193610648,-0.07625086830698555,-0.05940584564503922,0.69583203740384
0.015871307032940006,0.6410222575602244,-0.0022148452686473483,-0.015528844099587153,-0.10741449372394656,-0.09389709404190409,-0.07057696835006644,0.6354273252330646
0.052320916378768116,0.6988890896507644,0.0314007554293057,0.05464106824063356,-0.029685779166443223,-0.0042122637774155616,0.020865537114755143,0.5813110459291742
0.047636958521822745,0.6987247461469296,0.049122891563014325,0.062477773629086,0.03958746176511219,0.04906186041316009,0.0727329481045839,0.48785043124199334
0.05922299499707771,0.6571611466072843,0.03789666807186754,0.04167413434962231,0.022102538031024608,0.038974157042967646,0.03487029808419864,0.5915197763634782
0.046499780958143076,0.6155976069530652,0.008149040387177241,0.016611980145816708,0.020123596534941977,0.03266934481183231,0.03738085320993858,0.511972332449644
0.03637584335929871,0.6632331288232016,0.021982313029312136,0.0064442604621067255,0.061313175787008185,0.10109530217067582,0.12883175669507832,0.5939227649047077
0.07219457541661072,0.6839878839962952,0.052319303166827286,0.05273896132274271,0.11880482691470029,0.14511988581170449,0.16596527401669545,0.6269397168138869
0.044872220644674936,0.648180236566028,0.030125629452084208,0.015862828926632447,0.07823041095698396,0.08279455011633671,0.12284801598086813,0.6720947841582197
0.035187194224312386,0.5908441593917578,-0.017234623674782873,-0.018221483486645595,0.03051385742397747,0.049532023011708615,0.07015565136109903,0.6406077448566176
9.85075988780177E-4,0.6014862574492114,-0.0486209472467239,-0.06153441449595737,-0.03049628805494219,-0.020626799456395038,-0.016389732079690057,0.7163449661050063
0.026768271865375615,0.63991101314892,0.00980480774106176,0.00170745700377838,0.030840693835914552,0.044431092199837395,0.07617716699914198,0.6642709497985164
0.04856370224779467,0.6055682044808779,0.029472315226741957,0.028910057464964476,0.05884737021444829,0.08795168471750747,0.10135471981639989,0.7176932282661695
0.04414507620764533,0.6430451987757484,0.004466860762109934,0.020364637371099933,0.04122108112117786,0.0791362678252576,0.07244266548366785,0.5940754983062028
0.025720453469777613,0.6143358663320737,-0.022089914206651507,-0.029086860444917,-0.019636861193154567,0.011283157650641144,0.029496896639802865,0.6033686319794653
0.007134568062418829,0.6033197153654366,-0.05208188929048872,-0.0821539429217536,-0.02316332537790006,-0.056872047546822,-0.029531858630728523,0.5618763216219622
0.042461100347601394,0.7212723011650194,-0.0018015642403898901,-0.009297494053628516,0.04553925102634684,0.05221564131491209,0.08450593404114781,0.7042258879031513
0.04765760009050155,0.65751694785742,0.028249169360253547,0.036413094127053666,0.08772233466886414,0.094114859613965,0.11957816094356542,0.6623534212038407
0.03575860467441807,0.6455158745806505,0.02175969516539483,0.01688242816084378,0.06428450199179132,0.08733973244719534,0.11534146906728049,0.6565823587532064
0.032815119801264864,0.661401461960433,-0.018301780749668567,-0.02880444946028576,0.046643425934692964,0.024439602983699574,0.05775105822870457,0.6661252008569667
0.010289701280594017,0.6852441351144534,-0.04418759067245867,-0.06058902561856512,-0.012964633307902365,-0.02465612660157398,-0.040549082003550396,0.642774578534169
-0.013471374075534259,0.6795545846717589,-0.04042936236170385,-0.0484511917835694,-0.021032251353600536,0.004191294869820323,0.0027386391461710034,0.6730170417030801
0.03825199174328449,0.7252852223419993,0.020762635639568584,0.029529558833362328,0.0682469937921586,0.09075474569180757,0.11062275576930293,0.6728204971590378
0.049792526212364775,0.6323149291044132,0.011074342189931282,0.0190649397702943,0.040866168094175835,0.08759203494811767,0.07779315325815744,0.663380043827718
0.027345822913943954,0.6483055650818941,-0.011067864282936577,-0.015948512988893725,0.02339306174127801,0.04515636440298467,0.024817903403963584,0.6141735251897249
-0.02007547171022872,0.6395168241708927,-0.04391886160365968,-0.05737145723149041,-0.023018526706105755,-0.03444548786256504,-0.037297710875924005,0.6635682761538612
-0.021605417364992736,0.6597812348641963,-0.06790235291706426,-0.09284460208314141,-0.0789008859692899,-0.08372827687356385,-0.09959241523266105,0.6162091722052383
0.01201287001715189,0.6551374126282807,-0.015425194870426564,-0.021530460566202062,-6.226292970238824E-4,0.02164615089406473,0.03304148035371629,0.5030553513963524
0.013449203787867547,0.699742176430058,0.006015027966103221,0.0038734421562692358,0.009100964228327646,0.03612594533010856,0.060111455624362986,0.5991940775425959
0.0057604432187059315,0.7053761593171134,-0.0020535533906866753,0.007369839725227619,0.020901041424130372,0.013579201814774658,0.029151050416549643,0.6588878721016059
-0.006958913887220677,0.704637373972811,-0.026483163691638032,-0.045942121298806565,-0.04843357307898179,-0.015724942089545346,-0.029746681392471008,0.6295375765070641
-0.02420392150227161,0.7057200824497198,-0.08290704956559485,-0.09638423040532282,-0.07092778903927627,-0.0992049332114944,-0.09826481329584438,0.5797204770245716
-0.0030969158348258165,0.6980059428963798,-0.01708728827453963,-0.008032486618031848,-0.018475586112650332,-0.005175874163580754,0.014032359908744834,0.5706941126202983
0.015047828469913196,0.6623257276697894,0.024776226994865053,0.038208684524049345,0.03596101239550273,0.056610949996698905,0.05580875776198442,0.6613989504844398
0.00846504210506885,0.6829466151855952,0.018990410922481795,0.025361827333043176,0.0362811104552034,0.059223175954552856,0.05991669316176097,0.6005313742553744
0.0016755557867097499,0.7048565605414976,-0.027674558153615008,-0.009827875329577206,-0.030924507043617433,-0.0060110481422654865,0.001984178208506096,0.6373790310053478
-0.029078715909586154,0.661491286118553,-0.05545238761396426,-0.05986008706026067,-0.05798276912312923,-0.043467825725563715,-0.059593056896550985,0.5872642088774478
-0.03155776131800567,0.6518362436522599,-0.06306795729038873,-0.0533201349035064,-0.06639507511590398,-0.07156220107136778,-0.07344539084855338,0.5705336111644292
0.014087278302869776,0.6845312304905627,0.028932011194538546,0.04922860176987438,0.03928422795989654,0.10367752275250086,0.08399796759868654,0.6061750954130483
0.02018194921369748,0.7108716533979843,0.020185226307056242,0.05435775858806476,0.05425109899190659,0.07150067078142158,0.09642329641081229,0.5241245294268196
0.02685972929093079,0.7308062659502575,0.015415777094271037,0.02689556764168406,0.01886181005675436,0.06301219024524479,0.056734937314139915,0.5972638668894213
-0.0017362297725496423,0.7203169937829733,-0.013206620486558882,-0.020273454565247987,-0.019081749376753283,0.013236529141394953,0.012202581410803794,0.6046879509945224
-0.011972984486429568,0.6649816677841064,-0.04226425211535019,-0.04464381500854229,-0.0730307994348178,-0.05439091693943185,-0.047419960103722104,0.6913435959626716
-0.01232894051556041,0.6719738642505512,-0.021724650442374243,-0.012155776614493219,-0.008926599047235698,0.005017201479077556,0.02715456484027669,0.6265561910215772
0.023189509979956443,0.6793868029472921,0.04271263312573333,0.08006323019557766,0.0631369177868527,0.09999436849421321,0.09816567390025221,0.5552830701331491
0.03876952704231326,0.7093237227738766,0.054325368137827464,0.07022673015945978,0.06532578245292385,0.09326884842924472,0.10447467583922729,0.623261238877363
0.022584667231070655,0.7049979861878211,0.02548219097164653,0.02959201863616838,0.0368324759825571,0.07316153991850276,0.09214666314743007,0.5849372931812452
-0.0017498854505575223,0.6567182770528784,0.001499716228895133,0.006776563035036261,-0.006991374710574602,-0.004180912174390342,0.024877648494369638,0.594799302257213
-0.009870884432809618,0.6190173736791631,-0.0377578992106289,-0.0376321219236928,-0.058353441135357086,-0.06304489901182278,-0.03176691022250966,0.5143251075629106
-0.013926339200632284,0.6929646921042656,-0.010656761917463295,0.0024679519545478873,0.011721170670766907,0.030755093330995548,0.045440038344795826,0.51602370023341
0.01439472549340928,0.6874366178524133,0.04998531961424063,0.06887576331022412,0.05936048137825352,0.09114479403374687,0.11003427818317515,0.5549742651791132
0.009040321754797059,0.6710865754522727,0.033012886112884644,0.056336523442245975,0.03556169483287555,0.0737588301082971,0.10044943415421807,0.5116162829506039
0.009456228851437438,0.6592214669795688,0.0038934930510398547,0.01383589144591216,0.019705744360388633,0.04510071660817542,0.062150007767400206,0.5396824876848657
-0.02947009828506137,0.6660262761566161,-0.030000754715850873,-0.035037274617979564,-0.038381714091457485,-0.019295113656968486,0.0043602602412525894,0.5216755317349185
-0.03331252778438849,0.6132626267363885,-0.059131556193710126,-0.060938360705630544,-0.08662974678113776,-0.07327837041598731,-0.03530149548651478,0.5440205902708981
-0.007179103566083103,0.6973276542975752,0.010300525861976008,0.024029147075613783,0.004842888176640959,0.028526463126024557,0.0518053553292927,0.5445176409796151
0.002470342265939665,0.6865955941520847,0.01999513325715363,0.018809489088146128,-0.006671906977710573,0.03574069365173236,0.0660357975677335,0.5159473355834446
0.004278719057481945,0.7095057879064023,9.186865966659352E-4,0.010469933373734874,0.023016142767210018,0.013031836628596737,0.06405632742753908,0.56449927556967
-0.0262099629845422,0.6707051249535386,-0.03520083144577549,-0.029368583743441912,-0.043500735993905235,-0.02185097658591038,-0.022102816775683033,0.5731828199932382
-0.04073527786476585,0.7192581986562412,-0.06784442436614586,-0.07158292222560877,-0.09918469423458949,-0.09377014247864504,-0.0758519866816967,0.599100368246061
-0.021921220989642873,0.6563929271947221,-0.04067926799565711,-0.019424538954336632,-0.029972974968401605,-0.022011936081785376,-0.00447250447785569,0.5742510768219034
0.0207801316119977,0.7014250526025948,0.03139369585842878,0.04629029903276191,0.06127667241100545,0.06331322172690222,0.0751787036497757,0.5695855073536081
0.007665561143728527,0.6852252941263258,0.025620117209088678,0.0427967656506734,0.011835637603036847,0.056757560670372374,0.07635554609208806,0.6356777707912494
-0.016297400345725712,0.6725550427390651,2.010649468791116E-4,0.013114047879829975,0.015926468315075923,0.002354373761542563,0.028808997731370377,0.5587458557487659
-0.021431525020032434,0.6562786122673705,-0.03930982692439722,-0.03770099955698882,-0.034740612421321815,-0.03218445717100382,-0.028692904137392283,0.5711962514632021
-0.043279469951750055,0.6544939608185079,-0.07648190331945336,-0.061029389059402944,-0.08604892582726338,-0.08812103854701137,-0.08157057568128155,0.549358101921393
-0.0022952832984029455,0.6638302675843085,0.01643474714876187,0.011051032155364774,0.014276483466389385,0.019576596016055315,0.021168056896424807,0.5699826048174814
0.019197941069746448,0.6968186123515934,0.02465478680786874,0.03920998143144315,0.022282861473697246,0.03798654374142453,0.07422428707835664,0.5748365488493767
0.01804813233640621,0.680746929565367,0.01814825312986069,0.02906107311983266,0.012589541519637303,0.02214086081994506,0.03813494792061402,0.568116425098484
-0.0029006352943756458,0.661717704578857,-0.012873687128945101,-0.015626867700146735,-0.02047457556947972,-0.030005071329056658,-0.01419972639652806,0.47649881367744107
-0.022799741414860623,0.6481292237708773,-0.042476204317661324,-0.05782801244162162,-0.07869615440275377,-0.08636415582726373,-0.08958901009959014,0.5126892691880266
-0.03264820867003137,0.659360735434507,-0.05678450544404787,-0.0847592846359665,-0.09622715895319131,-0.13399531208302123,-0.13665160005187157,0.44207327142267444
-0.0030320333626613068,0.6746231167275828,0.013657882797352755,0.025908137295025217,-0.007236564202554545,-0.011892114776745785,-0.017943715692321182,0.5059639642577963
0.025350949784699085,0.6737813284387573,0.023277443984037707,0.032476792617747476,-0.01932763858114211,-0.00659263358187528,-0.016252763556041036,0.5464120148374179
0.021708528260351655,0.6462948089044903,0.012500136527947622,0.00999990901526667,-0.031294385293324296,-0.04243229736174881,-0.02874488765917517,0.5331171374913046
-0.008446356158397929,0.6378404364855473,-0.028967772988170413,-0.048244823886584645,-0.05962922898021656,-0.09828833854944574,-0.10065082098035832,0.5494571667374212
-0.014117844134686497,0.6495634194058885,-0.05988527757448654,-0.09647565865791387,-0.11388737279055919,-0.17303990979689418,-0.18171174885858032,0.5128422301583083
-0.027802060206964106,0.6824298844926825,-0.06880087306795671,-0.09710069373350307,-0.12996259865961593,-0.18444585438333802,-0.20904815710496782,0.5769822762621812
0.00650124399158752,0.6676240126351944,-0.023649403915211684,-0.02143724482862154,-0.05402109717272288,-0.10451240551322502,-0.1109183586397964,0.5365625807617506
-0.006130102392210687,0.6678391257789003,-0.027253885554353534,-0.030576855251087116,-0.05665716882380869,-0.11447886785933495,-0.132763186145679,0.5445061508354206
-0.004421028216175592,0.6849777464903042,-0.052768407851059594,-0.04691412605004769,-0.08683544568694578,-0.13849917013363303,-0.14555242857303344,0.470639451614085
-0.02282699532920275,0.6753203568921112,-0.07687030708892033,-0.12088866780533816,-0.11423723122132762,-0.20353233883749244,-0.22313010304304953,0.5523715771663297
-0.04855383471639766,0.6663318367191625,-0.10929282752202275,-0.14780594621273474,-0.17200872548831153,-0.24724657406757444,-0.264260514607956,0.4929861875138322
-0.007786205670599951,0.6575034681338373,-0.06569043729667808,-0.07394790673757407,-0.08621876859053411,-0.14510414784745806,-0.16861228314366206,0.5460770313960809
-0.002423412990456831,0.6808585491285439,-0.033215641943613004,-0.04469401336373596,-0.06368790409498534,-0.12693581520011382,-0.14495780791602064,0.5504950678522942
-0.0024127498318336927,0.6549628527927117,-0.0367611084163232,-0.06456386362171115,-0.07534216183698376,-0.13607875924679722,-0.16609938027589094,0.5146268460237067
-0.017781500457502188,0.6728030271481813,-0.07045165174210469,-0.10287680688242276,-0.08991269226941177,-0.16637939681426284,-0.21705265673225677,0.5336753438665158
-0.03514761852458565,0.6771014310511962,-0.08863040144702045,-0.12156870395384009,-0.14794448967776344,-0.23393967057253867,-0.26516705953244935,0.5425087685407066
-0.033567281654059124,0.6346661014115681,-0.13607934967824523,-0.14775201746430688,-0.1658512450747817,-0.27314721790776125,-0.3022529651614077,0.44710715070306306
-0.003656287364806126,0.6895971009729376,-0.036126046594850345,-0.0492021018159026,-0.057208211114383005,-0.13795445191578934,-0.14766147095680623,0.5212795319839615
6.449968973972845E-4,0.7083060311803598,-0.032371696505170695,-0.05298069463206891,-0.02607001199757429,-0.11940023291772785,-0.14252532286336048,0.532162093262724
0.017325316501324038,0.6541630857562452,-0.0375172345098662,-0.06281331421043959,-0.05382847112877203,-0.11240086103550731,-0.1555348395643296,0.554097356241004
-0.003967923506973278,0.6549305586807133,-0.08432760763001874,-0.09865223630942808,-0.10604171175506437,-0.16949953956553007,-0.21047675947792968,0.5673491121106902
-0.0357298070309131,0.6834621388027635,-0.08709189306049167,-0.13603479922603642,-0.14712960040597173,-0.21816878327817668,-0.2509061989109157,0.5720221995429529
-0.04511677798578343,0.6617114907116358,-0.11869018349761568,-0.13824263825965047,-0.16986353506590945,-0.23613442179527627,-0.28692692585186386,0.5062190984992084
-0.003772403259980899,0.7485502087683221,-0.03927406034309104,-0.05020414579073067,-0.04332866737592406,-0.12326530806172883,-0.1488515786099038,0.5452053184864285
0.015996134377116736,0.7028717669771741,-0.01689177378946378,-0.05384532553790058,-0.012961136125699883,-0.09963118808761537,-0.14480800403334154,0.5423029220596276
0.0155355342739067,0.7065561598667647,-0.03920404694430678,-0.056607268731272746,-0.03786811001898368,-0.1175281968401236,-0.1371583613664965,0.5634510115337238
-0.013128014503622894,0.7574539075809931,-0.0702757556583249,-0.0957917482696409,-0.06877053994956824,-0.17395554864893237,-0.19186521964941683,0.445012243386777
-0.018545668549418633,0.6419696902620331,-0.09700463046052404,-0.11740614680172551,-0.10359758456796223,-0.20136109351163825,-0.2430351929075812,0.46739584533484135
-0.03571429310006475,0.6623757804725646,-0.11198427216479244,-0.14489152962818572,-0.12777799064563972,-0.25183649281417764,-0.28148256842729735,0.5497848812006818
0.008475863754881954,0.6835564705159183,-0.04899823315964261,-0.05573698682294736,-0.0492571997493051,-0.13426699109685558,-0.13495803359692776,0.5192412764613555
0.007373892117961374,0.687894625722856,-0.044485296831248834,-0.05517168739898107,-0.05385231644408523,-0.13925989629619176,-0.15364701591754854,0.5780635281964647
-0.0013362217150852112,0.7165829537122785,-0.04567875365393391,-0.0626432703365006,-0.05004322947867819,-0.13954046089637565,-0.16265798562724137,0.4890958849184148
-0.021521075282181293,0.7138166327949713,-0.07863626135515751,-0.10272922594984737,-0.06900337954499976,-0.18482234709997256,-0.21486717912025324,0.46253781418835294
-0.027685930722811104,0.67870430931056,-0.08397169272193505,-0.11717348847121327,-0.1347084283700332,-0.22811278406505772,-0.2712893814884891,0.5240569586504878
-0.023375444384702595,0.6806987900842553,-0.06299128509612781,-0.08487685647250402,-0.1362458206241993,-0.2417183177380364,-0.26841540856844603,0.4269779690382113
0.01846696753319468,0.7150059459060276,7.863202546906492E-6,0.0021521452122633903,-0.05550837230176599,-0.08986429061835469,-0.12312045371700751,0.42819849783217595
0.04163777798872857,0.7118098698622093,0.0038597239830125236,-0.008858527852393942,-0.02070748419450281,-0.08689727019435707,-0.0938630006872733,0.4680195364598924
0.01699643156652848,0.7553792118363934,-0.030502639456932292,-0.024180835219140228,-0.02504315965390773,-0.09618957182573956,-0.12334953061980093,0.4714252211660602
0.002450417381586184,0.7317656375146121,-0.05846023766126318,-0.08155184559204084,-0.07630550311432027,-0.16271659657772483,-0.15982850004249438,0.43549639924549494
-0.019725942404142174,0.7031185671980399,-0.06915777073189085,-0.10695115098268096,-0.10498841224883794,-0.18761403825878295,-0.20471797753182686,0.4591806848177035
-0.02169379465153472,0.7152426360224121,-0.08713556858681205,-0.09043277541753326,-0.11373037009184704,-0.17277639979023315,-0.1952894444795634,0.4211120873060007
0.023182361754740647,0.7611907371267476,-0.014844481614377219,0.015287616854880047,-0.017185075504721346,-0.045282761210946876,-0.06356030242129948,0.4695488958154042
0.03083493042713102,0.7042262079374294,0.0029914074047017675,0.012875157772089649,-2.3169944922253548E-4,-0.04716623902930902,-0.044398651624149355,0.4722062961218877
0.0296989562542402,0.7107302235407632,0.006119690548443778,-8.330442180279782E-4,-0.0261369020382689,-0.05835127597021057,-0.07882939795548173,0.4909108571090876
0.005824807012582896,0.7000362967352036,-0.03776239286546214,-0.04108054519609862,-0.07427377421926609,-0.10445760914199786,-0.13266994492992623,0.45341034138527164
-0.01167326907916714,0.7171307942469163,-0.05683146351282657,-0.06270457199723939,-0.12011885752303741,-0.17733463941700106,-0.1757627377772747,0.4207228944067064
-0.017344742169618038,0.7214930310391254,-0.07426448661624195,-0.07673571072951106,-0.1166029481197855,-0.1829664704681293,-0.18572345966360568,0.5000747226405454
0.015704412245201745,0.7158939354131256,0.011506277688231481,0.015412423657281616,-0.01806687650116733,-0.027008837098073998,-0.06286899904237776,0.5339374221519283
0.027193050110328368,0.7556697766192483,0.009031542128786783,0.017500980835894873,-6.668175968021125E-4,-0.030956214166613302,-0.057217224013684544,0.447135837120258
0.026385242987220836,0.6447016455214666,0.02029908665086567,0.002646082822331258,-0.025109249758135534,-0.04354613498711292,-0.07334485558175931,0.5356324914091196
0.024224261865647505,0.6459278633774853,-0.018958235152930516,-0.018512948721343722,-0.044132315557320057,-0.08881347482511087,-0.12304184366790478,0.6039304212964485
-0.010347570900647083,0.6771756971325894,-0.04161047278828645,-0.04771301923967567,-0.09665795140179688,-0.13458956138317374,-0.1556325250171993,0.5453691525274055
-0.026075986976744313,0.6419599636545489,-0.05560091581395625,-0.05654500423430261,-0.08658437438082761,-0.13453435926557694,-0.13617135883930578,0.6301143514797266
0.024641557083976234,0.6425217176958059,0.023176042438322886,0.01901555933544554,0.00959474631025251,-0.04124305734546747,-0.05056601780960291,0.6288275105423496
0.012628523569829573,0.6446486362188439,0.009063133359088057,3.132624190661799E-5,-0.018283510228970942,-0.05811147954015185,-0.056903473964851126,0.5983596514885664
0.007162739450437564,0.6689995631960395,-0.025730811124180613,0.0016098178858973277,-0.03381388826305148,-0.08846446595386767,-0.09560211831200306,0.6017324633885024
-0.005226267382796652,0.6824514189982058,-0.042036575297049766,-0.05693362429323426,-0.0858836542708857,-0.13961890509289113,-0.16014401070942325,0.5445712714883896
-0.027205698086409106,0.6478730038393352,-0.06499707118033478,-0.07049158280441609,-0.12875296918845702,-0.181474648095579,-0.23756221514436857,0.5573729784023465
-0.0283480664898995,0.6200888860477676,-0.031934716973873685,-0.04467626782046361,-0.08941947809247335,-0.13616113432082794,-0.15627952542318777,0.5015019923942581
0.0181721052087808,0.6886875177493751,0.026940615266264525,0.025283117281380347,-0.0025077048451320237,-0.029005965725577114,-0.07083074492204412,0.6109568340761682
0.0326931811112096,0.6563147488468842,0.021708832838411924,0.03089847743942551,-0.01294901704899356,-0.03890406549729675,-0.06475241609537263,0.5573352727176293
0.024292810925445024,0.6276227724479926,-0.008836546243179665,0.0050049431573833784,-0.03978974086823956,-0.07482838104802769,-0.10492749199441254,0.6586541637761393
-0.009752420089012215,0.5880638478189,-0.02905909854339116,-0.02220294296866953,-0.07281416551818538,-0.11497189498393695,-0.13835035516483682,0.5858231558607492
-0.017349458899703508,0.6029616422497142,-0.05408230256368082,-0.057639075317046824,-0.09641691475085784,-0.1680466674647631,-0.1823625134138756,0.5968708556619271
0.0028598650557795807,0.6570919324091183,-0.012753957802882592,-0.02099475013281654,-0.057560908029830146,-0.11673578131997318,-0.1459813556413691,0.6456773709590915
0.0430316814762428,0.6674660409173215,0.05202137980435798,0.06803076351908488,0.018081195387257203,-0.020018702617500547,-0.05027064076562438,0.6133189234473685
0.033511612110750454,0.6496240544899448,0.044662514318029284,0.042416391212025444,0.014965253973787595,-0.020028277127200223,-0.04317271180235571,0.6224305598551102
0.04055587773876868,0.6495624131224887,0.016093251939521016,0.016029241130917204,-0.020333892685733553,-0.07231079624531296,-0.08520945083006087,0.5707156993125027
0.006699616522693957,0.6839561255010005,-0.0022135801217253765,-0.015051694973792286,-0.0581689763367462,-0.11108430379467849,-0.14428475689177558,0.5962318817125848
-0.010752256557262703,0.6191429319476719,-0.019447290737878566,-0.050705300708380224,-0.09444633886334515,-0.16159818860300326,-0.19396368223866609,0.5196108145434226
0.006462535557360738,0.6577907401109354,-0.028268130347348534,-0.017217310642293288,-0.07124532294484473,-0.1292807853409747,-0.1446454500304526,0.5754046234403799
0.0159152149269234,0.6924823049761466,0.04306893913695713,0.04662661108276685,0.001474891798395391,-0.049117027865559056,-0.062239590836398594,0.4804839829850351
0.01969181449888484,0.6997074314803229,0.040976260819859736,0.04336833215826266,-0.01443330514539111,-0.050309461421683396,-0.07795055965778125,0.5515698210675354
0.022131726659597954,0.6787582423499571,0.009066697257787708,0.01513852083100308,-0.0375155183223778,-0.06536363660323184,-0.10860420634952792,0.5274376220437637
0.020124738441401054,0.6789540840149924,-0.006638560222998926,-0.027356742174434876,-0.08165211995674425,-0.12050539487820051,-0.16004740630335854,0.5210395246788144
-0.001873994562043046,0.6840901162091633,-0.027571087253365205,-0.030013260964055547,-0.07863887049511875,-0.1455188282849761,-0.16620364515018252,0.516618395139337
0.04243354193546814,0.6382049296657424,0.05846629483268411,0.07576832649693965,-0.022426297698477916,-0.019499420578959772,-0.03771746339153529,0.5461919580171976
0.054802493390808234,0.6663318174692218,0.05159579885047468,0.06095500651415731,0.022671258723679703,-0.014080415149292794,-0.03642226090304947,0.5556076365081589
0.059677679917241884,0.6821846534519214,0.059496338708440934,0.06686374962482602,0.018259384303409065,-0.025055983856438504,-0.06767872693346126,0.6115867287958772
0.02151478130139351,0.6474127512939498,0.018270666534444195,0.02162557383654029,-0.030819109248501786,-0.08754536436720617,-0.1111936926821658,0.6484921468397489
-0.012555197736996076,0.6136045991619823,-0.004758373714581878,-0.0014795038395555606,-0.0734012054515658,-0.11998629614789119,-0.14729723568081798,0.6040789679953034
0.008760722484603734,0.6474271427503745,0.022992945429975344,0.03576406263024394,-0.05066435509524549,-0.09327894591033749,-0.10785284300131223,0.6371571513656555
0.05003254070012844,0.6656181582029372,0.09566597306006416,0.11899585890499453,0.03481057886499383,0.009691065761626493,0.011510145472592449,0.563690561130322
0.06580876061679793,0.652312003493155,0.09672231603591144,0.12432295757663271,0.05867512666862816,0.0351495398088366,0.032254902826550386,0.5494399995718305
0.04167650064894335,0.6687348648773391,0.08513304424974337,0.0896226647107692,0.03614705040469251,0.015672914245882595,-0.020210052583619395,0.6083628851278189
0.041704074298653505,0.6622854403152075,0.05407937701436173,0.0674596667854716,0.0063626020491500115,-0.027862020529876054,-0.06539195825678802,0.5747523327711797
0.026905347908383094,0.6235619996522683,0.03530869013657717,0.04550040423151211,-0.046299310348628976,-0.08262598193994566,-0.09822782407580015,0.5970009196517896
0.013946197852016765,0.6636759144873783,0.022984360512310877,0.048189815066810235,-0.06297279291177178,-0.0862993425687913,-0.09800599543881851,0.5186987115546483
0.06912356054044773,0.6707284014412355,0.1383360866684863,0.15129360003450792,0.05625086428678116,0.049485451967776505,0.05506964683519243,0.5862307756622969
0.0777671108517849,0.6895004801452529,0.12851268661174234,0.16932531094763714,0.06927723608073882,0.04911285489243983,0.05857512616883742,0.6264300135843023
0.06631343654401695,0.7404691131657042,0.09339003982811868,0.14684894249274785,0.03482042730606875,0.016202371507307623,0.028002972731500486,0.6115966795683375
0.05837721787285012,0.73013802677108,0.0786073750593454,0.1102102654987902,0.0011294667034299451,-0.016725176468570215,-0.028697203229693515,0.5439676570148622
0.0540446564471772,0.7238273166566539,0.058809841149710655,0.08857912933365246,-0.04433456630991122,-0.06477362720186235,-0.06672819448494359,0.5543426625268553
0.03261317420144203,0.6764133786519345,0.04640358563575077,0.06759471412441685,-0.058349295321654664,-0.08826589887879568,-0.10188573646595936,0.5607832649605788
0.07777855313165523,0.7422415886109415,0.12846948117336518,0.15536896695722527,0.03531598309378171,0.02971195231927762,0.023136332940687853,0.6167809402548883
0.07433275898480303,0.7628429064251229,0.13438268552595503,0.156337473718703,0.05705049338376788,0.023294908933825315,0.023379868282077106,0.5322821979013432
0.061793459883618396,0.7074223147291063,0.12486444228933022,0.14024616574847235,0.030022964084489928,-0.014960727561334786,0.013139513728274571,0.5049107213100761
0.049197700667329876,0.6980945427687645,0.06683066158826527,0.10165590381233736,-0.021653336590108565,-0.05493229610390715,-0.0502869001971652,0.5212604730666601
0.020605544313971564,0.7055545789473138,0.03253973888030694,0.06705701741182607,-0.06456199697412365,-0.09160362113282558,-0.1011710547111707,0.5835573548221551
0.03279384227265985,0.6701931454427459,0.0401390132091279,0.08796564049445016,-0.07771440986188996,-0.09983110427031719,-0.09831085493775114,0.5345457779286142
0.08237706515294792,0.7176414263754105,0.1348938948148218,0.18467140807357657,0.045405323854872885,0.033922997626544854,0.04044767377145676,0.5052660940838468
0.07643271570066971,0.7449267427246599,0.12574389845812592,0.18085752947452954,0.03739786733838996,0.046662724164724605,0.030950485628337035,0.5795418132529521
0.0802895224460008,0.735463241298641,0.10968076107429146,0.14979697948877838,0.02892993463236451,0.012749124955598374,0.018157173374898847,0.45917791904280963
0.06260735523854265,0.7001324204297933,0.0852749674442153,0.12461857416976592,0.0024492616375628583,-0.031896227701634104,-0.028640101144250276,0.4975117326713042
0.04401230634335419,0.6910223645445085,0.049206438285319704,0.0834796850816394,-0.04946268152096513,-0.07324847054591685,-0.09622012408313343,0.6326180830083891
0.030684877559719277,0.6903818540835517,0.047450615311430036,0.07917714293737427,-0.06887589344839158,-0.06895085830622583,-0.06917844487382555,0.546398233305972
0.0751981041300311,0.7566121789666634,0.13788934181823473,0.1824839899726633,0.06623129227429207,0.05379835931673978,0.05492484766903963,0.5826017420262417
0.07856791500450187,0.7195976598673509,0.1373831357378485,0.18989585888979155,0.058956590727127965,0.06622469921587736,0.06436483443368585,0.6091134831288418
0.09002907394871883,0.7171026329510292,0.13914869706834676,0.15810933344230726,0.03154084357101367,0.05650228646659076,0.03705379031409864,0.605876342117873
0.07781325583243855,0.7103790623097201,0.10146509098621526,0.12471580487092442,-0.004490154600396563,-0.00534410596680083,0.002412897366000735,0.6606575809983782
0.047015691883667554,0.703637579946108,0.07046223044514852,0.10497280792654909,-0.04719732366633423,-0.049315618318074614,-0.06363597394419562,0.5710115895323578
0.028819681060276794,0.6813487550770158,0.05537826184758001,0.10062530872603712,-0.06987648574667615,-0.06496806195263226,-0.06565689504137119,0.5659326088415247
0.08275874013985085,0.7496200804110924,0.1481658952598171,0.20617132328882068,0.038628370320881726,0.04675014666341688,0.08780578430251511,0.6202169425900249
0.078007591752538,0.7542460548096025,0.1349524544318509,0.1921850026420777,0.04172192789219219,0.05992413454107424,0.0855790361302455,0.6047614017870039
0.08425073978977451,0.7786285489691129,0.13215935736165038,0.1601703818267037,0.03652575261528341,0.02656689105205586,0.05178680522230733,0.6112965538124022
0.06730070412046271,0.733942430676772,0.08251618857935651,0.1171796004410084,0.006497920291262255,-0.011589105914882923,0.0030390796003370423,0.6187845486052256
0.034960243494666324,0.7271984625259695,0.048922620486038605,0.09184329474260733,-0.049086238057068174,-0.026987111007733367,-0.03623360751864787,0.6198202546426971
0.01661291253385242,0.7035353357717101,0.046722518880006635,0.08207296301500881,-0.043253052960485865,-0.05041456363901226,-0.036157926801469585,0.67969234122568
0.058099806153183095,0.7384454601332436,0.09881169293934754,0.14708855544678048,0.03183387321745669,0.057564914978590405,0.06857148989451854,0.6499482119026024
0.06259142918439314,0.7165042076020272,0.09951676829733037,0.14993957750644984,0.018681969347144778,0.0457803159629774,0.033037772577638375,0.6042596180963924
0.04761538353155302,0.7245018428093224,0.09091032655837747,0.1204303241151546,-0.015249901507185781,0.03771581109119924,0.04225539441124114,0.7061371968377294
0.043933396537175554,0.7276288771585511,0.0538158250541654,0.09549846709276051,-0.0077150854456669435,0.004267640998540886,0.0021937008886789796,0.6655773331165964
0.02732629846173474,0.6690623653849148,0.03537420912390467,0.055248531764883375,0.011932327184638119,0.03607398432696193,0.018333227259817134,0.6591786159518602
0.07413180560797081,0.750352560980453,0.10280244106559927,0.1421931220022415,0.10017239131325609,0.14799244924890237,0.1679974696659623,0.6156572463872333
0.0803755224870464,0.7160893958737795,0.11011092516115256,0.14448859613419288,0.11277327248003287,0.14995310164976058,0.1668972161689607,0.7555643422531961
0.06124172668185123,0.724865114345444,0.10127455445721396,0.13293957705079756,0.0870164473830056,0.1346369360843482,0.1547247795322887,0.7171589463445803
0.03813876784286765,0.7056609676723996,0.07020641598467241,0.08624018147805372,0.05129330132237266,0.0744615670273142,0.10893495294559839,0.815159920230208
0.03201928457138589,0.692914412682311,0.02207029821306292,0.05121954263268499,0.011676397794794591,0.04255044371608856,0.04262300920746402,0.7052998815790911
0.01902279630295393,0.685921747352879,0.016279548688501285,0.03944979714270342,-0.005674088428964931,0.00860647252535264,0.03277697280703487,0.6808206745244937
0.06434199646629676,0.7637200864467167,0.1060524799751817,0.1482416936844778,0.08672762237233941,0.15348888499343202,0.1761671527985831,0.6452224299909513
0.07279148014533,0.7082054450640655,0.1053564769538061,0.13978322542414506,0.09121121614086353,0.16513748844040949,0.19121207338010474,0.7618317837128344
0.05746754279483575,0.7201214265986,0.09451059687539372,0.11337279265249821,0.09475240402669312,0.14832605253670259,0.17063395749649574,0.6622464888756805
0.04651061522766989,0.6678027304013248,0.046154646023093625,0.05858571077343125,0.03912366864556279,0.09166483030450089,0.09424559924127478,0.7240902433965295
0.03375421709544015,0.7284333596841541,0.025950476699676695,0.03364614567450397,-0.011973823472818236,0.03889829426806,0.06031022728089097,0.6994363807785937
0.010150815394951133,0.6686703907373516,0.001359682655633194,0.02726926687064776,-0.01848027172870526,0.010788595054092855,0.03284224387950646,0.634457835610318
0.05704689638439864,0.7515080538492016,0.06600389376964706,0.10608641851011616,0.062452841595914924,0.1300068359933848,0.1684199568705043,0.641524526018698
0.06670263046791167,0.7207338200621486,0.05752632578808151,0.10201501970837287,0.07475127661462831,0.16906777626584354,0.17891203332359829,0.6773068078993196
0.059972383363345524,0.7374928565587333,0.06275083176480854,0.10115220450866408,0.08327556970715351,0.13475740474405995,0.15462867987672094,0.7101451135992844
0.017691550408474487,0.6986069234334736,0.017881891150803585,0.057907427976301024,0.042922979772831944,0.09893384620715671,0.11040687024271885,0.7185194206242592
0.008572660564982577,0.6943687606784463,-0.004839744646260683,0.011895180729307222,0.0013447426083149977,0.05461638406550675,0.06499033750538295,0.693436656023816
0.041647371772749374,0.71064670199178,0.038770681854054724,0.07313868159353419,0.07185258524013241,0.13697076413184162,0.16953784420075918,0.714230101150856
0.07472983429303516,0.7539093610137512,0.05906799648141401,0.09510133513978242,0.12036027542172065,0.1931022986293267,0.2091316127356636,0.6488589472191929
0.06314122323022277,0.7251603400245191,0.06779317233814323,0.10904383783198328,0.11989455442694529,0.19482086883082333,0.22525979328192144,0.7628852483488936
0.029600609321825868,0.6899336522403108,0.04100548161164859,0.07024377436461102,0.09181914169077637,0.17578773329839786,0.1874816414794521,0.7232893805009335
0.020177022803019144,0.6985044419451747,0.0044947401455669314,0.02036528157288272,0.061438443438689753,0.10294133458226742,0.1415372525228999,0.7796891660997786
0.006117119813948706,0.6986860407903362,0.002335070056760548,0.0019358411189044585,0.0265184096159926,0.08046560396197447,0.0958547948734437,0.702244386799239
0.029490324440922113,0.6654078454918301,0.06866713705065168,0.10717189498047168,0.11696304465242525,0.2199236882491128,0.24635531198692934,0.7078626147447296
0.06663545831071092,0.7151566763916224,0.09191279407139837,0.12590237892563516,0.12825427837186856,0.2503791433177621,0.279884357325561,0.7193230838409985
0.05207211332874757,0.7017290803781084,0.07276201820223871,0.09105149822773471,0.13394514006666047,0.2216803558328184,0.2688582206274227,0.6999919833374684
0.03688383746181491,0.6831355632063958,0.04929175024570307,0.03954426430541643,0.08219027172781977,0.1920898008960897,0.21445571116374776,0.795572773006608
0.014976280810199388,0.6844060633131301,0.006866048697956581,0.01965399911986282,0.07029620465258922,0.14533002801233139,0.1613285911384051,0.6813714315580168
-0.006545731357120125,0.7272108283368434,0.007861373539964004,0.01911471235005747,0.026383205087891094,0.1215231353797612,0.14443277440459942,0.7339930047185472
0.04704025663640986,0.6917467642443755,0.07722687036845359,0.12304364563364764,0.1336861575879423,0.2490016488984413,0.26706684188191154,0.7551577101197419
0.05261859535847131,0.738877488456807,0.08591163074655912,0.1253747468646112,0.1573634023201732,0.24744538166528485,0.28739534668086447,0.7749288330277602
0.05061066951514303,0.72633831848852,0.0738381746141855,0.09432813068429878,0.14203083160565333,0.2290360821207703,0.2648227303379905,0.7724841525559168
0.03514911352869541,0.7084247480999263,0.028622756864326717,0.06329121650961736,0.08643012392657339,0.17653302274130453,0.2126111670116784,0.7921135612453821
0.023536238283794617,0.6937256588435519,0.004817615854489582,0.02277884761084223,0.04942641178536693,0.11996395969292523,0.143667011196975,0.8119126227356226
0.0042431992785968,0.6794925668724879,-0.004850630983486259,0.012240517848253557,0.011662421460808042,0.07371939329806852,0.0994378786164879,0.763260787615619
0.04126232364551643,0.7033292290320349,0.05819563076982236,0.09678633321899521,0.12356935292738917,0.18978336037432822,0.2258307814580075,0.7298821255212462
0.030908930757769976,0.7191552624925788,0.06527696075554398,0.10453916878402858,0.10126943836482852,0.18446717820301486,0.22552922120397315,0.8050267165276159
0.03815203495693028,0.6999756850910275,0.06779064889124048,0.09520155322885922,0.10298323557653039,0.18462078135032128,0.18089795753795718,0.7392457362808378
0.020471653479157595,0.6801451505745076,0.032307052468438915,0.04707421975504575,0.04071631170507344,0.10822481781547008,0.12932925227954645,0.7716669816374203
-0.007137625528967379,0.6443082374163737,-0.004269153139508176,0.01242904091121387,-3.0884529498012857E-4,0.03945002973537062,0.07705061232243612,0.799021226539778
0.012855297626413355,0.6635195518198022,0.032880374654985195,0.059021312246392926,0.06146052725285605,0.12902087215011382,0.1505329865986229,0.7402812217990207
0.045409284291488626,0.7031988876662733,0.08694243462895072,0.11194959798520746,0.1166800884955875,0.18234411700019726,0.2066130570063038,0.832304005476072
0.04411451958501972,0.6775904825308836,0.07611648737201498,0.09638537126950088,0.11507221943247609,0.14745753030222333,0.17855169229929016,0.7455494734809066
0.03626376842037114,0.7073766853384487,0.04344731502786065,0.06608370665676243,0.07205606899181097,0.12130075256440077,0.13763569666490486,0.8080650458157943
0.02464719065834537,0.6863774234829663,0.014017463798419259,0.04085445433455433,0.032512100429994285,0.04765526669636794,0.04902926751487894,0.7890365643687889
0.00817202472159436,0.6750357356595482,-0.0026450801580641457,-0.002084330851212088,-0.03640192178192344,-0.003494763511080994,-0.007828199816902479,0.7401023312815848
0.01843805583193376,0.7141117476863623,0.04221477755997956,0.07499824150073181,0.06648977138325103,0.09440053335253562,0.0958003796983181,0.7517619880675903
0.05448004974231917,0.7157977438336229,0.08680032741356276,0.1206124375114291,0.08945666791544149,0.14595937752314658,0.1505030499872308,0.7661519667784787
0.07009554432288345,0.717790236518385,0.09319123983135633,0.10829806241478347,0.09209730200952888,0.10747441859565843,0.12022850819125341,0.7514808357522137
0.04964614361018157,0.7129455318321788,0.05361443311149017,0.06918277498698008,0.055934157308629724,0.07809800394804803,0.07639730226748684,0.777942189038215
0.031137100685659034,0.6653982821841524,0.017713778809662663,0.039169686115430216,-0.01020519471961387,0.011053021816289844,0.018219820533795464,0.764285292964279
0.0016386064412003544,0.6556202878485529,-0.015261289808671613,-0.0043286248293311754,-0.0449726539371774,-0.06828478377862437,-0.058945546797031956,0.7252304046260517
0.010526347698920743,0.6858930352192538,0.04113947610754232,0.05370911910649887,0.029588017283131856,0.027710780110181566,0.03707744022157706,0.7755216879179292
0.059422537786718195,0.7778078205558708,0.08125018568842393,0.11429856802287221,0.0810337066761204,0.0823501211089912,0.08447942299620764,0.7653341001215878
0.06259398573956743,0.721480432884447,0.08356959691860906,0.10132913430944422,0.07337560207405387,0.061365368920672306,0.08535991962075785,0.7800391581239906
0.03242726973940293,0.7332773842834353,0.031019253644389996,0.070857273505134,0.021368418237447773,0.03679684262883353,0.03737730945228339,0.8440585323050767
0.016619402791296648,0.6962125097230676,0.003612168010029873,0.03669040683340926,-0.026440654357958792,-0.026443919991355886,-0.03994399895594065,0.8076539412647161
-0.012230144967454382,0.6811143620437039,-0.02336070433910709,-0.0011810355483759993,-0.06467369469693841,-0.0904109071109557,-0.08284493940931502,0.8183632645954773
-0.003969341164895916,0.6934858048235919,-0.0072655472357519724,0.011146222398169278,-0.03301901634945082,-0.05091424396923155,-0.06281636638824496,0.8258649145718784
0.03683059379939963,0.7018386595716906,0.052659071844214124,0.06108485527483954,0.0381417385611875,0.019665965949069664,0.019214423516345825,0.8091255443725536
0.028745369238219264,0.7517361743050257,0.0234132675472524,0.05571560779959269,0.046313196431439885,0.03651719581575261,0.009127287802745788,0.800691271077708
0.015592788807427475,0.7699095152364704,0.00720774775395817,0.02968352655736519,0.010555722322230307,-0.008065126146226438,-0.018224298793560814,0.8239719787103854
-5.547499257215427E-4,0.7220313427372811,-0.02917111188397447,-0.026021354449659796,-0.03995946721744825,-0.05362059571140556,-0.07638267772706231,0.8050386071421368
-0.015138395907393676,0.7447865735842265,-0.05148869343194645,-0.06179352132553392,-0.057658670477878635,-0.10565628632614088,-0.11026690515308164,0.7656889099406404
0.019091213459605717,0.6778015938858568,0.007688125388192121,0.02404351909639766,0.03178321105753694,0.0070803402723479,0.01104023681776614,0.8029165288798359
0.02676588671596592,0.7319580116020028,0.021242014155203385,0.03192829086602611,0.03865027174551627,0.030439813108638015,0.017519991178815787,0.7663870904742193
0.03256787339481781,0.7136510532327847,0.016861113889724756,0.01915670388665659,0.03978698655934016,0.018050084366488525,0.011198427390266715,0.7646001265682872
0.008573973070343016,0.664632752363672,-0.03121832969927337,-0.03907020648806408,0.012051195134546076,-0.032385057940734534,-0.05453075285444827,0.8048066329029931
-0.01652984120233643,0.6796208240705905,-0.048203370199055066,-0.07645033238477526,-0.031545471964133334,-0.08644610663006737,-0.1007939417070525,0.7997377878963099
-0.03347186897171759,0.680323762307669,-0.09308359326765,-0.09976492240698369,-0.08406671777400916,-0.12394326421183702,-0.14552636132629013,0.7618868626871345
0.023319498984704253,0.7056261725207645,-0.01877777713560829,-0.008746020628572312,0.04865280194537836,0.014575562638166405,0.004730154419077864,0.791471876150575
0.041874569901715515,0.7235414694722574,0.010971577105812121,8.059145475036023E-4,0.0643308461685306,0.03821418037406204,0.015413912698717062,0.8158324774446986
0.03942636113124319,0.7301580298627446,-0.015237521066256974,-0.0056892791312486484,0.05789705124045512,0.015792187771723237,0.002421555502631738,0.8488557412805955
0.014748336191768501,0.7699297080179743,-0.05675846883182401,-0.057303303292690025,0.008992421630161899,-0.03746948489211697,-0.052485916899260764,0.8694454402250047
0.010566841222884593,0.7581080536214556,-0.08086554702297603,-0.10745816395967484,-0.02863371770882786,-0.05549911385693563,-0.12465537958103849,0.8218258587283954
-0.02024672920147291,0.7070400232070729,-0.11821821764332514,-0.13999641969038504,-0.08968581032193865,-0.12472308715836766,-0.16765261906942555,0.7675246000917327
0.006142524808674816,0.7192722943442758,-0.06094481219809387,-0.06424448106756687,0.0055720383105713435,-0.029855674455603467,-0.05661806218655759,0.8696517732486425
0.012821574909012807,0.813734726495639,-0.03187249654945805,-0.03612609123576865,0.05831614226211307,0.020857910601981212,0.005707031075480721,0.8096159548964929
0.029640291590914136,0.8119715113250107,-0.021026578784851098,-0.046321218437749105,0.05236285161847595,0.0246583221491178,0.003700395260566087,0.8854727260953468
0.012195745324690529,0.7470547875045117,-0.056600290474204056,-0.08190895774486126,-0.0020189788211353926,-0.02698066105498271,-0.06814555094115411,0.8555646530706507
0.004861518176631223,0.7411361929903588,-0.08049448136386124,-0.1138087794895574,-0.03177774398718396,-0.0843316392576543,-0.10561908189209912,0.7772357414853956
-0.013299469864214956,0.7184792394466238,-0.11473716131079296,-0.14162460562476234,-0.06273579298533895,-0.1142897818071672,-0.15048729326299318,0.7556161276742562
-0.005544572886670683,0.735547116327439,-0.0448124306915019,-0.05925160319780377,-0.025506113900501413,-0.05937928373573601,-0.10069894750121834,0.775562292809915
0.026771556022615058,0.7849744995260279,-0.013529122591410583,-0.02173080133468638,0.05586291592483969,0.013674616710594042,-0.008120058529916346,0.7960073609949733
0.036754741001304755,0.7633840813317583,-0.03835417148980612,-0.053090293119611345,0.0306983636915999,0.002468983212007471,-0.012053480154436073,0.7927544121549176
0.01593511592501987,0.7456360272580066,-0.041750254465127964,-0.07949348354813762,0.013276162456710318,-0.029911960312268244,-0.06329271736524762,0.7692604051409117
-0.010737750409263733,0.7925014870932549,-0.09005463132826926,-0.12701236475876782,-0.035050720419595845,-0.08482368960252888,-0.1028743968982196,0.9166871339500964
-0.029539786291645435,0.8092683929668938,-0.11203378955859294,-0.15617852567338875,-0.06590720381832056,-0.12035001753814603,-0.1526303331579351,0.9015053151439357
-0.016479238958360343,0.7412125942,-0.101013790842786,-0.13126309845483106,-0.020699351775331346,-0.09691565679005011,-0.10161901425688592,0.9001920796793424
0.009116714902568237,0.8117504051377172,-0.038755930313936246,-0.06288343280368303,0.04540257782487854,0.018301671548463426,9.346896938388808E-4,0.9193504174996736
0.02886018603879347,0.7974717811094272,-0.01967533288765054,-0.03405312138233519,0.09624225371575852,0.04383651874141782,0.021197181717462155,0.9302479221578186
0.02135660208862527,0.7651464474175775,-0.0412691565564624,-0.06797364703915845,0.07524861420726288,0.044266886172899624,0.03461803400202306,0.8668734289604801
0.016405988050537605,0.797522170341113,-0.056074364655191146,-0.10884823677750022,0.02551123616254214,0.006532831304034624,-0.023219889777570404,0.9493010295369486
-0.011915195017251004,0.7503338859451182,-0.09815645248104574,-0.14533374632752405,-0.0011537690013378953,-0.05945700048634551,-0.081161339844597,0.953863109306242
-0.00425980009390014,0.8087500856858827,-0.09027227550540814,-0.13831271985381272,0.01418214773396387,-0.04329122801741354,-0.05817610539124809,0.9343340827465227
0.02866334090349283,0.8021272711418053,-0.03194533385468477,-0.06083103352168501,0.06453263930442227,0.07176761281465124,0.02850621389582084,0.9404943002551854
0.028481151677131288,0.7819982309344228,-0.03477413431923497,-0.052024500398094205,0.05544603813634673,0.06960884106833248,0.035350000304622764,0.9339978966800951
0.014770633498948279,0.8291431894775941,-0.04367365219211635,-0.07205013801563408,0.04413825130361918,0.02714870157385861,-0.00990216224146725,0.9710416887869622
-0.0023119305566809793,0.806182124307098,-0.08096217964019857,-0.10951473833658755,-0.007785720456234343,-0.014524627699013092,-0.05053996412068562,0.9584879271645468
-0.017851109040071138,0.7938963053304037,-0.08976931125498301,-0.13981691110870764,-0.027327445615966832,-0.04065550364711065,-0.07322393463179708,0.9100871731329527
0.012243221331250654,0.8400667623611618,-0.03663817115375602,-0.05173739326497357,0.06842801947926254,0.04884929431540046,0.028939490821991015,0.881995267244671
0.015889456797582982,0.8349423789819912,-0.028831540380109946,-0.0355456156465226,0.039400315112662045,0.0746286341590976,0.02615658518506494,0.9415597554118048
0.02798340220783027,0.8615374209441037,-0.02834207454495147,-0.057802443167424264,0.06268855471444333,0.03614717546325186,0.033285594799274544,0.9847568473713052
-0.008010449851902147,0.8706584022389159,-0.06574100941791755,-0.0790499745565734,0.0024896206045176166,-0.00890913171781448,-0.029204294737362243,0.9263804995845115
-0.030235462975645434,0.8465297346881665,-0.09898090455514155,-0.10185998876545937,-0.03159397400182886,-0.052199200556372415,-0.07561207854282438,0.9588720795498767
0.029707925156870665,0.8372656464519117,-0.016949939690008083,-0.027357865236567826,0.03802976333198595,0.044127526485236955,0.029112028258683694,0.9097708822784271
0.041213077882332666,0.8983627131178291,-0.005226965802261492,0.01153115931789407,0.057453912778173105,0.08164079456800302,0.0568820589054828,0.9445563001010779
0.040831695294696914,0.8914074640648733,0.008965493636790276,9.800461255165638E-4,0.06149962609309124,0.06180250558398933,0.04505260575982989,1.0334267282291263
0.02304526301633879,0.8233306092304431,-0.022704742572763677,-0.03917830420066241,0.014435594491742068,0.03085832659558748,0.017700015002684436,1.0028035874129784
0.0038660152284657676,0.8932116316159685,-0.05161021915054352,-0.06313625350360433,-0.014054134801625144,-0.021107042537877905,-0.05436132915640646,0.9498501343970127
-0.008577176661785436,0.8781240290002749,-0.03895522431446296,-0.039094551560733826,-0.011428222638487416,-0.03861971853149534,-0.06367626900124598,0.8874823354717422
0.04938702796759594,0.8827171866462359,0.06348924296102869,0.05489343456310213,0.07922487763551492,0.09752889869534494,0.07614165354760012,0.917711124204269
0.06766473466218195,0.924745785223677,0.07116191966019769,0.08783535901907746,0.07447617578078193,0.07281356789282904,0.07768917772629616,0.883801308494793
0.043670934702051994,0.9007595398803474,0.0419605985972424,0.06168660228892326,0.08871310213211998,0.058188607076827686,0.05063883953378912,0.9333431557744398
0.029560738446301676,0.9257118772446772,0.03459607731446554,0.035039784582026806,0.019370647095246787,0.0018212531583935185,-0.005712395344464725,0.9626020635307682
0.023878871894702156,0.8985227850931619,-0.011313318530741698,-4.506974466553126E-4,0.0027786999026610314,-0.03624079411642802,-0.06168115743268017,0.9492544111665004
0.025183401268996125,0.8934427888024169,0.056341889479389604,0.0523122079747304,0.06095198260746415,0.03280235704841174,0.02590651276217063,0.9360975370827835
0.05729027267396317,0.9067412587939848,0.061057256712911984,0.06180112172464113,0.07698265709506802,0.060024545146841836,0.061758756241889,0.9878165125791537
0.05511588411218028,0.90708686756843,0.045181063479727335,0.05914031406536476,0.08280381636543985,0.0551140074014484,0.060574384931360595,0.9749718750164433
0.04256324945333497,0.9223659388411659,0.023913339992487282,0.012225041485299149,0.05023831905756417,0.006066241314620403,-0.012854777609617379,0.9568110377754102
0.02268838217462934,0.8952292392993622,-0.008552675964459697,-0.02158816920478129,-0.02562348938739684,-0.043953428375979785,-0.07897960370001894,1.0284331229855006
0.008292816077262044,0.8944013619733147,-0.020108173618558,-0.0329634996076103,0.00299898433518974,-0.04948780201857844,-0.06900636580179187,1.0021903114993669
0.057798166472427547,0.9497974940198588,0.061737545058803654,0.042969373556750144,0.06741813901686212,0.07195210378210447,0.06465948949353106,0.9913550662578715
0.06203262363764795,0.9170980956982044,0.06019245614032547,0.05926312285137057,0.09696214758418296,0.09319087400573181,0.06617729176465173,0.9925073150188455
0.052072229364423954,0.9566211456293575,0.044759369185804705,0.03637064444095067,0.08531770147763464,0.05880422442152588,0.046008558523315514,0.9915693954000563
0.02917710803006102,0.9477011461265025,0.0021873326222807093,0.01821531666968922,0.05673870882745862,0.019935417943103394,-0.027132920991413585,0.97560561333695
0.043606427785845434,0.9521859722593785,-0.014846364011715671,-0.026004543342974935,0.005176338245498802,-0.032038594846869516,-0.05021033356639628,1.0169178799302232
0.024778807864548384,0.9177483884088479,0.005189115160670942,-0.020682002968087185,0.023595270740515456,0.003755808240018286,-0.047199673108689603,1.0077097846037186
0.07031957781723817,0.9559090377684301,0.06212165156578982,0.06571170619309089,0.12554333598258838,0.11259423239598411,0.09376763470752968,1.021963854443198
0.07214003598679125,1.035478355864919,0.04799761157463367,0.07268045752992264,0.1308222265383159,0.11945135910841874,0.11265837301419622,1.069184199377635
0.06068934005315984,0.9940891942100057,0.05015267236215668,0.04524655219089087,0.1138036051353029,0.07445922869333207,0.04645177011411352,0.9849507564499344
0.05853346552485183,0.9447734856038246,0.020919123570379217,0.013082714707739805,0.054593122435718684,0.02098064404082603,0.010731148308456664,1.0094917231413758
0.032519706047905265,0.9269326339121736,-6.037840275154647E-4,-0.028032004945807494,0.04258587097290582,-0.012808486629765853,-0.04514434234825693,1.0575869122735844
0.018428042791591326,0.9225766523860418,-0.0365134839917573,-0.04687056630938851,-0.011696647104183703,-0.05938404628442811,-0.09830649312642284,1.0058480989838896
0.06085860302464978,0.9807129266697839,0.0548433681830336,0.043415320680331146,0.10989990551003817,0.07269124036982018,0.028373877001606842,1.042021038776286
0.06765444645928727,1.0097105547465326,0.07013639844541354,0.07216138318576193,0.08467981461728279,0.08969353742246343,0.07011987940724726,1.0347668763681037
0.06508170801183936,1.0200357361018288,0.06383993274234219,0.062222349568528144,0.10791324310541653,0.0664148801059593,0.06017046747527911,1.0881241712199612
0.04681575466045373,0.9429408972414091,0.006974893301175182,0.012338901189580363,0.08024465184103137,0.017594030288275157,-0.002640681088216195,0.9978317012936692
0.03476795319327786,0.9827012534829214,-0.01029740552798283,-0.03635153094229787,0.027786617263767337,-0.013907262407867582,-0.05487313815470467,1.0275761704527693
0.005873081096226774,1.019829175352644,-0.04774101191390437,-0.06978509139773513,-0.025228538251367994,-0.08425834322418034,-0.10225753227847041,1.052907738400701
0.03444837453659223,0.9815898568450129,-0.0098515371827329,-0.016573410339160866,0.06324276684391654,0.008685664051833937,-0.009480134083330252,1.0558654479933047
0.049679398864685004,1.0045770993245295,-0.00497398077106956,-0.011717285849623454,0.04635900910988093,0.03549082898558732,0.011814718393149532,1.1187486134980167
0.035509583630167076,0.9884965561247193,0.009082121609076158,-0.012194479923928483,0.0566088664217918,0.04059443022735007,-9.322960529827048E-4,1.0903722758458188
0.013844041514714538,0.9758573808634843,-0.019389729414640726,-0.058624088487874905,0.014774151192023561,-0.021102493920298625,-0.07535997541935209,1.04972761181365
-0.004707027815717913,1.0011879634215828,-0.0703015222535765,-0.09702176739790208,-0.042481831451211025,-0.07956913546821917,-0.12491095771096285,1.1056620121731933
-0.007819335936416823,0.9923600165707548,-0.06837172395337729,-0.11229624818845742,-0.04724103373316358,-0.09416267241813298,-0.13144584147539584,1.0553553535909144
0.03372972719794322,0.9584262744164012,-0.023561757698589713,-0.02022628217309293,0.064278145829008,0.029387580727569914,-0.008123344402276248,1.0583574501788002
0.038278797221926224,0.9794244883880476,0.01868477746379085,-0.008648835697113411,0.07307616059743341,0.0460556793883766,0.009654233341105163,0.9951892999030745
0.03770094345628697,0.9645960699482903,-0.006774993123779097,-0.015194253018158103,0.06232637970532555,0.020648204947548352,0.005316591935255717,1.1407718584947926
0.025111161707203025,1.005839039882577,-0.04229179229417679,-0.05995796204683074,0.0270179661657788,-0.01358827932156479,-0.04841471631704819,1.0987424640313292
0.006053733639653153,0.9390258266649754,-0.05346090575142301,-0.08496209897995634,0.002470593983164538,-0.0686192968119352,-0.09569970837627613,1.138922813963128
-0.008871399176217888,0.9443085986735674,-0.05867565888270064,-0.09244466086481073,-0.034632705268162256,-0.06796697243853742,-0.0939093414756015,1.101320742151465
0.03868053061640243,0.9962616428754626,0.010946650434947382,-0.008878389123367527,0.0760671811150455,0.04477753417822028,0.013656312143860204,1.152624433295991
0.05787989464334452,1.021166722777696,0.010030040708526705,-0.0026663805884213606,0.08498608662817826,0.05407630232215592,0.03565800625565276,1.1897947773871478
0.03879002013809255,1.0066644391282884,0.022630516136352263,-0.0054508448813236745,0.08925106873550333,0.06033431754143535,0.014605027724934397,1.1670041854331552
0.038476682479385224,1.02055418353591,-0.017954395599642882,-0.047201745377019405,0.04002299528543802,-0.006591789239898843,-0.051363711752360194,1.1978749420815697
0.02109135725757526,0.974286648661655,-0.045568390236606575,-0.07608580403380213,-0.03054669906144637,-0.07372065206454703,-0.11802662759525631,1.1753288428454325
-0.011639438052698672,1.0064908514113287,-0.056195499055252555,-0.0778775969505373,-0.03773292997159823,-0.08880811749593612,-0.08971522074279692,1.1593794599336105
0.03306459138713516,1.0267292887442663,0.00890844650295644,0.005270808752648013,0.04392474421947855,0.014431943400899257,0.00568150128011854,1.1841569202618996
0.02719708145684919,1.0391766233717108,0.014438450267362207,-0.008981760667920712,0.03828455143803222,0.025926079513660997,0.018708413595659473,1.1806256398291992
0.03506852319217565,1.1039620724998214,0.005285243822933056,-0.014315906470853033,0.02841832033767974,-0.0011024057951352795,-0.011302307990847775,1.1809799938689531
0.016215052118965078,1.0069573850635476,-0.027190043498631973,-0.05511850307752351,-0.01678006840784995,-0.054635690591039544,-0.06804811858755527,1.1089794420252663
0.007505651818950842,1.009450930469597,-0.04746580558877734,-0.08313866293114827,-0.03371837012826181,-0.06851306281333176,-0.11631737101508219,1.1578958360647227
0.013997990294897246,1.0118500736510485,0.004039666541863898,-0.020768554865878718,0.03948360210372095,0.011476080544900664,-0.011113946807106577,1.1395705066397745
0.048874484723911475,1.0418932713943145,0.005744894098694651,-0.012112578870362965,0.05717223047414073,0.018495303354968455,-0.015662364516865448,1.1475415841875158
0.029150719440601595,1.0558917407226556,2.4114182944642588E-4,-0.018145009219177013,0.008363083220438418,-0.010078313477067169,-0.03227756641333803,1.2095244331501054
0.0012123315300972672,1.0241178814885812,-0.04198721817832767,-0.05285546492321342,-0.017312685432977495,-0.06274971126353562,-0.08568697859579193,1.1607305129006926
-0.0256774018999865,1.034910852517029,-0.05044316523350613,-0.08251701321908116,-0.053072316947655684,-0.1114342540247803,-0.12561433269686864,1.145086990972625
0.025877718847605254,1.0166705711415198,-0.0041551377527886055,-0.01904136297277258,0.012393525359812396,-0.008139089590360539,-0.038105812203322334,1.182670941259564
0.04919640883804364,1.0458436663051578,0.03508219513923653,0.029909631426768633,0.05812776530523712,0.029504596290285907,0.014664845669815865,1.1972409035123288
0.04165155874411411,1.0611747243632232,0.04016576603934127,0.03322990374551651,0.07361374822416004,0.029948487795504075,0.013013982177939707,1.239728734914077
0.04319795195931395,1.06216924157647,0.013357214663112859,-0.003335020793097546,0.026510646214177366,-0.005956878646773482,-0.048834017872339826,1.2292115182966736
0.020341965556464937,1.0210405332075263,9.205448904570568E-4,-0.02107555201331412,-0.015638246258423253,-0.045808372332199004,-0.062368652645948264,1.1150444038340162
0.002091102666380901,1.0285327979358458,0.005373910203958212,-0.011033213537467963,-0.028901795304394903,-0.03213365222689977,-0.06998434888718193,1.2225959493396328
0.05645748678399807,1.1048783227383894,0.07423313589345872,0.06513617959816265,0.0977598265351673,0.05473045796443131,0.0641051565545416,1.2168506132077952
0.06537675447021812,1.0864338470306234,0.07961970552974634,0.0910946543872986,0.06726552320925434,0.06128471334118772,0.055132989710296,1.205319856466634
0.06303363953971365,1.092557045051354,0.07171372840350979,0.07509790626789954,0.06885118735212997,0.05514365263895054,0.03876313223904064,1.2451166506164342
0.057801697615130106,1.0428739121371073,0.04575232913432713,0.04699025241536663,0.025347391882608424,0.024846067893752776,-0.01622059464958008,1.2657126604660947
0.03940658940627068,1.0771478852295968,0.015775993812640898,0.01618744135926922,-0.029753831476895278,-0.03871804235240297,-0.04489946434975022,1.230712505326636
0.04042352853670966,1.0533237833227498,0.026484368551215814,0.012662503416705257,-0.01819343629370347,-0.06163755483006091,-0.07724719577019383,1.2624794966273
0.07749291094502013,1.0614907277013044,0.09597549250042813,0.11189529163858901,0.06777431171930381,0.06669425419861721,0.04957287267509519,1.1837897661319756
0.09187036870120285,1.105214966188417,0.11477427323090418,0.12127433960234779,0.07867030084609626,0.06419975720651164,0.059976199606711564,1.260692260580179
0.08208080680948135,1.1160804981809862,0.09692044614285841,0.1116508245158364,0.05509354579737707,0.03425292460975741,0.049143134193437195,1.2439555504573794
0.070258830143182,1.0857705361764272,0.0725173075161747,0.0641602365774464,0.0077899857225738,-0.010247474958488155,-0.025371681410106352,1.2772265817872377
0.04488057835397903,1.1058893619022343,0.04379949897064071,0.050515475090858665,-0.0290315528300678,-0.04087980638415749,-0.05794830830076244,1.206803377297745
0.024445452868259363,1.0501674154048197,0.005439481042600567,0.018850431254329142,-0.05597410627892979,-0.09696948598134517,-0.11834259733331935,1.2496312426572525
0.051357701421982954,1.0964422826915527,0.07040129029858302,0.09837557566346238,0.024898020191197155,0.017140837747564683,-0.016049620609118857,1.256085040756458
0.08343384205767439,1.1069252754393633,0.11301299656545534,0.12002118051057652,0.06499604261159253,0.03796006739590269,0.0025006557562477316,1.3153437096599851
0.0855836320051128,1.1255999062426258,0.08721093405077116,0.11877010145170652,0.06570969113419453,0.03410375040357767,0.006936983638950433,1.3386635768205177
0.07843526117898199,1.14255660748035,0.07908389530276431,0.0890662116014507,0.018919754304818764,-0.02550878275091936,-0.03375986774978222,1.262882444971167
0.0521594638492419,1.1395592969636839,0.03825572324897387,0.047117959386393196,-0.019305718525050284,-0.05818162235474863,-0.10131069861135403,1.2170487906726664
0.03455088564396054,1.0826688020250501,0.02546929706045103,0.019410352903628334,-0.0788764448453574,-0.11368022043316296,-0.13729343577399944,1.2814069335309597
0.0424406000431866,1.1554008205956028,0.038977871266715,0.06630848947325686,-0.02197953831218393,-0.044479733128733295,-0.0721979114427001,1.224766112267785
0.0675851329745193,1.1617572394754798,0.08544553615391674,0.1120580241341779,0.030143287356777092,0.011525092562975127,-0.009063252990081472,1.2845549625884052
0.08820398999539267,1.1494869090439743,0.081652146314606,0.1034614292688885,0.03183262249627896,0.006294660327987733,-0.008569883043053178,1.258446027071348
0.06689390789063049,1.1445704298670438,0.07085443660484964,0.08550046595513705,0.02367859443269848,-0.022770904306563353,-0.05318801010442357,1.2635802394490445
0.04783293048441421,1.071404936171795,0.04697189251859131,0.04455633704309762,-0.011799321064347675,-0.06752443332757622,-0.0934396240162017,1.1859117844865148
0.05085864791474971,1.1104615768147958,0.02421341011281109,0.03323472132181229,-0.04458873323716814,-0.08757667389445106,-0.1305591884632333,1.2267609350761837
0.07162182205637363,1.1077979348461835,0.07383126710226369,0.1060061584131745,0.037530218722917674,-0.005452277245145163,-0.00907888222783558,1.3230969249667672
0.08126105782325768,1.1420766551403185,0.08434189715007354,0.10217181646393474,0.0518600086506097,0.0020892337517608014,-0.0065718670112314805,1.2924221725493483
0.06626211561217035,1.1340367454320035,0.0675101621784553,0.08505081841556807,0.010965130085020317,-0.026648920822309404,-0.030971335240577567,1.308775669007495
0.0490904404620411,1.105777765922891,0.04216316266936077,0.05461706956082754,-0.013764724209512661,-0.06187002570813551,-0.07966879392349088,1.2740555268561677
0.026018247117476568,1.1616962257441694,0.008485180949487647,0.017168983749491416,-0.037837217696397994,-0.10863649597881106,-0.13233934494268348,1.2967934993181567
0.037081448396831015,1.1181852856954526,0.02597885417064928,0.044527756956754434,-0.027186685317167475,-0.07954417420707051,-0.11496893751847145,1.279662691478272
0.07102075246539141,1.108458610199943,0.08198655161970488,0.12897590414896418,0.05995413177973475,0.03533339731412253,-0.016006594737081097,1.2816232898377373
0.08155900510969204,1.1667687592517484,0.08764059689365616,0.12529130641116054,0.09042735394681765,0.025622267939117097,-0.010485283654030144,1.346212258038777
0.0711888093544215,1.1599584469364494,0.0800633830207916,0.09971316896493915,0.023601582619313596,-0.0024504733969157363,-0.03748749148536767,1.339856359986471
0.05726791632120448,1.1584674148205585,0.03751661492642438,0.04914264494342935,0.006416838402649924,-0.04914191230360137,-0.08133257010902982,1.288458712262546
0.04948052983889817,1.125202046943245,0.02971573352653785,0.024300438585162946,-0.03919767734185284,-0.09249776988316578,-0.1288499016651444,1.2928266499113787
0.03409540185439805,1.1567550341870823,0.01772734589655779,0.02226933867806244,-0.029827850956888315,-0.09007093373299334,-0.13280567179520425,1.306055123302893
0.075932869867053,1.1618666602948762,0.09055107355566248,0.12597936654296918,0.076929841965853,0.027612997739246175,0.006993197969647473,1.352711898866779
0.06993112360981113,1.2017483657054537,0.08814800428770463,0.11209221577553324,0.08309003457103359,0.041219842077231596,0.020332269976610837,1.275038592661896
0.0710906210843467,1.1325379590599147,0.06810932851408316,0.10364949756459181,0.07668749356823772,0.034827863196802845,0.004094715346753824,1.285783612553059
0.051320185431576466,1.1784095938827022,0.02937807476695688,0.04669203264939242,0.026217805278533752,-0.026506705168857326,-0.041523539704672326,1.2941908639232362
0.050604205900506,1.1916760053191249,0.019147355469656045,0.020491996105057614,-0.016914227538974286,-0.07354154733055263,-0.0859993565829956,1.3036028283170606
0.03344016879136275,1.1276558464901165,-0.013890125995451589,-0.018159895900149572,-0.04869432048508759,-0.1000736149270479,-0.15212589904437018,1.346005353027735
0.06665839476093298,1.11171355580304,0.04390254628328115,0.0817707966251974,0.04810258819692523,0.015010128055057286,-0.0017247971810105188,1.3204705368214067
0.07893573957263456,1.1103263360655493,0.09629992566131566,0.11656187938255666,0.07449864875317641,0.06401807362439589,0.03489717463762341,1.2634009330327873
0.0798493169912992,1.124111951073985,0.09282221925039558,0.11553474765846307,0.07899066416434405,0.05395256340453595,0.0144553700567348,1.3067822775927702
0.06547649586980028,1.1198433115818887,0.0635213820720719,0.07864172783608106,0.06087980958593323,0.007430858768102171,-0.008103279811566659,1.385493348635086
0.05299161471865338,1.100830492430837,0.03734828476101464,0.03759685857901426,0.009661747233267827,-0.025549977874821442,-0.05563649242676592,1.470776160332024
0.0400866461631914,1.0954213931964545,0.0017618333719772133,0.010351656110546755,-0.015692802760967454,-0.06679109363785607,-0.09293447959157664,1.5119938769682737
0.059114815235654185,1.0989882734539964,0.06782300977714836,0.09191733956713283,0.07834911885328523,0.0417852523741298,0.0338220267085674,1.4385858146386628
0.057982006425358126,1.137059095047236,0.062062160977902826,0.08688027846899972,0.052911190530247766,0.014417606912400257,0.02004367112392063,1.453995769459616
0.05570972741817672,1.1401201410480697,0.06956412855162333,0.08391908080469623,0.0556097722193357,0.013702024634967072,0.00850972132768533,1.5035920739861388
0.04922163368720288,1.1883603150344746,0.024309924842153677,0.047426164945962954,0.0189183903838218,-0.04118076951367775,-0.057695447920686864,1.4448915626899748
0.035195567574068685,1.139184453176033,0.003650481039527274,0.007153812230254904,-0.029816899940315274,-0.08904716796202569,-0.10131252069781674,1.427851050465343
0.027961480049369495,1.145594897202379,0.007246451879039788,0.00933196239899344,-0.022146411272444277,-0.08737190112035798,-0.10799223168461759,1.3287399409349532
0.06469850643502147,1.1561386086301715,0.07545011499080681,0.10276051276387793,0.10027863004732711,0.027170806603042368,0.043461372254231974,1.4302723736567535
0.08948020946485936,1.2043645795110083,0.08188958431234801,0.11620409162516257,0.0939667914107802,0.07673616771043322,0.034821117356401844,1.3989401462082218
0.08850046368766731,1.2185414800398704,0.09607946242487427,0.11259061564427651,0.0721378300490768,0.06254219280671783,0.04789129201225776,1.3971910920270532
0.052255507239485605,1.1255560875829311,0.051309414026671524,0.07463196183630226,0.04240881100334407,0.011006276757308791,-0.012972413153185314,1.369417023665644
0.05283266061304935,1.1986164198281284,0.040698705003051845,0.04145541868286768,-0.018384932787158876,-0.049520742500619955,-0.055499303225075194,1.3035314408576335
0.02284503916400135,1.1546666136500061,0.024322695670367926,0.017480646992444695,-0.04655881102156432,-0.06933894090291517,-0.08893596726505837,1.3952390305299744
0.0916988277882492,1.1747417078230131,0.10180440092696103,0.13566211605295403,0.08362558898420437,0.06845767981744262,0.062072977417855356,1.4174944235475955
0.0874724203650451,1.2387413060163819,0.10356942361181064,0.14783714920022756,0.09629086678747721,0.08661824950232834,0.05039486962359118,1.4451412512498596
0.09963338150842826,1.227941727003723,0.08295044582765153,0.13004529623808495,0.0985079615464536,0.07238201377133484,0.04216070370521615,1.4055716846037258
0.08272022251203105,1.2169571438225595,0.06691497167859752,0.08479238110357284,0.032665798681451995,0.00887028313560987,-0.011549023549763511,1.4088095328819108
0.06227444140763933,1.2244977480081694,0.0469347674673511,0.0524569587397874,-0.007478619088033886,-0.01892528904778497,-0.05237688307162666,1.3005576001700965
0.05008015857385964,1.21296734099411,0.02519564330534087,0.03603697096907125,-0.043140639671164736,-0.07063412512368031,-0.07612565252856278,1.3532855766595167
0.07348178826983892,1.2661648759541915,0.11401044485106886,0.15263588867080127,0.06615112285230955,0.06721625657116448,0.07358703095839148,1.4210838513565622
0.09296221948262587,1.216954903817891,0.12369959244353301,0.1518646344833142,0.10652834776829728,0.06823059274738366,0.07776034713643971,1.3443593241185365
0.08704485393002433,1.2061095337620362,0.11359756637199526,0.1400496762808666,0.07983327224699711,0.059377579785735546,0.05242871743535266,1.485914987906328
0.06110860705947236,1.1874474573517386,0.0935392193029589,0.1104045618419071,0.04408852673412414,0.015144479957589095,0.006876098554300359,1.4159391579364828
0.052594351916343804,1.1964477751600984,0.04050291659915598,0.0777537937914592,0.0065428866058823976,-0.0264871018233486,-0.030369810911843226,1.4748370445970842
0.06547223768663585,1.1951789301208455,0.045416602221301956,0.07936075345033898,0.03693672643112026,-0.038229358747395616,-0.05144225202587701,1.4184239228716913
0.08580552370722243,1.1959047344258074,0.06831477816892578,0.1306469372602135,0.0797163843666127,0.056930933132471134,0.06140215840203475,1.3573441237280697
0.08882633375315743,1.2296456462083198,0.09209879457609975,0.11482369903492765,0.08659891673860257,0.05448220995915159,0.05731543795642433,1.3884466818340144
0.07125819181203656,1.2361480649655139,0.07372443639049896,0.11018458001753828,0.06005267863551968,0.04916495190473227,0.022539056932186777,1.440576497667478
0.04529026472144214,1.197161235863784,0.040065567289037596,0.06715397391952248,0.036953000871945606,-0.014905810573241203,-0.041392079353602534,1.3631664949422637
0.029148778556935675,1.2436986269137795,0.017025437358440105,0.04092164739524418,-0.025812164658504312,-0.05190869184947084,-0.06947369468683855,1.3287990040504793
0.043571754191959945,1.2226140223428923,0.04489989485007265,0.07792729903493516,0.012552479701797374,-0.0020175541116962997,7.057574356556714E-4,1.3995615143280342
0.08272737002729576,1.301947011925113,0.0948559149712888,0.1394872445600449,0.09552627360299916,0.09541721421078148,0.09864721294224105,1.4195744469384584
0.0937902428553879,1.3112096366927537,0.10894664340278054,0.1320176194233456,0.11053668024152373,0.11296871432984494,0.11716580927746575,1.412477725602497
0.0871882956341636,1.2835824458051988,0.07738084222628629,0.10795140544677344,0.08186618843145461,0.08173366628713388,0.07976573416493823,1.3896682148146962
0.057286008757190386,1.2728455358231237,0.06849204182844247,0.08825028575297117,0.04437131886009015,0.0329672902160289,0.007390915287600045,1.400564379180279
0.052496106962660855,1.2655513434940584,0.04482788403558991,0.06873376125717345,0.019376504035873387,-0.0014788195807466501,-0.002846980648412433,1.392310285984326
0.0575832927895444,1.3085491983426483,0.06454348241900404,0.07228376135452506,0.043990720394916014,0.01371829361270202,0.015551267767061576,1.4518553284027873
0.09899507077658967,1.2897981920758224,0.14819007145647112,0.17439395110344608,0.13762794742452208,0.14718924885297435,0.15629824632293668,1.502667338757442
0.10169424937488138,1.342365094209887,0.13028033694290916,0.16370806137120184,0.15098036461213085,0.16521831150949307,0.17733564452435235,1.503438585450725
0.11131452792838026,1.2922650786014984,0.10442549567725885,0.1257252345101794,0.1326574220423028,0.12982108796121355,0.14581120751335058,1.4434311813773595
0.0924278842494461,1.3800135623370544,0.09544044260017394,0.09639232764415809,0.0767169398236571,0.08408109740424671,0.10813232108516485,1.348231900592477
0.06969588438610146,1.4235808861484658,0.05389048040875055,0.08296773918169018,0.06824528425916065,0.06105031814743218,0.05974338812280233,1.3060842388874416
0.04293707332349674,1.3706660796408692,0.04948758215242214,0.0787161664278376,0.03219966687166492,0.03966126488279587,0.051778305088335155,1.355762395031938
0.09161912894507532,1.369698043325334,0.13176651565120195,0.16895056356059232,0.15284893059880297,0.18105390663269322,0.1768660415974277,1.4145589159629264
0.10526454755386958,1.35952268607475,0.1285619975957556,0.18234712211792484,0.172417661922058,0.1529197179391947,0.1783424812053671,1.392933999818643
0.1027239697235309,1.3355949794095947,0.0997780628688074,0.15468356950203954,0.13140724226646153,0.16725115894516718,0.15414995014458874,1.4259648117358548
0.06440486292756373,1.380145459658191,0.08760944557850886,0.11221949629822431,0.07419987855152438,0.09522991500713224,0.13147835864536123,1.3980077584228754
0.06771389863770894,1.3513950767542806,0.024676969155846808,0.0841310851014207,0.05037470985190073,0.056708632623487056,0.06589501711698793,1.384354580846863
0.05566186075801982,1.3724800081475623,0.029253828236794344,0.053364144973443016,0.026328927416504676,0.027474664952682828,0.03261764781281247,1.3464789772441748
0.09045850488233213,1.3933981810415224,0.12516668099575215,0.15320457433451518,0.11841437253577396,0.1386577579225401,0.15624528369242943,1.2985982532098044
0.08562516916734232,1.423653149927807,0.10451226459482363,0.1438829079695346,0.09815606680381767,0.12810478118257082,0.16669361632505325,1.2488599517545984
0.0870205774857083,1.3926626930956676,0.08127633276763833,0.12274270483914107,0.09541322152570023,0.12227043186090508,0.13111743623854166,1.3439200396121236
0.06184664482056042,1.3932238273542246,0.058823630068228036,0.11030463339534975,0.057950921060600236,0.07510346552273793,0.0916121234295895,1.4388898823572653
0.041801071907890924,1.3667169673770025,0.03742247779048336,0.07681638943219124,0.016946650902584154,0.026679958144237733,0.02976826272371904,1.4005224884987881
0.08823872794747313,1.392150120928781,0.10947375325324395,0.14344187812118583,0.09634722960647661,0.1258798481171885,0.14295308590426054,1.3703968191214275
0.10926232055792602,1.3642899320604471,0.13413561044198274,0.1843955614696579,0.13639587334527392,0.17905759135506846,0.20240834776052927,1.4669781199123293
0.09822625804236625,1.334383255851267,0.12996669649809744,0.18499638954619607,0.17311249171503174,0.2030101519836503,0.22838365649709133,1.4503827571993742
0.09050101117249669,1.299391379836799,0.11498693677282947,0.15132724092310298,0.11705896894998982,0.1556689459630451,0.18230714708423837,1.4813719476456568
0.0611394738511602,1.350661019363132,0.09806009321614859,0.11816579477360079,0.09252516412050163,0.09495869084449499,0.11965460565497953,1.4830976849834094
0.060308670927869894,1.324135804220309,0.06429100914781542,0.08341929240177107,0.05445081917357086,0.07665047864388484,0.08296918220292195,1.4466263144627345
0.10675098042134354,1.3058676625217944,0.12565943702875826,0.17545513323504602,0.16398329320005173,0.18924725645403986,0.20614368500293156,1.478180305913363
0.1264274676725945,1.3409176057754613,0.14833310827147272,0.20760568851589187,0.18382020340174296,0.2253151519070196,0.24069034659473448,1.4556405103214503
0.1310416554638513,1.387016152015913,0.15223786924237345,0.21288474604928914,0.16477122377674283,0.20890773824161485,0.23768942252754743,1.4753775496971036
0.10494338074618804,1.3714013128553268,0.1504122706499865,0.18674718769411347,0.12962189578715355,0.163534385348809,0.19492146250370807,1.3953181283611358
0.10513720338421514,1.32831080497342,0.10923737967110712,0.14498806567506436,0.1053077866328798,0.11838411990710375,0.1542388108633933,1.3942690211079634
0.0704209248677368,1.3464826369764233,0.07987591542115162,0.11289919927715099,0.06459479422927193,0.07379250606518606,0.08698755206850646,1.4660611172142182
0.0984019312264599,1.4052568635696276,0.12764108205056693,0.17517921829887498,0.12719612283608672,0.1421857835192097,0.17899602070569895,1.5453155012482167
0.12452678266240849,1.405980285669127,0.14906140912790414,0.21340246086154743,0.16985360105538355,0.21226041734844808,0.24433789983837848,1.5088849145408254
0.11870580652789113,1.4194427709658777,0.15328492758642703,0.19322007831504392,0.15017578920874308,0.19911503212976436,0.22688315767478415,1.4585395588204486
0.10724483611842425,1.4199961815050914,0.10167626317934264,0.137527075848284,0.0986626990624609,0.14632013723748427,0.185550864943175,1.3972924169170127
0.08211390444325181,1.3778442833637545,0.07595126110324989,0.10118003070491662,0.0657244775342886,0.09040029165334813,0.11384311505920967,1.4545657390580968
0.06173506547681942,1.3875387301583617,0.04890804540939107,0.06194984268788314,0.01217544013112654,0.03713108247296324,0.042037176763655204,1.492626667324846
0.053547129994190236,1.3993544228849475,0.06345535986083801,0.091241031058021,0.08364360985490679,0.06890215810873102,0.09947328038716721,1.5450770254581414
0.09244848139008757,1.3505923955503494,0.10677379867889715,0.15034592436202943,0.10570855965161198,0.1462652580118344,0.16846307887563705,1.570704646673193
