-0.017676317994998133,0.03743714623089642,-0.022877454490010312,-0.02353493823624738,-0.14998482893553,-0.1692600490704953,-0.10297463622575767,0.03434860339073611
7.698338046613384E-4,0.10443976226042034,-0.0033463166199769866,0.039951341300562944,-0.04446801012526314,-0.07020237662721057,-0.08191834145744034,0.21966294970621922
-0.0018949105756185306,0.057220644236724745,0.017373735319742154,0.03506328953371447,-0.05707476084466467,-0.09907706239522969,-0.08719551993251273,0.1735167676893579
-0.01324520991560314,0.16555022729280608,-0.04200980829675366,-0.003072772536034882,-0.08379149470408599,-0.09330057326964955,-0.10208306571149027,-0.022478402436760223
-0.016956098249008553,0.1309979229908927,-0.023928429562874474,-0.019649393275038896,-0.10366841590993578,-0.08466337357373252,-0.15198108515228076,0.14907069282874594
0.0030124366637269634,0.10683436311878791,-0.027942049012292965,-0.009132360053349704,-0.03597026747294995,-0.07193082883923411,-0.0766241664409152,-0.0663491211926073
-0.00813252490955459,0.06737783214648004,-0.003946199817506755,-0.0020027978623306983,-0.05869503473355895,-0.11493960695281927,-0.15708461992126152,0.07081892945845651
-0.05544670984545263,0.08328801558374661,-0.039368486040335035,-0.04151305446261336,-0.12202016780662422,-0.17533135364200114,-0.1870526574910917,0.0846037239118502
0.018326376790804625,0.11403225223844418,0.009345868518089205,-0.008633045167443346,0.02262056109995738,-0.04909625858495041,-0.0927058482548079,-0.018849037222940283
-0.004170032155208512,0.14274496204289697,-0.030247553970045568,-6.741452551967981E-4,-0.039472436081888156,-0.02897237782731821,-0.11162372292597812,-0.13412252067263714
-0.01202631225778936,0.07964775858129385,-0.005245550395550916,-0.04026050937217828,-0.08698100783943172,-0.1506280450534771,-0.19320041467261495,-0.0653931920493356
0.00993432979420819,0.11515962158902664,-0.023141163750736056,-0.013137975743512857,-0.06400582268226178,-0.09726312359975338,-0.1009625272184155,0.005049642845333856
0.019885131568062937,0.07498984280299245,0.004226747268827485,0.013123604010448417,-0.012408601441000394,-0.022950895279910528,-0.05162170684630305,0.11920210321181945
0.0033159130105652294,0.05807466229355183,-0.012508407149568822,-0.01903787463522808,-0.03455996761110923,-0.0751529859482807,-0.09030037175982322,0.21849919302804305
0.01514250228046519,0.17044521964915976,-0.02096850760187742,-0.030346881815802418,-0.08530663291430751,-0.13262353218488246,-0.16547375860286118,0.10224024403359255
0.037568006369971096,0.1256413523529611,-5.774653367855878E-4,-0.03047592267412842,-0.004782700857750651,0.02314347552487612,0.012953086464282186,0.12574506269218397
0.023657959157548553,0.10052808881540572,0.014116230072076321,0.02171983576884016,0.044603344641834526,-0.06252733028402321,-0.016929439816005247,0.17255027865006062
0.016413064589018374,0.21089686398515034,0.01751410466840237,-0.03264627650400939,-0.05621685753954669,-0.0672383981924886,-0.059474168264264625,0.04971623379232554
0.024134400977877966,0.09133145059900849,0.02797573138352715,0.019390627497347584,-0.021838082537557462,-0.04306905311325282,-0.05326867664615674,0.07935452618445439
0.04182363634629076,0.12303066183958884,0.038581635694531914,0.060533917813655795,0.05471813623719332,0.02380262879870051,0.032710767998216726,0.2862097633404968
0.03319247921661964,0.0763641859823959,0.0282432482759394,-0.016654579359940424,0.018414128364275754,-0.042021377851738005,0.04611306991095418,0.16960775788375804
0.012545810917866563,0.12461492429665053,0.009126957338018854,-0.006369709167748742,-0.0605093086011872,-0.09470735925634585,-0.08910695553306927,0.10095068510330578
0.05752203220530383,0.14088758834809592,0.03115852085277253,0.043017376151925614,0.015336019993331777,0.027007544936551203,0.028743079399014458,0.037374388090652244
0.04509912933516055,0.15611577367475377,0.04908413607763165,0.023400221651793993,0.034678847614635654,-0.00685797827585839,-0.010587041593787738,0.2233914736083274
0.029229765804968028,0.10857563001192239,-0.007890384514172727,-0.003983738446647417,-0.08005145284782561,-0.01643877546879295,-0.055905498115868424,0.09164109945502613
0.03465821369446853,0.14997456472446785,0.029477143457070067,0.019512189633472073,-0.013938701572060891,-0.05335891231505996,-0.038119165481962855,0.20158319161241925
0.05560099006134631,0.22125763698436066,0.04909967577408208,0.0042694418242659,0.021331841960273743,0.05219065943890412,0.0031000328369777696,0.18210477797920568
0.046204567511610825,0.14932214762173238,0.016974194603209463,0.0029876918880547966,-0.0031326322302016965,-0.033966570231915724,-0.01286458010345498,-0.04049683443129274
0.027859553141615312,0.08657315081293239,0.016163126019687522,-0.01760201479302283,-0.07800215976120113,-0.034691835851459185,-0.05435857337635506,0.012840664095636303
0.04913650409232745,0.12596316992473067,0.05807534395505873,0.03678916559890728,0.07986613638821229,0.1322343651217416,0.049151493785793136,0.06201246444942133
0.040480687697183694,0.19892366450726198,0.036456471839892174,0.026575694298496134,0.03466495291075752,0.065096982163229,0.005782730342923558,0.18417261596363596
0.01796069415727111,0.14311053110289434,-0.00722177523668579,0.014564172615664022,7.878141046243954E-4,-0.03007584340313703,-0.03867631080697087,0.31551409696130017
0.05845405105083109,0.15535999438441905,0.013135061555987676,0.0226638083182194,-7.26892030970515E-4,0.01975647647069707,-8.527364385856706E-5,0.10663113830136593
0.05756323851922764,0.16508682676440622,0.036601358794447494,0.05817530214761888,0.1086987904830018,0.09747535256873849,0.06848854374205714,0.10235932983403255
0.04760403949100428,0.22024444411365887,0.08279817031520056,0.029124222669212965,0.05886186663881175,0.056912658967761744,0.055047160685469096,0.11637002621391805
0.031629730105840345,0.18004496738779183,-0.0018481021327524966,-0.008198251624033731,-0.03469436011610879,-0.03358027424101984,-0.11777699887152296,0.23063333517668058
0.06903953759859129,0.14279613909560673,0.0804430530338905,0.05369359848369706,0.05004612411583913,0.03198821312607676,0.06712706352664081,0.02369058879772532
0.06405003217825035,0.21707797658982564,0.06454763786324964,0.038340085552888,0.10313865557515794,0.06450791841126775,0.06698755838366896,0.1014570394573601
0.05393483168034494,0.19929047858893936,0.009533568890321998,0.012681485999913438,0.04624368720827821,0.06601057905359509,0.05301428193669958,0.15960353150132897
0.03686140566936334,0.19874073865416353,0.0018775715679873782,0.014136498364971672,0.010449357504166853,-0.010187229691516836,-0.022560458025405634,0.18978596373647527
0.07220869341370613,0.19512788050080762,0.03977501506233196,0.04131081805655504,0.1087363515364173,0.08584204593829571,0.15021173403067878,0.1466448915467275
0.06218671022297947,0.11503644551438706,0.015117353565981134,0.02710511245605109,0.07231129459972623,0.0300038441173553,0.11627168745749214,0.08737693389015931
0.0415967259236006,0.22951211121614845,-7.14200279503815E-4,-0.013290532831827333,0.03068586042280718,0.0024310974784299442,0.005118643035955302,0.07294153145041295
0.042656666736320036,0.12275732897697424,0.018723410905478445,0.005124486126494711,0.054834497829551625,0.05629190561751085,0.06529514781489516,0.13178701205576246
0.07193374220839131,0.14085400160812392,0.015506505263624036,0.02171309827982306,0.07021385703294156,0.1016160780631433,0.14233069461154096,0.31547148240684963
0.04186473080654104,0.2242133834955335,0.018141630237950044,0.021557539873534263,0.06996082787217972,0.04409244673495459,0.0683443992201241,0.13686922524700862
0.012507867884278425,0.15576246722557802,-0.0398902181344531,-0.034441879153765856,0.03597378997296799,-0.05621593700303086,-0.10447140744095544,0.08600964661085492
0.05367549993945229,0.16357086614469013,0.046401843536811184,0.03465313077100203,0.10183179881619038,0.11708315660493165,0.08359648227413324,0.05394502616516157
0.05180294579157769,0.1853231222628971,0.007515851566576596,0.03159001017714583,0.11153753259745751,0.12859988366864453,0.12001392931758827,0.13873621047954054
0.035665408211967085,0.1337995227217804,0.025309735804717053,-0.019095628218743606,0.055498074141069664,0.029757015734879464,-0.0046730364995656625,0.10981704923047929
0.026213616237833588,0.21763422093015003,-0.021619136622583454,-0.008014850386214474,0.0015574793728312295,-0.006896749784397298,0.02225755604054591,0.11016232877678377
0.0528919923658806,0.10509626403133564,0.04810316131645548,0.047332769020409324,0.10191505575711356,0.13598327487892828,0.12233253439958348,0.21652403247808133
0.04701322137191472,0.19300643396805126,0.024392006940680347,0.03568824988495015,0.075173472640656,0.038768076861021655,0.0816578190724436,0.005985043851242194
0.028627191288997246,0.15652470449297243,-0.043636813637269886,-5.767798277932771E-4,-0.001686123654254629,-0.03715603473156348,-0.031425815479603214,0.1763595310195147
0.039249324226904185,0.20117108220106864,-0.009693610433092817,0.049253412203985394,0.035246936706313736,0.050284915973557213,0.06442936744196642,0.033982348279544064
0.025409469812616128,0.14027006570673417,-0.029244561169908374,0.014416293677773405,0.04402341159263355,0.09407965402770596,0.09199513665810477,0.10977843415287439
0.01590684361033982,0.1518229450274673,-0.01629137042490828,0.020142732907186982,8.832938483064877E-4,0.036693527505877725,-0.002084865386546769,0.07976134032167827
0.006331063171498678,0.12462132567170507,-0.005865641171042428,-0.038167817537769703,-0.06153058430073959,-0.035665258775675744,-0.049330992102220486,0.17690631653132555
0.007191262160694397,0.2694243349173457,0.0036598149061409387,0.035422078643623296,0.009727304504255267,0.10273303669309547,-9.445816150678436E-4,0.07395547764452651
0.03224632682791652,0.07307775575183166,-0.021176516515202498,0.014472699968846588,-0.027511547572479096,0.04627121425723505,-0.018946658153048256,0.10397311602108979
0.007511069124782969,0.16682117493616425,-0.03158836848182728,0.005073900574482415,-0.030942729250269575,0.020722212816580207,-0.022543126637406683,0.24773924663816077
0.005886886746500331,0.13574605674279402,-0.02190198300676472,0.0017554308394434597,-0.05840789945025856,-0.046319405842573234,-0.059421624145263086,-0.009995925512874345
0.013765966057845995,0.15238642894231674,-0.008265872963414755,8.496619845821909E-4,-6.207822323821403E-4,0.028348448293030036,0.01976998752471825,0.048674678999054394
0.024538674612386485,0.11664975257243872,-0.056191968885678144,-0.011755160068617694,-0.026485055564963226,-0.008933556925696574,-0.012218654898115766,0.22596980313891
-0.0027781611267837956,0.14988676964367628,-0.021258762598501898,-0.06496813865795723,-0.06018624967671344,-0.047697319638816196,-0.04696145719871746,0.07998134254632663
0.016740881697233975,0.15067289289435562,-0.004265960105557198,0.018325315584424576,0.015026502454981447,0.05430379601548157,0.10406375117110257,0.01134664293092775
0.006950939433076061,0.23632624299638283,-0.011909515831265828,0.0071690305364388255,-0.011399364541403985,0.005938853399264944,0.08704217016847256,0.03753310464295458
-0.008908450642808508,0.2242074832587887,-0.0066784676707747626,-0.04052124697233172,-0.06801961463438078,0.03914807056279903,-0.018224338880945695,0.17570070236046567
0.021587144403163287,0.11974619953146276,-0.0031203653818592044,-0.0038304410641261284,-0.007888718381946876,0.043204963795395186,0.04273665980530146,0.31515878266961694
0.020729366537024226,0.11676724614266812,0.009544792360339944,0.04098891941602438,0.02472402699341084,0.07143583729686341,0.08493752364021918,0.01707877076577422
0.025930803687837137,0.20821637137168195,-0.0018820516127898356,0.0033200363956753754,0.00623683489186588,0.06087659902059204,0.016676476244128994,0.14363829267266548
0.010137369772393276,0.18117404786455296,-0.0408033572787022,-0.03430936864535078,-0.010881959194378787,0.009951160174565769,-0.032831497618339346,0.1332443442669283
0.06261003115007395,0.29044574565464926,0.062260252528831814,0.0214268068549279,0.05296478706531106,0.05729582118359893,0.12568177915941028,0.20239085585768668
0.05503946820389374,0.3837282440264203,0.055637894088046695,0.032005383622062476,0.030376659525425967,0.1541601829853556,0.10482117493117209,0.09633457930699968
0.02901721757563741,0.2196736992372802,0.025859561943572654,0.005750875399343063,-0.047562971309815766,0.011639117059947756,0.022404686956251182,0.28459879746534633
0.04966089991266612,0.2394124066663504,0.017439685401475356,0.047800262608753696,0.06051258794247504,0.13896266680528382,0.052557707203052154,0.27082123907030375
0.05575843703961395,0.2572859736000077,0.036346879845391526,0.042200930036093195,0.031166754202428138,0.11755972200482465,0.152948313799171,0.19822606993006955
0.018954776759129356,0.2620973981839243,-0.015561047384902943,0.0054307835495524676,0.007310157858018289,0.10060253507607592,0.07965977381810595,0.16976179503334735
0.035300322805936056,0.193606453297854,-0.017517727257285058,0.019056327407543858,-0.004717307422913283,0.042787476116705934,0.041098811536383624,0.3044120361804845
0.05079437005906503,0.3019055981309968,0.04283934039481764,0.06037286548305608,0.10819930194010771,0.1082950723471612,0.08194547081607571,0.27281864493877117
0.051720417742063415,0.3393728694354662,0.04293565036581399,0.02099204106543431,0.009738560939346745,0.09346073209975389,0.09594500210080294,0.30944469920455836
0.02519277044906757,0.3165503506597563,-0.015418568242031786,-0.004745191991348039,-0.02608739937072012,0.035057031964433834,-0.0051535093195723,0.3644027861923579
0.057588491474950654,0.27122034038336124,0.007230088639827554,0.05066158674572251,0.1045083084555601,0.09263066371749691,0.0768513321799721,0.21675639101549815
0.024374787576662893,0.25556961943290585,-0.01487765310339589,0.04202841227058968,0.06867598602700262,0.07893889706452338,0.0754056329114163,0.1662033805934974
0.0010771561329471137,0.2718697700622598,-0.020076832368694782,-0.002084982017278777,0.07369574161482541,0.009312860554218677,0.019124265471041235,0.17208273516129471
-0.007076224497463877,0.237009302026273,-0.05231315290134478,-0.006267185560977709,0.02293770331670668,-0.035031684079800514,0.001747784972668367,0.3136324974338737
-0.0021108966025906914,0.3082202919329854,-0.026512200934945697,-0.01096046498390765,0.021936033751782748,0.05126381281855644,-0.0046032917875479555,0.22709782431262612
-0.00362580865750704,0.2950648220247916,-0.023017131567294107,-0.018558707377495307,0.03046757553382029,0.02420357225891138,-0.030890305454232474,0.10834838151916122
-0.021550907521765847,0.2318233617914734,-0.04025439785127515,-0.061817878020355314,-0.02112239636537131,0.008829459188239517,-0.04569221796690965,0.019999686127951558
0.002263330357400927,0.3127122010446814,-0.02102796950363753,-0.05102942970868234,0.08330223678132337,0.03584298921994529,0.055014253183319935,-0.005610217338971419
-0.02330879669563055,0.23820068295951827,-0.04164236975500319,-0.01939683510749978,0.026767842232351482,0.02019542929764466,0.009449141976864936,0.20409192313168784
-0.02316158357790013,0.2058534349283503,-0.07364262411387004,-0.07347861137417809,0.009048821667925137,-0.05340029777838551,-0.03763482768870172,0.11241730401156781
6.856227509547255E-5,0.2270437534925139,-0.03836703093173295,-0.009429636961608704,0.023443821631680333,0.07785531888178164,0.07547896338499409,0.17532789561546872
0.007231938039590863,0.29154476422931686,-0.05334484989600419,-0.029308424001302992,0.0355357256337416,0.033062349505074876,0.01744444355492951,0.19037533340902804
-0.02062090645408257,0.1613846306697743,-0.08838575801581108,-0.06436916376179358,0.003503086160197492,-0.044084683512571006,0.0013870541516470777,0.23406408234567946
-0.009425999952162254,0.2518024352059539,-0.04830236813916371,-0.004853306822016035,0.013038213165496103,0.03885051953442525,0.023039840953972865,0.175353487521776
-0.002339103518350967,0.3458364015147704,-0.0362186546038511,0.001095860803712386,0.08987692006998192,0.08276155512977243,0.09426185543891345,-0.05807550374108102
0.0019844260732252367,0.15643791559853965,-0.06369875258952902,-0.05465472968354687,0.09066621973394583,0.012425749793031626,0.026850076574546636,0.11711723867310814
-0.024735574669086168,0.23854251585123598,-0.06811465810960983,-0.04274446126973774,0.03365107015475588,0.06230382029464587,0.04751736402040942,0.205229270431499
0.024547833756989604,2.007452355609615,-0.2085339721371083,-0.008676881922655045,0.1874713617220043,0.1697364819456548,-0.04031136160310011,3.906026757812094
-0.005151562500025924,2.498477302801015,-0.22548441389512286,-0.0381737009916848,0.18042411148487636,0.12113154582404283,-0.12748697382014484,5.238978538380656
-0.003443479215826084,2.490379710053434,-0.25134477843083547,-0.09971564238472677,0.15449828941706817,0.01355205876423316,-0.09782407411467271,5.257047989379686
0.0437484026447189,2.4906672841200277,-0.22979509933353273,-0.010276907788097466,0.18337254891837998,0.15248795007050972,0.005827664069793858,5.2375507631212725
-0.009337469541099496,2.553448776093558,-0.1778852118794271,-0.02713700203690975,0.1805870271167367,0.09006967071847592,-0.05617495082085737,5.503790010938893
0.0017838446803090059,2.5254195330683658,-0.255221894800206,-0.07439402834706944,0.1128638128528967,0.014721142005868404,-0.1120032274040343,5.285073136530635
0.015408704464468757,2.512855083099662,-0.24184508923644513,-0.03242230474866749,0.17651318098642324,0.08989624983510798,-0.03252500936468527,5.412512002810379
-0.006492883077526255,2.478814357333541,-0.18922727400129094,-0.0262395206657569,0.17104061157882178,0.09936398750086976,-0.014002183950648043,5.3573596214026535
-0.014074757862065163,2.51772367873454,-0.22974738379530157,-0.021977512111484764,0.0845062873109719,0.044539006444148634,-0.14788825948699047,5.208827176839988
0.012556383212635528,2.4958048660477696,-0.24730888045407767,-0.04166765678356165,0.1048605551067538,0.029371803401727688,-0.10389968593304766,5.24941336578491
0.04359818202008253,2.480271934642779,-0.20788609286717913,-0.02080131063958907,0.1810167038264326,0.09514463212504651,-0.022690974268736973,5.28230808277402
0.029782415521316,2.4639809948620224,-0.20523359181124506,-0.03347355202069457,0.14867121761729646,0.10619625158791729,-0.04873521825586131,4.997355595943462
-0.006611865379352973,2.5166359879227387,-0.25213754036705616,-0.027644678419317295,0.07096132323974351,0.022844468759316894,-0.17727205045765404,5.449496622619432
0.033773338264681645,2.5642756366652253,-0.22174378666306865,-0.01283613530479681,0.1938936244560529,0.11650993383923702,0.0012878761508871154,5.395584091492418
0.006819736385671033,2.4901653268069794,-0.2488775857218999,-0.00871187607765784,0.1317707200076909,0.127715122468128,-0.04623006111485313,5.214322730505223
0.016100166233365534,2.5334377931434737,-0.2223982850959404,-0.04733552806637819,0.0975823798284553,0.030348109577338394,-0.12600650218556608,5.24117903811938
0.02059328361606003,2.563286815498031,-0.2045891426919049,-0.05747569014687493,0.14272561736904502,0.08260461031845288,-0.07918002052063973,5.377877403284548
0.03372774381686327,2.5633604587515646,-0.2075484630410566,-0.019077740123178807,0.18699775026621773,0.13012928813114275,-0.051011145588041096,5.140757314188428
0.0027021640077095933,2.463699915418589,-0.23205246613614527,-0.04524988393760182,0.09680123076543115,0.12100783439299613,-0.07400840727134778,5.429063099044614
0.00505912513492237,2.4691290992018815,-0.27220534152898923,-0.05179228954576024,0.08311802043429733,-0.006092137337853831,-0.12782036755052575,5.219335413913067
0.02148013549195833,2.555785138761894,-0.19118814783591018,-0.0037377532411682645,0.1826042680835806,0.17358486744594998,-0.08625742047056238,5.106389555476017
-0.0025164031633325644,2.4613367177829297,-0.22886137142050858,-0.053270962771112824,0.16587696818889847,0.11737848248006992,-0.10859438169301244,5.188508825539177
-0.00781022724735022,2.584818924670472,-0.2638540364095086,-0.09318879743236332,0.05693346803588673,0.07879958138135897,-0.1692872874385978,5.3758229740948815
0.028110763087241673,2.54280888682023,-0.22094662411300264,-0.0595528394687751,0.20000774444882613,0.09063699667723547,-0.09824457186007815,5.463125065264102
0.0163950552172936,2.484649541654617,-0.2520171544372127,-0.07270206007639352,0.1570990223453717,0.057236502085254916,-0.12976144808742432,5.2896299419900465
0.020121645071549912,2.5987001689031115,-0.2283228430673155,-0.10620278597727698,0.15581787307019154,0.051500458223720076,-0.14685400958332975,5.273005694454293
0.01926858582884211,2.495528956851846,-0.22618223422404338,-0.08837170519910872,0.19014578019906916,0.1137892496819129,-0.07126713508313573,5.299605890413883
0.04869568476180443,2.475692050101333,-0.19436158976063475,-0.04473133226621597,0.2781498313055018,0.13597432008243723,0.020256323827163147,5.336311206287851
0.04201307751516465,2.587018504977177,-0.2063848472357587,-0.04461214043995889,0.23003832268227087,0.1678153675437398,0.006207843198931432,5.329516870724177
0.03183000332525922,2.544133624942778,-0.23760444249713653,-0.09833004349794694,0.19628349979873388,0.0575865864939891,-0.09228315509914824,5.205083590364699
0.04851799902013197,2.512768845060046,-0.18711987232588378,-0.06071569883173039,0.25927798301569555,0.17323867324683373,0.02198488072139245,5.427527775156999
0.033773198960493585,2.534685211801608,-0.1750182022575522,-0.04226261453852986,0.2504537616122282,0.10992686063358718,-0.021372055575596065,5.459195942475792
0.029875358414344005,2.521477518973577,-0.23033285878130028,-0.06705821745772107,0.17405436628750146,0.07086011048138927,-0.06497604504894634,5.39208031312622
0.04472945902382688,2.5578819336758376,-0.18763990324073707,-0.06676372533435466,0.24914047651771073,0.13169612158308014,0.0025021511764296745,5.17379405407548
0.07139365580451452,2.5332812078052442,-0.19125123868583627,-0.018107586664848435,0.2742874477003587,0.165155299465551,0.0038066703990876846,5.326206370813459
0.024424082829634215,2.5014394960754287,-0.20536788990289914,-0.05645720816125178,0.20218044506936755,0.12721189093759158,-0.09285483018106008,5.241175440863824
0.028271830930335355,2.4849086006040797,-0.24015714449358663,-0.07334098821366669,0.13474954431581293,0.057543780092871116,-0.15268739284748184,5.313318832432752
0.0565029974610166,2.460402228477696,-0.1605988083916652,-0.049137183585762106,0.18909524771738162,0.13468083977898426,-0.05108368403180449,5.363900446162995
0.03432112062523726,2.5255167596801207,-0.22930364254012572,-0.06930263720000861,0.16640730492734018,0.10761767447405966,-0.07458971266621704,5.370714337289996
0.022145740691064782,2.4984013356160975,-0.24876427012938154,-0.09225850070713512,0.10467685078940991,0.05211332099966389,-0.12737960762714265,5.264965311804295
0.019148777136507703,2.5330770012668697,-0.21481754839440306,-0.05899782089923036,0.18769458296181174,0.09717605832157498,-0.12406667407910978,5.447248241845613
0.019213057850782325,2.520680255434345,-0.23747765950463195,-0.07159785544496038,0.18308514291880257,0.08470434088555179,-0.14823527128537775,5.248873570721452
0.029410319128673815,2.49654588391074,-0.27193161794481663,-0.12448218204962189,0.13732325419426838,0.049710065041040384,-0.11322966357303221,5.452005123952121
0.020607647033841412,2.5279569846318752,-0.2685196581573824,-0.12852879171509257,0.10702103776742727,-0.013868653179405263,-0.1648638294852202,5.365129348378482
0.034062928369843856,2.5170150882966613,-0.24862153795778305,-0.12618099832110571,0.17815330395567847,0.08578611460417825,-0.13804716737535772,5.283216287053794
0.010900057515415291,2.623303405269384,-0.2845092606873179,-0.1204795698178271,0.12388938790299836,0.036420595673925873,-0.15745921217378256,5.255721289360838
0.018133727910815377,2.5472189285266427,-0.2766066472606573,-0.14319875868851453,0.08170865854190809,-0.028874717817679314,-0.2286583796278096,5.210220155958404
0.02612779492872756,2.5327027257002706,-0.24490672013279374,-0.08151595100673614,0.1573885838933027,0.06360225665902679,-0.09938285168160069,5.20445921146317
0.0012719405306931067,2.5173912800179745,-0.24255968985117285,-0.11203915691030715,0.09060834529849361,0.06503785954845506,-0.13100177445155367,5.431547914900342
-0.01790758368746437,2.590034105504023,-0.2931285981146402,-0.1426881638140066,0.08671634763260253,-0.02084490643352599,-0.2703705398224471,5.308076061024675
0.016674092280877906,2.5441027941833565,-0.20746056150619116,-0.1061947441372685,0.18986162500054493,0.0707344217093355,-0.09510224235171402,5.190357271374947
0.01629723465905507,2.537417952148224,-0.24017238477693645,-0.09548763781377131,0.14930560063168663,0.027262402497185808,-0.13387487853513078,5.482864852474345
0.0053803776998507125,2.607807586425637,-0.2963706411416577,-0.11068708335921636,0.09065658709098452,0.05612647148447945,-0.12606523128209932,5.473155232491327
0.04066413641974296,2.6299736839611607,-0.25655347247619115,-0.07653161829636995,0.18012968134897636,0.07178275854908643,-0.11214204005377001,5.387432964843429
0.02222527513748466,2.5752773514126726,-0.21700577979092886,-0.05867678227647109,0.22385332897864527,0.13537377254315602,0.03822762910734564,5.2363558258473555
0.02155018039704216,2.5232683935368847,-0.2338377187565167,-0.0768466069338898,0.15093940384685794,0.09559156262437765,-0.08479223600716414,5.357268058170432
0.029341471096309114,2.5657969440069217,-0.2543584899613204,-0.0708002544391284,0.17382586187963758,0.08048609216751575,-0.09266998600375374,5.334898082118267
0.0375458877417851,2.591057688733595,-0.2366068915142512,-0.020306694799853524,0.2628559360165104,0.18783570603367175,-0.04921788530473817,5.260820294415701
0.0480567232270489,2.5375924874896274,-0.20922484490245247,-0.03391008312896786,0.18408875430943084,0.13425706568104706,-0.01969963364267957,5.331523967802214
0.019209024128298797,2.6190976435619575,-0.23176747898122824,-0.05588616305422331,0.18304638324847217,0.08399067093772251,-0.065648052854815,5.503086937496164
0.07363410438790878,2.4485800190509925,-0.17814706346357623,0.052792182565121776,0.30112794633754053,0.22634353259546455,0.0754404661322782,5.38803011204751
0.05857609599505699,2.5274014265584652,-0.19890278204056958,0.0164768339675898,0.20194421108647734,0.1606199464477554,-7.938901931480183E-4,5.313920500457763
0.05117149644165109,2.5979852074007392,-0.19686792875461753,-0.03261450328806953,0.17726082708940893,0.13789152062858964,-0.024632185389815073,5.57078563225745
0.05817064293286041,2.571539119053334,-0.16580454385525253,-0.005640243766107519,0.20632827491864952,0.1644054404802807,0.001944331712650818,5.138028377147205
0.0699386010425919,2.5674847086083847,-0.173245830782411,0.013811185402509453,0.2398675016413116,0.233762160256043,0.09399362089999529,5.442682516028982
0.05520086321887017,2.5456699517688,-0.21292472808934398,0.008538606081907466,0.21368323628650843,0.18265544644987836,0.027304122337638535,5.356368967665389
0.03011699093292987,2.5746879223322234,-0.20926057401267842,-0.03706351081187479,0.14269126318858266,0.10164233066363976,-0.05349271664121967,5.3591957619326624
0.04182636265942857,2.5086517562116875,-0.16810374321834806,-0.004375276476253708,0.23168291531893762,0.1953116852219185,0.008497263449724938,5.546403680101047
0.05050958418403014,2.5518698877644224,-0.19846999110717276,0.010725364933677614,0.19785060472281735,0.1395937005404448,0.02499790761184947,5.412800114079622
0.02763666542698013,2.540652562699514,-0.19737688671385564,-0.02219246089852078,0.1892140876326171,0.1370504098828041,-0.0702463604641552,5.5166218647519125
0.04756314055745755,2.554601776745712,-0.20938322954498567,-0.042728697080111455,0.16237336509590197,0.1386778117323538,-0.06484984215982437,5.265847679056817
0.03440681216854844,2.5122472048037365,-0.20227494775701338,-0.04258232992461766,0.26365103424769987,0.18739909757421105,-0.021187620103040726,5.509864116284143
0.030565116266381073,2.6054153799641946,-0.21253021235535055,-0.02343838356136141,0.20432354193601546,0.10752884023814333,-0.04031360534791603,5.2914682860952835
0.008134978686472042,2.5562076304833257,-0.22842664585997813,-0.10696902201313997,0.13548415396904046,0.07977424287542834,-0.13377897732401176,5.5741088271124966
0.03941161956929684,2.6010204292375265,-0.22401390309353567,-0.05867418436580784,0.2207178909096736,0.21820975450379182,-0.009692058602430246,5.388968899698851
0.03237425004763091,2.542282043568677,-0.21021088055196607,-0.06651009838230551,0.2238528451173506,0.1534046804289831,-0.09258986129791137,5.223302659198848
0.012045262646880937,2.636090626317997,-0.2401657655742308,-0.09426676248178814,0.12011614122427207,0.04483229158394738,-0.06610920780643768,5.526917713911342
-0.0026440383388400346,2.5332050464950417,-0.24481119508684915,-0.11644381044918171,0.17593773693082007,0.11178226366777669,-0.10063023306272344,5.385265710285722
0.044845887280879446,2.5461136881187247,-0.21715653111234232,-0.0721006247411931,0.24740085058107117,0.15182111774338505,-0.0010712201244862855,5.4472256664337895
0.023417310405131293,2.504802444913849,-0.21744816085437776,-0.11523648047667935,0.20034400423312337,0.10987159553583549,-0.12087059935682992,5.24020722783811
-0.0017662381716358362,2.5737036464887852,-0.25488750952956013,-0.14539623992579906,0.12310244549467061,0.0415365273037744,-0.17320703172207122,5.321671730484334
0.03434834941014532,2.625231353049892,-0.24856503012085343,-0.08720413844949552,0.23827853741318492,0.15320831907761925,-0.0442183133497415,5.418837223986281
0.015907478360867713,2.5853799238477415,-0.24474659943737473,-0.13592842411525888,0.21548673493307133,0.10982425985661315,-0.0661199776640226,5.571682047705138
0.010478859456305667,2.5868771416326655,-0.28247374592265484,-0.13573895226003924,0.1525575139314397,0.08718139655146048,-0.0974339971978554,5.344910544816122
-0.016464420721634,2.5471211402986,-0.2813690499742907,-0.16069836097904264,0.1226994733526793,0.03163987252376682,-0.14726555503581323,5.222213985326288
0.026629803527890662,2.5660672452741493,-0.25654002100839984,-0.15235827967029078,0.23795928199910404,0.17924089160044193,-0.06150279629355417,5.253740130288824
0.021716902062674136,2.62851014635738,-0.2619220883204961,-0.14157518675434302,0.18032515136210192,0.12057654644331152,-0.05937528056372089,5.373924894533002
-0.016155564231327756,2.6481642216879195,-0.30439085165170227,-0.1995251439324403,0.08956072439141603,0.05268131362439683,-0.1716775389686843,5.477214470993121
0.008568918049292796,2.5724557040404785,-0.3176757596024386,-0.20795021551109552,0.16426078367080424,0.052361025473977356,-0.139321869562418,5.403421758153272
0.005727249778409661,2.6095056127516036,-0.3315124353223625,-0.15828802910175677,0.18454585362943446,0.1165243356729135,-0.06235248623003792,5.30741108336329
-0.008708148749773631,2.598417625135306,-0.26330674500081885,-0.16795281607667764,0.12764528834620106,0.04927058195130354,-0.1638348699005563,5.384578973578088
-0.015043887105601136,2.570169614071647,-0.3001911596676775,-0.19951627948630968,0.08440839712258744,-0.010897065833355913,-0.18639463152743732,5.421729138612124
-0.001876349882753632,2.615105339950997,-0.25280669776088904,-0.13509414494738062,0.121226409753548,0.07018188876966583,-0.10586589688602634,5.316187550083448
0.0022188038178266906,2.5830424578135625,-0.2827136135223702,-0.18820638579531285,0.13302022906975217,0.024800785935001714,-0.19100141473842505,5.465960644540824
-0.0307652346540971,2.53691552698818,-0.3504628163948354,-0.19990074382424272,0.04285028019726466,-0.05181057042451294,-0.2749309398987581,5.570145360825244
-0.007342569409230776,2.5760542105434774,-0.30664821746225246,-0.20754073859773756,0.049613788632764,0.03272507413146832,-0.17023045383672994,5.306425240801252
-0.011208531365070946,2.6148652060430617,-0.28884180924404534,-0.21133242478179598,0.10769135828451981,0.029071302705682287,-0.25161020209633395,5.284000934193859
-0.0352983889236001,2.5898264320295246,-0.30796802740084817,-0.1819063509156649,0.019048305556588305,-0.034603779680197906,-0.2340008276685799,5.3278765109981805
-0.014180936530706765,2.5759609663919427,-0.32557186744633515,-0.22025285270044842,0.032533183900486345,-0.04114392961516732,-0.26801218489018835,5.503183192384327
-0.002177160959458283,2.5302274065811696,-0.29249272136897303,-0.15397218154164652,0.14867587433705168,0.04280133190355693,-0.2492158527858637,5.373775382713985
-0.010362140677413164,2.606261295382273,-0.3141770627751913,-0.19391309340792715,0.07827331041797211,-0.012238984229486959,-0.2321793331029642,5.341970342463159
0.0052716980824410375,2.5829233656137,-0.313294014801929,-0.23956246335471718,0.06379101647776393,-0.059855176185772525,-0.27455683014565696,5.456426114556724
0.016404478594972818,2.578090218783652,-0.23225470447328736,-0.1328079839827109,0.13937190244793884,0.12616138851330572,-0.08644636875849054,5.298470256018899
-4.399938616184547E-4,2.5799962038004756,-0.30074115840476146,-0.12380478632721335,0.14520119658374814,0.11016774936101212,-0.13362014041230927,5.470728967499051
-0.019182708414210298,2.5751576089268227,-0.32938691420644967,-0.18307272027541913,0.03570857297920351,0.026598629626795822,-0.23206209636127992,5.595621305795889
0.01087341698145545,2.605257347017329,-0.19330984483947178,-0.11296676688958576,0.146572385785311,0.04786297301770328,-0.14957431061385415,5.4754283432479385
0.03907370473350771,2.6321300858152195,-0.2356323533495935,-0.11345445492736214,0.2068451445236859,0.11065874185074662,-0.04339275224336235,5.497130653785556
0.02244963650276332,2.6133722137911755,-0.25008456021362135,-0.09018872247083934,0.1876096646233742,0.051601419889273595,-0.1767742945211335,5.474502747608337
0.0034468029263276653,2.608078169166509,-0.23446699737952204,-0.125177053756381,0.11052240838812823,0.08497899137526992,-0.20628352497709798,5.592136294903
0.057090699086695014,2.5621878650603693,-0.20306234196307077,-0.05398116221965253,0.2373857140612268,0.17697482594854963,0.018704214603245246,5.315727362209891
0.041311091957958825,2.6119538135210534,-0.19329532887820297,-0.06419443235585787,0.24643471701730796,0.1271551902189876,-0.023098723503895746,5.436197736522554
0.0398763295290983,2.6258726762134823,-0.27294878086322083,-0.10949189114711957,0.11190953797249255,0.13879752405501927,-0.08500478739749708,5.518336084087315
0.05177137898370278,2.5864865722150254,-0.19019811393001249,-0.04607088079603114,0.17440958111823818,0.1170533307865731,-0.0029428007996865446,5.363988389680087
0.06341019738056768,2.627128222054195,-0.14926395531013584,-0.005505620795842344,0.17859800690657707,0.1931008867596143,0.0122136705295775,5.627686996666986
0.056875567958018305,2.658698081045882,-0.2114367536490103,-0.03793877242543856,0.194089284830092,0.13453951323291077,0.0023385515537153855,5.630280068093663
0.015557956628238216,2.597759586339096,-0.2567383595137344,-0.07786197120617101,0.12298988010379262,0.08652796313615338,-0.09170955632989648,5.49645558345444
0.08145114150029792,2.6152329108908066,-0.19942299455789733,-5.582534954687173E-4,0.2504560120804392,0.22032862904969905,0.02215886242891339,5.601293373243407
0.07541237473418805,2.653101660011421,-0.15151553636419898,-0.026640209799984816,0.20584759790307047,0.24683806711469816,0.07935385503652424,5.686884998664804
0.06262739440232581,2.5892809671680332,-0.19074175843743688,-0.06537193951341122,0.16551924958391293,0.14551528517958634,-0.02950786989727074,5.486007193446677
0.021015009554800495,2.58086711925199,-0.21905273546726403,-0.0526426885890068,0.17822637251593254,0.09462215530572451,-0.07272225715827708,5.411953180656649
0.07241099226674816,2.657579814175053,-0.14314923072414878,-0.024940517336769472,0.24827463118919804,0.23213762564823348,0.005059130866029919,5.505221415452239
0.04992345172734771,2.560132824991486,-0.16666443643800075,-0.0732092916302479,0.1956244526684747,0.16083439189725685,-0.0043320237034476915,5.483938055956219
0.02558316189539305,2.6525615067880475,-0.24848165112258466,-0.1262285261458236,0.12952044124622755,0.0874207616972336,-0.09310216909058917,5.240168285305255
0.03316262896137523,2.5554682622223983,-0.23203200689756331,-0.09233982474544575,0.1609083589125943,0.11116218954376042,-0.10563234412120932,5.252982690305245
0.046036706023779246,2.5657678333130716,-0.2282622172398472,-0.08125735355975565,0.18579599886849862,0.17498069327030513,-0.017234121782451293,5.306945447413247
0.04135338663030434,2.5809267594299206,-0.2172200030404612,-0.0880121731989941,0.14781539422965845,0.13349649027097404,-0.016048132156272488,5.515709186483203
-0.004175892389653672,2.5458700892186106,-0.27518769901674234,-0.14620046469982886,0.07088110329387762,-0.0026988085504190615,-0.19887343305911537,5.459785778001465
0.02415151958502548,2.566194840960798,-0.24631424142805697,-0.11373392248258833,0.13725500566745813,0.12080104156218534,-0.09189298218045387,5.373001442784635
0.026441851505729367,2.5841163837122454,-0.23215673824482175,-0.10899753180373192,0.13627102540513972,0.0643101184361921,-0.14558573810752207,5.40657066622012
-0.003805190738018064,2.594355571860788,-0.2930791535090549,-0.1743100189575538,0.06586345370304818,0.06737558876315837,-0.19301709394789576,5.692135874134947
-0.01781155610018354,2.610322741921909,-0.31689976272242376,-0.22398474134393098,0.026523780371628027,-0.10261105346561251,-0.25800193613350525,5.567067949245035
-0.0130566842750083,2.608827563016591,-0.2881869268972407,-0.1955153797117946,0.1406341941040105,0.004653406759591981,-0.12363683242829401,5.4009263266265215
-0.04529372304140216,2.6873495954433206,-0.3022517386979503,-0.22087151639864913,0.0690377062760042,0.029436169030000958,-0.21333146531330277,5.656623858995735
-0.022704165267914293,2.5982719223297606,-0.37642708511409484,-0.2810468918274265,-0.02378367414360338,-0.12134278386919582,-0.3064326621974025,5.419029504615896
-0.026516963667703435,2.6305276224682483,-0.35007384184481405,-0.23288189881849222,0.02635194446345908,-0.0578269617902177,-0.2309149574639382,5.531150461268303
-0.02967093301086602,2.6470677128107067,-0.3735619302485415,-0.2485304561191522,0.02668502199399146,-0.01012970155909856,-0.24487956082062715,5.650463823792593
-0.060689500010108956,2.576340800531757,-0.3851755774003527,-0.2849322024470298,-0.006086926442855576,-0.12119094666396849,-0.3004743738884505,5.624865487700351
-0.04904205924330015,2.528973834236513,-0.4030239082294958,-0.33821983550081824,-0.05879246176472875,-0.142694371175892,-0.3360220915008801,5.3859728869005075
-0.02954872662777763,2.654178819079879,-0.34945905188526605,-0.27235337858945047,0.059150709353893834,8.968212963326746E-4,-0.30802183042777614,5.680003790085266
-0.04081033164140989,2.5954931953193094,-0.3582416064905855,-0.29575438956848155,0.02064389974404946,-0.13137539641230153,-0.2930092863336872,5.540602640870317
-0.055310261655915495,2.626619554870896,-0.38546009569961676,-0.32426411706201064,-0.05689768887883197,-0.16258644479296402,-0.40980472094550324,5.531709668816648
-0.05275989275196725,2.49348162428434,-0.36992364702954805,-0.2873209491561013,-0.038067245855870034,-0.16200484875187635,-0.3540439089859055,5.325727016317663
-0.06339600016464218,2.5737016915627606,-0.3613060710651903,-0.3208935255315472,0.04831767836627518,-0.1320827554526378,-0.3473462545957125,5.652707637092916
-0.0632750556924809,2.6200740802080595,-0.3903273520098655,-0.3169090371838936,-0.03293907689112957,-0.19124268957216145,-0.39529963953687236,5.6200384307991955
-0.07567162937302596,2.5927315843733947,-0.4146677465369033,-0.35589185823408215,-0.09934434518809677,-0.18954843452940343,-0.42007268778021395,5.298855692273317
-0.032121843082682684,2.5823609143848745,-0.3708875932921108,-0.3074830304540306,0.03222528165562916,-0.10530306162009817,-0.3132105441979027,5.433618378686475
-0.06837121049865166,2.5844009275457753,-0.38171917419527657,-0.3361226513371669,-0.04234664005407924,-0.15235341350731318,-0.38497613201658964,5.498883630267056
-0.10196421903309377,2.592956841012864,-0.47174819678565333,-0.36274251809876124,-0.08405369017927408,-0.21125366480015728,-0.480223969027965,5.408917259907109
-0.06163674419983389,2.6537395296379156,-0.3591856984758929,-0.28699813754378617,0.00262896915780926,-0.1573115302147065,-0.37997487825563536,5.571903428969922
-0.0601402976031663,2.638679841837863,-0.40092582174128544,-0.32377049898823734,-0.02960845878604711,-0.17554475967168243,-0.3380434293279547,5.493185556449142
-0.09117704477816521,2.7274917761766093,-0.3857128660162323,-0.33413179374251706,-0.08026917707540521,-0.19158122239132247,-0.4280646534265903,5.461441394688273
-0.05919297944876358,2.629392287068938,-0.3941071913273532,-0.33811353057879545,-0.11649802691438281,-0.18464959463157196,-0.43598466135919467,5.470042048753537
-0.06956552738112864,2.6202819966812436,-0.38602279786222904,-0.3045770791794165,-0.07018234930624401,-0.15601495658115747,-0.36956677699096335,5.564503733760434
-0.09231978571131165,2.531353532552663,-0.4332257341417313,-0.3217850222672851,-0.06759117528777463,-0.23707515428956535,-0.43410841601357786,5.508484713429007
-0.10725641693108945,2.598668642562084,-0.4114462948440752,-0.34864221607893137,-0.1545749384096764,-0.2553438843640046,-0.517221423364114,5.5189976423157425
-0.05923191363934144,2.66437011673917,-0.3531384409362143,-0.32453994993495977,-0.018532809508812864,-0.18490294191950765,-0.4049417714892111,5.36572501256366
-0.07853279939655641,2.592958063572634,-0.37685324514988033,-0.3386255066488746,-0.08993967741998002,-0.16863284018175403,-0.40632351260236566,5.382044424680485
-0.0755049466546764,2.6898618141603716,-0.40815395997174236,-0.34761890445460053,-0.10995107264048629,-0.207493281077445,-0.497668502880736,5.420019715316252
-0.07394611910648959,2.614374629934629,-0.35681439459906633,-0.28350431857737957,0.0020584706222960577,-0.15728990733282494,-0.32480120033508114,5.5273518749597566
-0.05483897171475805,2.658021526172661,-0.35730151334171273,-0.32054541260355995,-0.08979373351261744,-0.17459374454712054,-0.37567246933231324,5.613291144293702
-0.07393333826632346,2.6414970572176713,-0.370647482032245,-0.3231634247049895,-0.13736842714874653,-0.23577970553188873,-0.44244799991930384,5.591925982612807
-0.05675558093490096,2.7376468899833926,-0.35248776468577847,-0.2871475451854115,-0.029381820205460724,-0.09189246590706432,-0.33728278275722884,5.692681264543856
-0.060450043055453685,2.6292024114104797,-0.3524110981678591,-0.260844958832046,0.006923792351987225,-0.13662867479991514,-0.36486563805531375,5.400895286517443
-0.04419076823177473,2.665811724849168,-0.3997702369981228,-0.2798218782875058,-0.06917349881419872,-0.1360209945793358,-0.3627825742863421,5.569551711279913
-0.03534303237546245,2.5672570567571698,-0.3731079286665527,-0.3116926462891874,-0.04481825277457775,-0.15014226247996834,-0.40297421135346,5.524298346287822
-0.022272749753391406,2.680009428759183,-0.3450827909482519,-0.2357127464793406,0.04502374885229063,-0.06009795128491402,-0.2578554476480934,5.457872502524926
-0.015577257912408816,2.6636183436023324,-0.3625948494341402,-0.2630037790045812,0.0032802521312427775,-0.09657611388461367,-0.3290755971280359,5.687026138460119
-0.0367840324917198,2.7244180163726948,-0.3909781046122405,-0.28345056968001786,-0.09049298152022787,-0.1587302360209444,-0.36848567516364283,5.632894122494569
-0.012633353571386865,2.6549726839865837,-0.35595356397829586,-0.23809358056378305,0.06140326804306228,0.010908024715319984,-0.21342327060626523,5.674853240645693
-0.02765044075292138,2.6698447054611467,-0.3460760254849839,-0.2563676374859197,0.026432010497795685,-0.05925064111764705,-0.2981614104380252,5.459224066779259
-0.0360053463946664,2.634433197707204,-0.3876896797988911,-0.2763510001096818,-0.059751648062396384,-0.13782714139569943,-0.33426532168271966,5.387493727439134
1.595780912244162E-4,2.6631747768555423,-0.3290445112816727,-0.23859090166866115,0.029071684935259107,-0.045028026183459836,-0.27440674094822703,5.417447440643759
-0.010662009631401482,2.6813573029283346,-0.3313569195788992,-0.22684306518043557,0.007890659552326715,-0.030867828458457303,-0.27487364364440386,5.564458681673341
-0.026798298145279106,2.711703436863738,-0.3825480390899084,-0.3068546003349686,-6.410139686761075E-4,-0.09019324464482432,-0.2685109693601293,5.527624203234651
-0.021926697186461067,2.610763262547948,-0.343561610548554,-0.23928368997896007,0.024710673525200653,-0.11028150979507083,-0.2941376758513459,5.513579201563161
-0.005114799930962953,2.6254072595880995,-0.33148924309593597,-0.23628269922285217,0.088102634269892,6.078765402787255E-4,-0.22102527278755343,5.281338887060512
-0.08352318258719821,2.698659631225731,-0.37497147066006103,-0.2831243434466484,-0.019157552607495,-0.0874779788648399,-0.24645693418996756,5.58695946811718
-0.033746308695529484,2.6207015201022745,-0.33780268476568953,-0.26339170970414044,0.031232526973339936,-0.07261627112098601,-0.2932248650536785,5.458651575962446
-0.006424907663663808,2.6104803009403152,-0.3485029219210647,-0.21896945143386085,0.07123150264568744,-0.005000745015450389,-0.22011974837763262,5.7097268635622
-9.609647429115838E-4,2.666790346907589,-0.3343672511930184,-0.2457041897926715,0.04909779969115406,-0.09775627006472971,-0.22475238237607326,5.580484799048168
-0.029935588387177005,2.6584871167315614,-0.38121436464483693,-0.23825506708773797,0.02340099702530624,-0.08174240733596091,-0.288910912758783,5.4852561816203345
0.00934842190082182,2.6300342305752293,-0.35583612261357256,-0.2264435799212495,0.11052701281318195,0.043237332015140045,-0.12714220041701862,5.367231258089567
0.011443089784072899,2.6541244347172586,-0.3333518127208595,-0.25755472772342836,0.08135840826374544,-0.017268438426676875,-0.18822895964136607,5.725685430557204
-0.020696626316218127,2.5540336951756846,-0.4036783346612948,-0.27409687233049007,0.05218402150249148,-0.08457941926919578,-0.19100237059863687,5.565284205422374
0.013227003534974205,2.6144100992980714,-0.3216004350666952,-0.2016772819854363,0.1900298919783377,0.08367653094501833,-0.07100568940989928,5.528851434861434
0.004104665326406686,2.6824736808632164,-0.3257077959369107,-0.2579456362671291,0.11723752531658985,0.06455040450618492,-0.1318757974833425,5.461513600716262
-0.021256253492374585,2.6344578815165147,-0.3709347286079999,-0.2651527254965496,0.0931091875236355,-0.005084567906509535,-0.1637746184654191,5.388508070285178
0.016449175682046256,2.6825264159576734,-0.3705890049102443,-0.20968542749652105,0.1026407786495543,0.054357911742205695,-0.10937633810451407,5.304974706935005
0.019676508947274223,2.599167546260187,-0.3073879357201177,-0.18470920444314556,0.1409868800571792,0.08554127510082436,-0.05222064857850115,5.399791577825336
0.005760331628872883,2.6690473280754303,-0.3327926999304769,-0.21532656295792307,0.11530752644787981,0.057989695330214155,-0.15216487920559169,5.515106383407901
-0.016560414815677806,2.714370550326285,-0.36772924070194984,-0.24131676850232456,0.07242217789706366,0.009171430774165865,-0.14039505690565238,5.482802633443907
0.019473364643284988,2.6272638684953153,-0.29636480541817173,-0.16479693581164995,0.1377735409123499,0.1366478432095594,-0.045898968260601976,5.489488941581882
0.010455380279416154,2.6465579259650096,-0.3085342078562104,-0.22322187987535214,0.12961010519231225,0.02935506228702079,-0.1273806680662909,5.6195494427689034
-0.0035621135980097337,2.667901803580441,-0.3407172707412125,-0.20497758407468417,0.0689667390951807,8.633055656421273E-4,-0.20641531630207188,5.554233273501158
0.027414781719876536,2.677586086928617,-0.28149139010123625,-0.17468169478525847,0.1775641605642374,0.06358916913333874,-0.08434324370374245,5.484301021227492
0.03156664169835648,2.6652068485020064,-0.3229326912913083,-0.14581626215111265,0.12121904747941481,0.057678047932242134,-0.1000643059903203,5.561209817064543
0.009574450228301478,2.6803368627005852,-0.33712307452186546,-0.20410524223847495,0.10621778349182022,-0.03010428795907551,-0.1940978615213771,5.557292787461642
0.0038734059294014407,2.7159539741177388,-0.3028151483999466,-0.14428749843688893,0.1830731486061842,0.09555182982882089,-0.1414778686284182,5.6390351527206635
0.02033703402828511,2.6754617124697178,-0.26976017285020726,-0.16368489034827913,0.1306077442983528,0.0890480199750164,-0.12369528538125665,5.613347009360591
0.014926267625939982,2.63495077286921,-0.3465517763861147,-0.13678060367046463,0.057333963692907886,0.01800938621731586,-0.16459075857672076,5.6619879569193845
0.019105226925272122,2.6936088466288894,-0.30622447548049225,-0.1620810807233608,0.15786476024743037,0.02003036842628237,-0.1043121243445918,5.467938833688327
0.055932972196457674,2.6631644220529056,-0.2562706020389511,-0.10089194849957463,0.15661439423912554,0.10580676323682182,-0.05070410982854009,5.480600372445843
0.04566886357994886,2.6327525737774646,-0.2611832858856064,-0.10508305157342084,0.11880836872026705,0.03799079571528708,-0.10972589223687844,5.804442401790899
0.05479120478513253,2.639204461882169,-0.24883259808117808,-0.10581711788429025,0.11309461081415198,0.03100600386136803,-0.16490570227464801,5.791707596780832
0.07064114859571742,2.615934605064331,-0.24139215998555846,-0.07070161840314464,0.18829923516993927,0.11704143550062107,-0.006791411825670099,5.560462087624188
0.06950520917138175,2.674748894239533,-0.23693028904392663,-0.09359825259559794,0.16601214996114655,0.06450537956144525,-0.11357598402627349,5.621069921562694
0.041270829463094905,2.6810285320224065,-0.26095563296025287,-0.1328073827869429,0.0832101324934983,0.012494801211329891,-0.22268775674581012,5.493725342548803
0.07517472072797855,2.686553379952981,-0.22482604793849068,-0.08919982261818116,0.13359483871268538,0.1529840827725237,-0.06558950609966396,5.677968896108619
0.056198379696537105,2.777996925275813,-0.2067031457299623,-0.06673361572538934,0.18163264579549832,0.08345243709794588,-0.03632134554864791,5.623760438556364
0.05669665767787674,2.686157973591661,-0.262476446227484,-0.09415954004642425,0.10669939791562327,0.07384685238482284,-0.1214520552786386,5.497927578280755
0.050258130966596135,2.6206126854773437,-0.233214369978603,-0.07647961915802694,0.14478996300787728,0.10050718684756905,-0.052157222415688986,5.197480091132597
0.027041623218284454,2.710783610521786,-0.2179852988147884,-0.03780637590647989,0.18856121715078994,0.12794136694489386,0.006248098196896626,5.6627162319463125
0.07618358909870253,2.652171996576028,-0.23621855920143164,-0.10086411891010028,0.09459676115611909,0.05866281414284132,-0.13289664344368943,5.573424632504548
0.03505380628159945,2.657779915868913,-0.23232618859953388,-0.07459605926938953,0.1180985441487554,0.03090815191122687,-0.14229277617539635,5.504244863106908
0.06899014707341951,2.673051527043284,-0.22988490190990174,-0.04652158402641905,0.22975136789903433,0.14184472956475522,-0.05425629879746743,5.240130566309882
0.03435704888374176,2.679031950986499,-0.2434518225910638,-0.12187434181416766,0.14062564614510611,0.09132110784471036,-0.1031573484423298,5.316807871449486
0.03618435078596014,2.6837943459368945,-0.27966958366892175,-0.12995807350135585,0.12975057650581198,0.0551589395529153,-0.14411799651379936,5.641773433790848
0.06842947510720324,2.6589848174478545,-0.26034931961753277,-0.0793382289019216,0.226161590657685,0.10612789290851005,-0.06345565399556656,5.591000111322773
0.032275082522360804,2.6652988950990046,-0.28352179874484057,-0.1434862009498668,0.13634408654412725,0.04989130084059345,-0.12347719187847783,5.434012484009105
0.030857842272255177,2.63808242819983,-0.29339176705276043,-0.1608288534838934,0.09792369209038919,-0.04405102549873688,-0.1704498404852194,5.422443175500814
0.05469271375971222,2.7421826768150526,-0.22865895562769883,-0.14060041710186988,0.17587550162800894,0.11284350794293242,-0.018718297680600033,5.68780497112166
0.03161988009721377,2.7160896023481254,-0.25660529343524785,-0.15394144565550413,0.1632558093000759,0.12047813840079481,-0.11265978398636775,5.5776130157055555
0.004080040901367874,2.6308452539965717,-0.2721760415249479,-0.21162268167925735,0.094142610916312,-0.02928541908076977,-0.2049290900505531,5.602532964917492
0.03987312967618164,2.6683144266375023,-0.2534571657243774,-0.1507808096324368,0.16510202063145435,0.09891031978004969,-0.021163109010103917,5.648595501036907
0.03547112008149028,2.727855231251815,-0.2743244633826358,-0.18520488836517318,0.17220711343583947,0.09937775964887431,-0.06321693215212201,5.600284967245618
0.013212672151303293,2.705803188972138,-0.2868797469836561,-0.16837504175485232,0.09254136559916785,0.011373976419956966,-0.16214163121076575,5.518673543112644
0.025168889916038915,2.707831932863963,-0.309367937357078,-0.1475232328894294,0.15099444134376608,0.08694457993083994,-0.11312403060938722,5.637155053006861
0.0267533316063619,2.7155066726149517,-0.298230647223076,-0.12691010777819084,0.20286754835591794,0.11767171039513652,-0.10938262483124096,5.776317249056644
0.013864070449462964,2.7379079870659755,-0.29537806960756113,-0.1615650258582096,0.12734698807527617,0.05125266881411459,-0.1714366303952738,5.517166721930086
0.019209245264968398,2.7058099785968737,-0.3094699649025778,-0.1765642978310984,0.13545692533449688,0.06754845657589781,-0.1540074030525351,5.426543802507936
0.035987086085349215,2.6574663137485484,-0.28484649678891444,-0.14370972213986846,0.23522254019750455,0.12555417941878097,0.005306554056407508,5.356687529940885
0.044401512401269744,2.641259227088157,-0.29172281287132745,-0.13884671749120975,0.17257415077838345,0.11198465969055912,-0.09150519187406536,5.721581163079729
0.030010690505659497,2.657802545526342,-0.31067833275668705,-0.17394270082363822,0.14266598140024014,0.003943579898626791,-0.1302538177538124,5.461414342452496
0.049431327975727336,2.6540447640820384,-0.25540193497932917,-0.13412813916193045,0.2286824788485088,0.1460136982664866,-0.015242978247524724,5.735508724652551
0.03622905430957958,2.6881611501539173,-0.2980428719602799,-0.12532703795252334,0.20904071842257177,0.12608011147561418,-0.07787321652677727,5.507320482616282
0.018432311546602975,2.621727891082098,-0.2958534854982379,-0.17674806694393908,0.1260214965435759,0.07008567685899487,-0.12274919711403343,5.64532524379126
0.0393536642462612,2.6855635263669653,-0.2980258717470275,-0.1442006340988839,0.23347340329968702,0.10834704200333464,-0.045306751222166736,5.504641055409599
0.05533568442878585,2.6875831594652073,-0.28644070111886916,-0.1588209760486325,0.1773035337299681,0.12349589706806287,-0.041357536332315765,5.593981577780376
0.01669584068466063,2.659284187019567,-0.30901369692729996,-0.18046774073947705,0.07756182600441734,0.05957187345148386,-0.10387357888571251,5.478856965506522
0.04077889050855745,2.6630863251408847,-0.3073120486314055,-0.15311783685092148,0.14526699760991116,0.04211865104428997,-0.10588679640746582,5.483086957390067
0.04152303118956642,2.6494809622442856,-0.27839608986030073,-0.15543145072591075,0.09583185986942937,0.09385376899638802,-0.08543215444578671,5.7652923952180934
0.02444145536766889,2.721669347037053,-0.2814670284206532,-0.17700604357311903,0.14459162493069605,0.015926461666640943,-0.10083397261805409,5.696053883201099
0.007024217854295415,2.7384898138608214,-0.34526816565351076,-0.21363303792193483,0.12282988974382772,0.03648181964560261,-0.11081025433377414,5.536573499716048
0.06253982862879601,2.63525975716162,-0.27126388348351615,-0.13481559240134225,0.19872413191117239,0.0831463883500633,-0.06611181144857874,5.503254811925732
0.03875399444133445,2.649936290227962,-0.28873646924746144,-0.18409100198668601,0.11816424992399738,0.0356253312774042,-0.1727943346722444,5.8195344149657995
0.01410370522127504,2.723316391844771,-0.2925847336387641,-0.20261502481997887,0.07705750061578169,0.007617261956951449,-0.2588303009927991,5.640516243876407
0.04237020871635974,2.6379049147187543,-0.2572643702120486,-0.1621466158961462,0.2410781757191988,0.11635613672252773,-0.04132874901033267,5.623879749345552
0.03419788420445948,2.6298796922073198,-0.27577064985157057,-0.11309782320016441,0.161209721388842,0.06430438887886253,-0.12302018276385467,5.6313359685931985
0.04046110108450144,2.726138680779967,-0.29350042386681535,-0.1977908584906418,0.10443102046129141,6.625256978478825E-4,-0.18907742514481243,5.9444666599807165
0.0546939434125963,2.7180068718322694,-0.2578102339011317,-0.13364796933664105,0.21680199678137613,0.15016566490703578,-0.015937224014921793,5.537925447527808
0.0317005486440668,2.6861585312832856,-0.27329379923039265,-0.1033969950299864,0.18261514379612276,0.1687386079257941,-0.07433809938154658,5.819273659515786
0.04758611925432121,2.7305169659375466,-0.2672001095141091,-0.1625823724090449,0.13814663603647645,0.07075672371578198,-0.1169774970301164,5.628676977263315
0.051542507612660604,2.665449315187481,-0.26328672232203526,-0.14388881463762102,0.14955804703150222,0.07930551692469232,-0.11258972853453446,5.460632163409052
0.06581482535746405,2.731903348625316,-0.2008926142974815,-0.10852476820549603,0.22447641902140514,0.1947852028451601,-0.05354871691161543,5.462205140602351
0.040895592479314645,2.638763789325789,-0.25611870007671794,-0.13026628443853444,0.18426068011791016,0.12539299435761275,-0.08574679154847062,5.586542820866844
0.051962665915907105,2.6443384843616666,-0.28420081344468007,-0.1384937419002267,0.15609340264635124,0.12501449130955614,-0.13581292305614268,5.58431207057635
0.06380640850586912,2.65410494116437,-0.225263520593128,-0.07844682702625241,0.27712795304512483,0.16587529771946039,0.07540610939496825,5.62596554535282
0.0524772553055556,2.67688128036327,-0.23042870981803829,-0.03627809151494916,0.25917119218554563,0.15482571825013935,-0.06532116630175296,5.816528856262705
0.07151452403530764,2.722705211127857,-0.24895125710370747,-0.11552410099050818,0.10155448040220848,0.09426502593216758,-0.1213237228256122,5.520237694455937
0.09163096374977552,2.690600305150594,-0.19935540294726603,-0.058236412400523525,0.2737440103663471,0.14269538729331505,-0.031798207207425495,5.786178197666381
0.07912570985025912,2.6964496479486435,-0.1923368927530649,-0.07019068919343341,0.2416164991828971,0.19292034844708345,-0.06587461599163169,5.5580482304708205
0.053142223824827806,2.6856833888965683,-0.21851076895456045,-0.1083007993947341,0.14207919341169167,0.0875345089399209,-0.08559685423054987,5.60608150884545
0.08303935405473226,2.665263631542601,-0.2145067478055844,-0.07803367600536153,0.1984596301416685,0.11137724445223911,-0.07475853321825564,5.468152313969273
0.08664073638370112,2.665771332492505,-0.2346288872492783,-0.08423276968146663,0.24376801339730028,0.15365230465383142,-0.029539205292636442,5.5553789258392925
0.07221037447654588,2.7634863279973274,-0.2541495159027868,-0.09467670886243218,0.215428894163709,0.14552351881447184,-0.08050912341752697,5.444346093418642
0.07849375546008289,2.701724171049864,-0.19599568512168097,-0.10400913472235222,0.21444864902833083,0.11833098893225752,-0.07081888312275891,5.716791780474254
0.09433026952195764,2.65670939013915,-0.18333945144778446,-0.03624999731607586,0.2730033019752692,0.24631066662812148,0.05898255138833527,5.635459329160351
0.08448404035747961,2.7246025118738006,-0.15393677794970945,-0.043175452821946285,0.2813591280123087,0.2186865663975148,-3.885670158615678E-4,5.597179509593211
0.0748034237268995,2.6564382418803354,-0.21087179350790256,-0.11378741633846647,0.17959398041974328,0.14076138150946813,-0.055867048811370376,5.691632057775854
0.09809104090420366,2.7094373415380475,-0.1871720506375188,-0.05816219301932606,0.30552508914192283,0.30413331601494525,0.09832083966116148,5.539154352083594
0.09902585232955581,2.6678932000166506,-0.2040685729984766,-0.04688582906978227,0.30060246573514493,0.239033877778184,0.014666946583487595,5.557497717763561
0.08545703058316453,2.719450442273375,-0.17226777757726025,-0.0800026963182311,0.26978468670392136,0.1735629515028667,-0.0012695750560981537,5.460792847419207
0.09088835117588223,2.717252384644645,-0.20633280562546505,-0.050977633938741274,0.2817679570964229,0.2089391349586613,0.01600075155141632,5.495818341862594
0.11076733136163046,2.737793997433126,-0.18545167007402144,-0.022382282912777215,0.31448709485792425,0.25005862363723624,0.037711654501254015,5.525919352494675
0.09631043139524838,2.676356700308656,-0.22531675428624004,-0.04533937242924461,0.28251992162698014,0.2252559993100308,-0.009641771187523396,5.704948217426926
0.07465557379579141,2.7314432266374395,-0.20174492161698881,-0.07969341857039275,0.19076349642347892,0.0879168227729156,-0.08124968220126202,5.744281394293426
0.10804462387612357,2.6618680181269663,-0.19142838960895175,-0.006989843653008678,0.28486540255543624,0.30509021591558844,0.026610538604698517,5.793554468982161
0.08524189652901597,2.7037694186268335,-0.1851409567505692,-0.027514797281330546,0.2599175208285082,0.19945446633779204,-0.027099944279364654,5.5948617922673645
0.09049067901019658,2.665473870333352,-0.25268368542351655,-0.06398719270180685,0.22395568728592352,0.07808568742103512,-0.06133112423226676,5.575360578169459
0.07816879147052504,2.6708490355965187,-0.2259643808755496,-0.03965197873897654,0.251313776413321,0.181971242915444,0.06635309678442054,5.651034145303991
0.08830796980774619,2.6941868518963505,-0.21164480816519038,-0.03364549889460875,0.2923623869926511,0.204131277321083,0.04038898076059034,5.418023615080712
0.06006037166287664,2.6771495719958445,-0.2642026736326937,-0.04529908009763695,0.22406209230407664,0.1637636503211915,0.020819292110316377,5.55115614630176
0.05511595239136056,2.702687517795514,-0.2408206645006739,-0.062042563777470895,0.19575119623408935,0.17403981232694657,-0.058794489908247094,5.640565915342714
0.0816161889318094,2.687770338829841,-0.22626846158936603,-0.0205028352268528,0.2602626755575448,0.2510922876597273,0.020924042711402267,5.659197401163481
0.06908359225469309,2.732699905840532,-0.23965727771993225,-0.07079082442277448,0.26349264552936746,0.20599674354914,0.0018877695715052705,5.651983977583123
0.03937947834716838,2.7158312376046667,-0.2468810086238649,-0.0997404586176493,0.2207518947089376,0.12531912463217768,-0.07639735418089041,5.388319586325411
0.049972386586565845,2.758178097133991,-0.20480579139668922,-0.02299501086708707,0.3460920025215317,0.2614454866730459,-0.004253248780620392,5.816614007378574
0.07170430613992693,2.6315482899194036,-0.20966146858772078,-0.032527804114298176,0.34556695520870917,0.22115239861062524,0.06107029154131149,5.8412104328257834
0.047037956731042704,2.6888223995869502,-0.22262738766595386,-0.09417105675505223,0.23145767552018126,0.16918615490409963,0.0014603657131058844,5.696127372598721
0.032977785927348055,2.7663205365604258,-0.25550307926292354,-0.09114525647630912,0.2385047835540248,0.1183042281701929,-0.05363409647203502,5.7303638288028145
0.08802196547326187,2.676265053016612,-0.19073537308199967,-0.05160796202412057,0.31250510766460265,0.25301156282887205,0.03793078873353625,5.668844764604802
0.07529683598350165,2.6536203941540215,-0.24329542991932376,-0.0374892830038423,0.26662831935839554,0.21990300509831368,0.06196015996116949,5.695947364741576
0.04388985681584403,2.6933306228846474,-0.2718892490635588,-0.1077831457209673,0.21596943488975326,0.15847531343583507,-0.08073943542940351,5.6107740767818415
0.06342798689979405,2.6981084117498386,-0.21058250727120706,-0.037080845498557474,0.31560107924378417,0.24537058710665238,0.07574915433435943,5.700650532449432
0.06857230355850374,2.7319868532885114,-0.16738431287012118,-0.03815001159398999,0.29557098510969243,0.24224228878201837,-0.038683761474228,5.777511900746394
0.05231055234307384,2.6101006265584137,-0.2577097845232969,-0.026385160596455685,0.2413482495040948,0.23979174873452666,0.009119640651980862,5.602698591169266
0.05914057875885554,2.748476674683568,-0.1999189330711111,-0.04895698751205081,0.26223350274885576,0.20628941277638183,-0.039657046379005294,5.611955208755032
0.08187951845669893,2.6645098055757384,-0.16701138591502618,0.020969693107873142,0.28541220485697527,0.25211303630475024,0.034973545552789455,5.521805351551431
0.06889315222684515,2.6256678954588226,-0.1861801123870817,0.012030979880171619,0.26229094114354307,0.22943695695269642,0.02700625240550426,5.707128906805673
0.05374562880681813,2.705283823310934,-0.22191259276894848,-0.0640048244092852,0.21658884431831016,0.18322229098432932,-0.04026617889066169,5.70214212910085
0.08216843167402453,2.722870097669073,-0.16814735196724975,0.01018904137774141,0.3158336471797478,0.25422185538901254,0.048569528201971475,5.661665840064488
0.07372521669484587,2.7043246903513882,-0.16705690479192847,-0.02273568473265053,0.2857180999799052,0.26725362554184257,0.11618097271493509,5.50933385015558
0.04613588993331485,2.6778994972838692,-0.20399032243755164,-0.04415637660039614,0.20728589512652665,0.18553083541777243,-0.02837219445294565,5.634148364891217
0.0730167139536426,2.688197779445889,-0.19423875688368353,0.0015533403860547804,0.2612920192301061,0.26867363030316044,0.06169742633290141,5.256539735498496
0.10692508091556341,2.728096767267991,-0.13898614231570977,0.01926618469268194,0.35042937442225036,0.3325924328940596,0.11676542077749989,5.781444050005998
0.08148420731672452,2.7317374381398793,-0.19536273199131005,-0.0019942330742114918,0.29860727113739544,0.27059314474532503,0.0761117662486711,5.588880471355186
0.055550970989683104,2.6689737157810938,-0.17761988934888456,-0.015172035438062252,0.24074753146669126,0.16714169326727496,-0.00255105714992661,5.794826770914577
0.10964758948771312,2.725493258838348,-0.14705526585457226,0.04681974888876338,0.39782776487987387,0.33166393695230834,0.12752850686444156,5.667611699789836
0.09327040009360979,2.7467019317305894,-0.1519262197418869,-0.015346403680586979,0.30810850906474596,0.32142301805199147,0.12235135823935311,5.5960827674257265
0.07012924498990568,2.7179195347831993,-0.17429110509645077,-0.016448898542356406,0.2766433564483815,0.26483853791071055,0.02153801073635863,5.545920552016637
0.09665017610682944,2.6888520726430567,-0.14508188145993403,-0.00698286846770994,0.2903669046821399,0.278884742274758,0.06941625308487524,5.6276663775293665
0.13780865138000414,2.6944565746367735,-0.12698469876734972,0.01881834996547394,0.33445329400635304,0.3125323592558043,0.1535397452962606,5.462136335490749
0.12130137874680859,2.743396473044356,-0.17009696683921027,0.009303336551493369,0.3353120329879989,0.25809054673174664,0.10045609980726289,5.758902493302089
0.08202171616250349,2.792526006203084,-0.16244706884023755,-0.03154225279516376,0.23562934834063276,0.23890505425926886,0.03579950017327311,5.5352819264051325
0.12417490882729013,2.670392328738743,-0.13859250520019015,0.040517838806400426,0.3762320588091212,0.3310728919182876,0.14456953994387942,5.734562674335689
0.1112260926305933,2.7964099921666437,-0.1722690255227666,0.012785461420002241,0.34826810034842853,0.26290471878539245,0.03383147221145916,5.747222941981554
0.07243643516636492,2.7244839684107744,-0.1826115786179394,-0.06859877414857908,0.24800642305748713,0.2080209577850283,0.0029904707853530025,5.76360422476658
0.09450372814345981,2.724966855873431,-0.1754327796851153,-7.665578012095821E-4,0.32725918855083824,0.30262749924102417,0.08738330565800834,5.803850736410192
0.1141607801952381,2.7504050846968147,-0.19447496106380216,0.0077379333716697364,0.314903066122604,0.30323330820577626,0.115404319828872,5.7038522121785045
0.07173214012067303,2.70834408453981,-0.18351784243630395,-0.037821427967542565,0.2669353389812908,0.23563398188229043,0.028367102388254534,5.736811315185535
0.08308965878266142,2.657455957816605,-0.20328240469249734,-0.05429138104045118,0.22474140785426625,0.1792323728173128,0.00808964080421318,5.39749449249591
0.09760445370555902,2.724007352447675,-0.1681932858689123,-0.028357340121689507,0.3528426065405194,0.32656061923922064,0.08799728489831005,5.578521373276034
0.08588524243978038,2.704981493002425,-0.20260753892409591,-0.0319822100781726,0.33108298403716657,0.2672984537401918,0.058318140685716724,5.745847422561089
0.0820958062262435,2.763350666818332,-0.21315650563922256,-0.06612219147101306,0.23126148987858278,0.24262235582783395,0.05906931819081866,5.878363347133178
0.09248319161520407,2.7492663223392513,-0.1793973872769222,-0.03594423403853756,0.3278031581285849,0.30379397749286785,0.12819600518738275,5.909617012494087
0.1013119367891105,2.788919668581623,-0.19005897850954775,-0.009336354330741056,0.3405669781918559,0.29136775129872294,0.10864327228465656,5.681879862584803
0.09162242417345388,2.698730042251536,-0.2034267642994823,-0.039857638493597206,0.3003310862205491,0.23661752686081322,0.06191302588709612,5.84306581614543
0.08078443296534196,2.701585239638375,-0.22676150982905988,-0.07220028309719494,0.2563529331658537,0.27508939802018156,-0.02233966008290106,5.585453774751873
0.11074341207971987,2.7019966473838775,-0.1774380772890324,-0.025853341656720822,0.41574740451199943,0.34942289265443227,0.13384503483074445,5.681145159781385
0.08762718521890824,2.720749096589406,-0.19741442567261291,-0.04869027552883209,0.3442147918478718,0.2658135097275622,0.06652253606468554,5.899178687391849
0.06699199226725819,2.749481045182801,-0.2236507015674543,-0.05424556064512832,0.3036500449502919,0.19705645295335059,0.01923102110460498,5.661051540256639
0.09234182682546029,2.7257771784559677,-0.1977452384276175,-0.041988991320990904,0.36728251295241304,0.3575025985445154,0.1361109536050605,5.515478598171521
0.09390650118834781,2.7514257885798825,-0.15373394331031506,0.004128950600317199,0.29562835540070137,0.2740406446335151,0.09807290887556765,5.585050890934999
0.055739912358734545,2.757390106780099,-0.20457442448856225,-0.04492365320331262,0.30107739743623274,0.26482330000982485,0.05506307169459081,5.74185139880221
0.08337867452901669,2.6312204982396072,-0.21000628452887848,-0.03772890983680241,0.34035727454619485,0.3017622122403478,0.02298607091337373,5.601056138023391
0.10340260798874094,2.750241515225381,-0.1742242298767409,0.021951856744857584,0.37060400927425585,0.3381159749707673,0.18345685924217087,5.508353937099997
0.11307078182796068,2.7185005909027424,-0.18884916594738307,0.014621152777630377,0.328442274205801,0.28820939528201,0.10680443312930689,5.608236930733846
0.0777669592061196,2.7720502074722564,-0.2118751832660615,-0.06653669130088795,0.29168699276890797,0.21764826468726922,0.05011139157944519,5.643311392896605
0.08573381832917105,2.715778080455634,-0.16622586361950117,-0.00775262646037324,0.4248565699951483,0.43611706404894013,0.18202768186606239,5.640172791115986
0.10976466776356106,2.8039883650600284,-0.1556756077645971,0.0368578211242897,0.39626512406476444,0.3505661953226604,0.14611412559449052,5.618811898079868
0.07426153266036008,2.7633864300257005,-0.19332359806006666,-0.054551935743092056,0.33081753987529067,0.25276934187580136,0.04804819512409064,5.597563271296389
0.09718967614553897,2.760121940789891,-0.15193676136932882,-0.015747245758449022,0.4143212148337489,0.33189169336803614,0.08526339209525988,5.643608265238132
0.09675159025305832,2.761661630076375,-0.15066083115744028,-0.0027428163801744634,0.38734561754282687,0.3478794584884016,0.15136264613586145,5.623216256236714
0.07667574067537443,2.7534669515155956,-0.18255094191855556,0.005883530727587448,0.30896940512536814,0.29514277206570216,0.10539599031279084,5.479890262027376
0.057636077168010606,2.8329172033618564,-0.1832631853292956,-0.03790257379670588,0.31846939717587514,0.2959676408586224,0.029843467874016625,5.575206802793852
0.11564272899767838,2.7417742127429188,-0.14768149379190118,0.03827034837739267,0.38142470457262234,0.3711432824458691,0.12314960895885478,5.773213766048124
0.09224312061288341,2.7565803417900714,-0.13463042582189436,0.01401308563270165,0.3355158495211592,0.27511151785730864,0.13383138342619405,5.46347977346649
0.08768963122430408,2.731365208603182,-0.18393789359322477,-0.018123256281975166,0.28899800437983897,0.2411378144685519,0.010251316863254074,5.7778810214154355
0.09257649632430029,2.741274975608672,-0.18781716538075646,0.018803854088773057,0.3989705717348247,0.3169265108406735,0.13458648334936307,5.882223321230312
0.08310795301094745,2.725221503759234,-0.17398073663481622,-0.018290508049642596,0.35643265488068304,0.29488774924433914,0.059594780885592634,5.738920143355533
0.09352598087371808,2.7772690300074934,-0.1874602136850569,-0.0024610488734346353,0.2803282528768967,0.2529095538495876,0.04704419995047702,5.756538627910908
0.09213658212936732,2.719562521008863,-0.15970950422043018,0.009116682513150141,0.2984413713238987,0.293840124119874,0.059894514820699386,5.723739937705931
0.11068449696941735,2.7860422872470756,-0.14327772995691568,0.010357123895515158,0.40097246437494416,0.3473548677744585,0.12622861715125935,5.717148776885016
0.07131594613641135,2.740844202243046,-0.14608313293449993,-0.016202678618792696,0.3130698890899907,0.3067975929474128,0.14200219712697684,5.831357247860852
0.07906224505335079,2.7699252593193564,-0.19866920570915586,-0.010877942049580293,0.3152479453562633,0.2870487821863661,0.04700218680947774,5.731314007202241
0.12546172652503004,2.7758946968725646,-0.13844826052718462,0.03468309935268354,0.46084520405649015,0.38053107070745495,0.17511486716222865,5.634507005086235
0.1232310206458805,2.756182004459157,-0.16558803709669354,-0.010697652628226568,0.3702863838898632,0.351985331705289,0.11762244771904566,5.820425032264594
0.08724970333380698,2.7687443993864007,-0.17196544174512976,-0.0018473100817869017,0.29938352252069855,0.3132636920120752,0.07893090701116548,5.570511898847511
0.12864171590160836,2.782097216456671,-0.12647095143520026,0.039138667327684944,0.38191781534874747,0.3550768008883181,0.20931138450902753,5.767047089822464
0.1097950542047997,2.7446657571257433,-0.1512229081089732,0.02126245870254588,0.4043359805939984,0.4035868040863392,0.10389118603293082,5.405902937607859
0.108127333384848,2.7945346417754418,-0.18312851596410415,0.013459148338785712,0.389276735047073,0.3145616887953478,0.05150466206318945,5.7804081009147446
0.117121435687611,2.7800080770591538,-0.12867696080585797,0.047051753744302406,0.39129540607571417,0.3443156449374948,0.07707235529229725,5.5387446878674576
0.13389632729459655,2.745067259155799,-0.1461221983593286,0.054616700172660404,0.4059335907534661,0.3922994921608121,0.18483744257194612,5.989960120206798
0.11900461352245988,2.826148650020497,-0.17324184465905187,0.01577038617397032,0.37413856564573506,0.36192321501773955,0.14662195056178748,5.685750504873662
0.1137305540054457,2.7311055062506595,-0.1637501939569403,-0.006699646555268001,0.32623809061161585,0.2979261591944947,0.10646536734018242,5.6673639144009265
0.13392389860631282,2.7741316167723093,-0.13808199721170128,0.043925189912809956,0.4533025478784433,0.4008986997029048,0.1813654564171117,5.443451239926836
0.10692549057133512,2.716653805992459,-0.1350060345801213,0.03386183311970614,0.36140861388593043,0.4106786726681472,0.17995911190054545,5.756144080354033
0.09717313180879064,2.7404775188947097,-0.1704604921172215,-0.011891864378359476,0.34990093474706135,0.2991596794919513,0.12245037348497062,5.689772646113878
0.1302790821274599,2.806120375847649,-0.09242739756833329,0.022828316854953682,0.41425995520487585,0.361271291776231,0.13903265962525863,5.811900652077817
0.13255427639152204,2.762144188139102,-0.1605906322510984,0.055939657253959635,0.422587641075842,0.37338034054918123,0.17533022269554158,5.6002780978585704
0.10535837355542352,2.7442556239743996,-0.15350322611284642,-0.002875085385759512,0.367578673690782,0.3043875439042847,0.09452645695606773,5.622191246592566
0.11635173910667518,2.747670572937772,-0.1820605067012867,-0.01803550322184994,0.34528408553485174,0.31690174919765945,0.11122396893293522,5.555594138751768
0.13276925850385565,2.7736898020450407,-0.16240252867959004,0.029786319342200374,0.451714472077575,0.41860972365791227,0.23370779261336097,5.810165805253299
0.08943415739677116,2.8865439347829276,-0.16169600199702588,-0.014205866996743212,0.41140372807299014,0.3241468945285346,0.132957968612005,5.706861259603717
0.09410878686876747,2.7544458778576795,-0.17724306363129436,-0.05455579095862485,0.35218467682835114,0.25298557711161146,0.04196233424262162,5.900277269470447
0.1143504241571687,2.711415301508996,-0.20527912046825184,0.010532089738135905,0.4183524509596006,0.42937591873802494,0.1896662167125685,5.835197959780498
0.08293393604477826,2.778021350295849,-0.16300405463390163,0.028979802867051128,0.4589107369561786,0.33548114944924295,0.15982467328849695,5.900744819529342
0.10856669480942371,2.7595358734795354,-0.18345382410312738,-0.040417836105829906,0.35228125693485346,0.27951992365458983,0.022524961743908476,5.927655080992632
0.089633180298026,2.7653346981691675,-0.19710116488158058,-0.026319933842427756,0.39001329644752697,0.2985035548279962,0.047163130578679685,5.795438662996715
0.09964399791978491,2.829053335672006,-0.1433023968305827,-0.0037483232713507782,0.4488630333065896,0.39728138381560085,0.11872136638358062,5.8623230826080395
0.10387597488083451,2.7142557393582667,-0.19381539702700445,-0.027956451234003383,0.3782249619921243,0.3381276912376565,0.1381508606576355,5.904932628075478
0.07383472761056822,2.7780278651557504,-0.21331268829333488,-0.08008239738015882,0.2966799339799557,0.2293205612061811,0.011695113268778468,5.684941271791847
0.0975701626760889,2.7804620719297493,-0.1662731499790942,-0.02281157409133986,0.427986689778649,0.3644017924353587,0.1049974214755825,5.93497431020009
0.09569576092813697,2.771689367773178,-0.19485850224891046,-0.057703316472304714,0.3550080861901256,0.3628918992154563,0.08391289432089713,5.8179672768948905
0.06843366735421656,2.8143086780769915,-0.21759657358775786,-0.1034392182243186,0.32672178671898944,0.23720370428917537,-0.012101777992862767,5.880411626808898
0.08413727288267239,2.705774765786659,-0.22516383911156057,-0.05764268291525294,0.33072183112239817,0.3438368312968258,0.09314496453761205,5.717919597085367
0.10327903162528587,2.8308737259786616,-0.19242605620715694,-0.0250966954269957,0.41547103991688583,0.36149542812766117,0.09738578565070634,5.868419583356621
0.09632930296472109,2.800042390099941,-0.19952993311797376,-0.06816831971637966,0.33327203203775974,0.27149463972505794,0.08149424359131252,5.919715501539961
0.07144750665520472,2.756611837720802,-0.20715791444014517,-0.10277640714349356,0.32148294150204376,0.2151235697823098,-0.011700412887665693,5.820065011525884
0.10505837470695586,2.7767983776268346,-0.17143041045737334,-0.020682818954987667,0.42325486718150784,0.36633814619324906,0.06720464987120925,5.76385156537731
0.07008451486550774,2.7566914307612187,-0.16739575823540737,-0.047140471260706765,0.3679349847294276,0.2866227559299022,0.13179464621039502,5.647450853206718
0.05301084970354727,2.7737474845145527,-0.23068618486774176,-0.07920449797476875,0.26387227439203353,0.21448003791077064,-0.005978279600993309,5.941189293387866
0.08019636008785092,2.7590867242845993,-0.20600747006213885,-0.027222432303964615,0.34046330299387834,0.31364600910202584,0.0871737677655119,5.948618325456517
0.08072532542399065,2.765337425150236,-0.18654199168482047,4.630471726350861E-4,0.41546560334507704,0.3740495663292803,0.12197289030617553,5.760784106013441
0.08409059222630194,2.772612132954034,-0.2094658745652925,-0.06544199076746808,0.3214552923184381,0.3055972458222478,0.07969786990941874,5.38184067748309
0.03695098606138489,2.7645401927930173,-0.261758449410809,-0.07155075051041611,0.27725372048533103,0.19840072939175474,-0.03277103204212804,5.600436044760395
0.09081309487517958,2.8549725903998486,-0.21674624067785525,-0.01852943094875057,0.4089092780237221,0.3617798285817963,0.13534167218086363,5.759922817468722
0.053260262369091885,2.8759145672061077,-0.24127255788824656,-0.03899299163682152,0.325693563650148,0.25684063374595284,0.02848215930066146,5.77136478095686
0.07239562281492436,2.83256186502676,-0.26511054679706536,-0.0754353885204732,0.2490813974390235,0.17445775545497275,-0.05277769438090642,5.743102377057719
0.0641804379461927,2.866501590551645,-0.23540947983917734,-0.06902466895704255,0.2610675840309132,0.26212699363713865,-0.009378127908505592,5.660339796945154
0.08687845249765455,2.8044803454109424,-0.19023091740280623,-0.05493371465614923,0.34013117922171815,0.29531637341929673,0.01994032622838923,5.8131329766351225
0.03714319418994526,2.8084404424385245,-0.20799588875450958,-0.03937815072991065,0.29457945928757173,0.261701336159556,-0.03012944008547854,5.8892414598964296
0.04134831266942402,2.746495744909398,-0.2810607542343881,-0.09122744346635243,0.1547145901320751,0.15030718244978317,-0.01869105652068885,5.644430734278022
0.06860735950814427,2.7238154446054894,-0.22788392347870234,-0.04365512852705072,0.366664352634874,0.2971590356759798,0.1535415358592365,5.66698128506483
0.07599559522748474,2.8679347963134223,-0.24983615818701102,-0.09659451565145255,0.28593592912158544,0.28053546954879227,-0.0019920591851727287,5.640236445427953
0.05227227539055889,2.8343018215769558,-0.2559265103556405,-0.1096034874311009,0.18325447671311246,0.1524212636348202,-0.06927476842363811,5.898053197537368
0.07309368600641958,2.8429720958520286,-0.25545462174716665,-0.05077963435555328,0.25770406297483855,0.21158866057132916,0.030891490513572453,5.771089781438071
0.061314551754521156,2.783535241685795,-0.26039024547051803,-0.08839194141699354,0.30320643304836353,0.2614682482463868,0.03973689286588875,5.85866736697578
0.06577575445952429,2.777535426866518,-0.27459757584852595,-0.07955439170814269,0.1851018829671462,0.19618950295609036,-0.036801307311072465,5.5754880675245815
0.04963218003623306,2.8285069048629556,-0.22866758440684395,-0.11339398898549373,0.15372314909870136,0.134252260715475,-0.09591967195308997,5.805590033667842
0.09438152902956926,2.831963932502545,-0.22550125445746003,-0.06973426648021637,0.3119270199794868,0.2967999158693934,0.0394398487409607,5.705543514726209
0.08005585960378307,2.810573459078451,-0.25047135856489994,-0.09140365120064282,0.24292001147890369,0.20990931926477102,0.001520040721818632,5.979472659580446
0.03263608782722992,2.7548401742719433,-0.28373352144392533,-0.15534065740568703,0.17539700152620255,0.12858272576905086,-0.1143944879757436,5.870258242938338
0.08027553122085541,2.7755808888945017,-0.26448418168526966,-0.10469209495976287,0.2211499586781571,0.22955030262602455,0.004644110388591978,5.813587739749727
0.062172894795394604,2.7695232298842876,-0.21976819652413526,-0.08534668016137592,0.3066167136553214,0.2618899877070992,0.01544423768349587,5.559677134875588
0.060238541037785996,2.8307216399204136,-0.21904429395551092,-0.12543414716082296,0.18711935618390674,0.1999738167714455,-0.03173203766314922,5.887646759269473
0.03126923564141135,2.7977300700385594,-0.2758989331833415,-0.1168520521860907,0.14617106933241555,0.15224359800670217,-0.09316816747341786,5.57514962578975
0.08051817003417944,2.7376527958359054,-0.21551609962393203,-0.09005881062284164,0.27025193370270906,0.2425437875051656,-0.030380503544413122,5.842926005568977
0.04244136700394614,2.811565616577734,-0.2667894838402314,-0.12078883835307354,0.2529430567496026,0.1322484394665885,-0.028479865731008667,5.766387215946165
0.02898122883202853,2.7991893695688432,-0.29215902609860367,-0.18342347604616926,0.1255873524492974,0.1599478147260927,-0.16828059197752096,5.689061216507337
0.0638023987971271,2.8920167970493464,-0.25401065111745214,-0.11546500517726259,0.23136602914840523,0.221143916863263,-0.02031215478889162,5.913894240174588
0.0590217716786058,2.8070291732114527,-0.26824048293089336,-0.1205319777848701,0.24294751125825353,0.18315444828178917,0.04772134768385561,6.028873133751427
0.040720473776583846,2.8329430823278883,-0.28292003258875975,-0.15388026568720228,0.1317094824049558,0.16176173096871363,-0.09312437464902294,5.937724690188832
0.02453992523671515,2.8157503001908184,-0.2767118717454494,-0.16985723702849334,0.15729351539408074,0.18483973102166013,-0.10603555334877747,5.809353068077889
0.04017747678730926,2.7877081889112416,-0.22739429638024666,-0.09118171617257535,0.22203844332131026,0.2616632122650809,-0.03336560553300797,5.861729169835299
0.0387987022768433,2.897127917884487,-0.26565057115902524,-0.11341072367408517,0.21594728738225882,0.21958936919012711,-0.029061849192740342,5.810871269491519
0.023398832971019596,2.887089940147515,-0.3068376268941815,-0.14931548738141368,0.13821475535801298,0.0875266494452932,-0.11613193729510056,6.046203027516992
0.06423038038381976,2.7852409568084893,-0.2575964664375318,-0.06036616699991906,0.28040283242315517,0.2638824561078904,0.07404240572798144,5.88219431816209
0.05048104536555224,2.8168380755670333,-0.2538549254460345,-0.113719430895317,0.22060597551008213,0.16355054028423135,-0.0420990857357344,5.68338801172155
0.03048216042401125,2.783257348448524,-0.29123824507727214,-0.1392548110805281,0.13492685467326002,0.12908932627006792,-0.17264906700153798,5.785308050176527
0.04119156289970337,2.8403937123398415,-0.2504281692360156,-0.12697250313874198,0.23770674918344026,0.15410503643567908,-0.030406797548283897,5.752663492448405
0.05674086168047757,2.822998898369968,-0.2567679109283079,-0.07815447325335169,0.2719243385716748,0.28021582684908763,0.016688866018878354,5.686002265271226
0.023615909066358742,2.832217242707043,-0.2984813824318636,-0.1513649359963546,0.17346990988338093,0.17032915783907804,-0.05576988565435089,5.889861048774853
0.013334530254593798,2.8054339955134884,-0.29594230422879053,-0.1509014474735521,0.15694536750049773,0.0930801815320151,-0.1585396432261098,5.742532930935893
0.05780691045352622,2.8187864943492844,-0.2558614900973443,-0.0990448900129907,0.21046809016793327,0.18911066008226526,-0.007124313597428507,5.813902264300888
0.02706173142401346,2.7515939058640897,-0.2828146368933928,-0.14075386264140197,0.21772548350919288,0.13754875867379016,-0.034586332055229436,5.988214480680606
0.021231223638961273,2.7681556294389686,-0.30403358878603354,-0.17911955335485508,0.1284932818048856,0.09819699339709259,-0.12317959515533766,5.916530691268576
0.050910533924349195,2.8519785774537416,-0.2516030173286974,-0.12350384334103835,0.20994728861413353,0.15403447905113327,-0.12399313493593883,5.886044246388009
0.04251421268867275,2.868878679766232,-0.26536890662297147,-0.1452792562001739,0.1603777963258081,0.14883419162365116,-0.09524799478818934,6.054902082208792
0.015969990027786866,2.8971330566413034,-0.3038140323209177,-0.14489640823125446,0.1531130748281455,0.08488680398042985,-0.15797122142826467,5.659197335944879
0.011159573118597495,2.817801146141356,-0.32737970443432474,-0.18269183034377798,0.10088219901452262,0.0594034694602021,-0.15502072641033007,5.804748643038152
0.05362572638077352,2.7954596009540915,-0.25751813321002465,-0.125012367299171,0.2337290691916727,0.21300264373692102,-0.10571019629685806,5.796285463023004
0.024537626558216757,2.84982328489276,-0.2887222181309377,-0.1358075146935542,0.18013309880281067,0.09985751814989001,-0.1455365551503928,5.862258741372287
0.02375354599979972,2.8093485346771674,-0.3278099803382875,-0.16009012912894935,0.12736599558225906,0.08266112020573012,-0.21434438145637982,5.531745498889401
0.03469411847575028,2.7957289300385497,-0.2501568859646501,-0.11994533909530204,0.3024797203691688,0.17751103757716571,-0.033693097482520265,5.900986649592888
0.041832870500527294,2.82458621661121,-0.2680376775808154,-0.14640477621398046,0.22666277885408673,0.20019056899258977,-0.06075112271030136,5.772054571567291
0.035281502044108036,2.738664647162848,-0.28047899354469397,-0.14978860606499045,0.18461408211408906,0.10061427660098751,-0.14027022703291864,5.760021094483407
0.028362397513814353,2.837400480849899,-0.3002430764667534,-0.1452112618524441,0.14621290844472776,0.14231784262511477,-0.13939331252224,5.710712354425546
0.05850545433271758,2.8568431260327127,-0.2795436053372688,-0.08480364926844279,0.2424755663629116,0.12119032660542482,-0.04635978900706741,5.914801647196892
0.04762442781122289,2.883872079909304,-0.2312589808290448,-0.14692492626686426,0.1897151296273723,0.11315744752321046,-0.1097409022068713,6.045091292303011
0.0252976524667857,2.793003588904826,-0.29850202460620656,-0.14571717471277834,0.10747296132935392,0.06837822726660586,-0.21291646254089294,5.660972570838661
0.05979001516062331,2.783562298894087,-0.26433769829238424,-0.09106610505163125,0.2117666733044248,0.18832565913773638,-0.07337425071247633,5.945206038039567
0.05332065855690462,2.876702960144113,-0.2589084500733555,-0.0914880608474786,0.1858903667778517,0.1261841260628181,-0.08231092041099371,5.923606078790392
0.030560659396639697,2.8303308946517327,-0.27517520656076183,-0.1401317116168328,0.0865314858820928,0.07543757999639253,-0.14244623809390614,5.744125673254561
0.08021964575535112,2.814666264924829,-0.22528967054490057,-0.12073008123350398,0.20301084480458473,0.14080815276374511,-0.07894419317813119,5.633746612566944
0.02352958279071355,2.741058005063476,-0.2573391279281544,-0.11435120004715861,0.19739073805829185,0.19407015438756936,-0.009003778868820997,5.617033419817728
0.05344264579970488,2.791760412062367,-0.33199750079395485,-0.14936303402209775,0.1561922451098836,0.10720949627468288,-0.16776473776374615,5.592924620643406
0.041566350964022475,2.8334116487801073,-0.2718552341479381,-0.16360109560827918,0.1345514436803549,0.09481890555579417,-0.13729109711011933,5.827601881444105
0.07607948599744643,2.843689337962131,-0.2637893708606955,-0.08643934511824179,0.24302368436131572,0.1397476196472957,-0.02154477270426595,5.67759751228648
0.049240098683124886,2.8242668095371006,-0.25964979887841133,-0.1300072861700712,0.1527072966800733,0.15786987153798235,-0.125927272376233,5.825667034365555
0.036773942249191977,2.8718439300828367,-0.2671918748670235,-0.16930891284718197,0.12991845949435155,0.06834720737961383,-0.1427377564324528,5.801468922201777
0.062305018424740274,2.7741531644992987,-0.23536066384354945,-0.12578447784839217,0.24402746432704328,0.18020152125174185,-0.03701338312201676,5.859890964015129
0.09770543724542781,2.8234957176238784,-0.2522279520093236,-0.12193527919912665,0.1875347846374664,0.1260095632108721,-0.08458455328666477,5.8596056987405
0.049475540307459986,2.8560635397779537,-0.2880392368201533,-0.17885246143078098,0.1348936321465437,0.0897321201121751,-0.16608457885687855,5.840241235025347
0.07855082472526345,2.8201238954356085,-0.2602654628916277,-0.13906717079385436,0.18560777786074448,0.125425505366203,-0.09730572370581803,5.938886224552673
0.08836331859231529,2.833415334444079,-0.22792758436214575,-0.12604267340018355,0.1816236755195817,0.20094868213435368,-0.08540888623882549,6.131634531395081
0.05488002903148437,2.83301605399686,-0.2571463231697617,-0.12644670733265242,0.16910965022685903,0.14295538315416836,-0.12778675086073682,6.019080600917984
0.04165934231006979,2.859815313432022,-0.2993988168509769,-0.14835557153826914,0.09735792752392299,0.07695957263767574,-0.15706859995280634,5.787166155464644
0.09118116927775292,2.8674394597935056,-0.23749645304604372,-0.10889108914650791,0.22022972093339513,0.20123036661180732,-0.027560329000265563,5.996631393015037
0.06650321362254304,2.82218207901956,-0.26509189189838545,-0.16235755510851133,0.15687204939032182,0.12109306367835516,-0.11384279058314839,5.871023069717223
0.07088623929457093,2.7425849685542807,-0.2841413769602222,-0.17094541329115256,0.11521032742782275,0.06340066645534542,-0.18670731884091363,5.73476507150164
0.07149307418528182,2.8109096164386056,-0.29902086744895007,-0.1551829798475143,0.1719951976561623,0.09953201601138087,-0.0948315913349131,5.964782454771952
0.08320858755968015,2.800586765394856,-0.2763455060133288,-0.15096466950898188,0.1713189570602429,0.14209951450659639,-0.12569804922199215,5.973519606553458
0.031289138348187605,2.860002183249823,-0.2594033687856502,-0.18781539326666527,0.11075315775171886,0.06811515604888702,-0.16734259785725858,5.948018056823508
0.04244085333768767,2.927207952855916,-0.28694899998814494,-0.14194940150686838,0.056135502125779065,-0.00901062364850851,-0.22677615558708325,5.815163848946068
0.07984851220254305,2.77382235447478,-0.2607658867831878,-0.16791443807980516,0.18688648962491258,0.17462137078861634,-0.0843931191263837,5.852482000354982
0.07305163221805325,2.8057058579447522,-0.2825887729522944,-0.17896969775846674,0.13699651906369978,0.10097010126732604,-0.1452142475733462,5.901695921258099
0.024783411009203827,2.877711934319859,-0.3291245509683945,-0.21294521447799317,0.03431017184311822,0.03853705568899206,-0.22951236623246737,5.974923110996646
0.05954982123558405,2.9038027073291883,-0.2705550387656582,-0.150428211700129,0.1763158735449939,0.09928564440876043,-0.18017405671185852,5.82003285442592
0.05124858473200325,2.8099929128886187,-0.2815962171902907,-0.2090964942565819,0.16113077356725714,0.11192379070920883,-0.10818765981916385,5.68190521037391
0.04187266079578296,2.78857111772634,-0.29941975316566005,-0.19946865734926014,0.08774993581642483,-0.006732597406131453,-0.23064395913045613,5.885528174247263
0.029450750600855006,2.80951344958692,-0.3029661072793901,-0.22089485261490738,0.078071066773297,0.005701547153107532,-0.19518208373223617,5.77326133581201
0.0755562951070686,2.798047672779801,-0.25070407983393356,-0.13275811954182865,0.16174996921592147,0.14419218479864063,-0.05909841134346312,5.934019436519714
0.02785295311337034,2.789707466733727,-0.25990100501277763,-0.15202783693036043,0.14904748571635001,0.09473755615971306,-0.1382299218398746,5.955894291966467
0.035026066528814105,2.7675162102127793,-0.286587837295391,-0.22351381109961083,0.027729578945924194,-0.019855830570580553,-0.2155674076566246,5.878516191739364
0.06106642310943392,2.8372924691356185,-0.24579319748995598,-0.1637850096795923,0.18471319459079294,0.1476799187972522,-0.09610358149415316,5.814687272821345
0.05684710319838546,2.80361936280471,-0.265273229114121,-0.14335726338509602,0.13988983691951792,0.09637339152435268,-0.1563946653647907,6.0575391957928675
0.020394876271088803,2.8278573679909895,-0.2877855743348282,-0.20310275478507311,0.07185900077010852,0.05512016926235355,-0.17678223252083283,5.840459221477423
0.03856215258223433,2.8922531941140233,-0.2876371591310012,-0.16355651597908555,0.08181488296139273,0.038736099148893775,-0.19277416566277616,6.026832194183559
0.05689965253537996,2.792073921327239,-0.23897768424726215,-0.11855534471107027,0.15092974854697436,0.1593877908304015,-0.055483196376677556,5.677763656284705
0.06688391076045194,2.765694254122432,-0.25019593387021094,-0.1587342972451459,0.13616462929583215,0.04295792337045346,-0.16924242873955986,5.8946014274044565
0.023269142688758626,2.8384008970736825,-0.25541363551333496,-0.18489310582420734,0.028250796610456517,-0.0015200235784864219,-0.23910575339526152,5.612927394859057
0.08047415514493834,2.835192842393277,-0.23684241940189155,-0.16714899843349326,0.12893143711967128,0.14507192060286514,-0.10627328118892326,5.978119445160225
0.07245976258505608,2.860928765681219,-0.2920933897109281,-0.16789670016231178,0.13029913416444164,0.08610078902373912,-0.13820560757446892,5.814324753143874
0.05722391656404236,2.7819432009575147,-0.26435014069270457,-0.18691438918889075,0.1320146117996579,0.03666233083572771,-0.15147495124491733,5.8938886642349315
0.056378596961000976,2.793214386364463,-0.29336229181345713,-0.21346917398411674,0.03541634415024567,0.028744372437979986,-0.25613381943406954,5.825122886979231
0.057782181685663424,2.7772895162854563,-0.20282878385340844,-0.16523274787724312,0.16087976800654982,0.14471277031434138,-0.24600123155414397,5.863535995720072
0.0695937474029567,2.7648700109886497,-0.26697215861715357,-0.16503649763652609,0.135197142903449,0.037094021465458704,-0.15534226901118675,5.65172845525959
0.051352825634656346,2.8057877522710086,-0.29007741765598594,-0.21398932020925288,0.021120645736728113,-0.026230432283364545,-0.20741558815958758,5.904902168711537
0.057252106852063424,2.7832774491510524,-0.2486331014591602,-0.21529225570794186,0.06048252938299315,0.05142068465898866,-0.1707154258685649,5.922034387059604
0.06713563809981578,2.821064024148823,-0.2750758398761103,-0.18740250799817307,0.09305095516368747,0.04821801101047372,-0.18729579297106339,5.740504662270543
0.04509657816700067,2.8131873910921703,-0.27971918917436367,-0.19819149598263128,0.06233345202402968,0.005758624218611963,-0.2125985172731616,5.915357520005881
0.036251127369316107,2.8158143099940496,-0.30742490992012567,-0.21746496456414463,0.014872146377217742,0.0030393629193927593,-0.3134323297722133,5.818823130402449
0.08909445189490593,2.8002561860587756,-0.25972211575270165,-0.15991622255847837,0.15106888561312604,0.05210048081118536,-0.16643187048165925,5.844067392510434
0.0687902425861017,2.8371761733502363,-0.23878432802965424,-0.21530400709316524,0.10114532891510591,0.020318738447021444,-0.2171921895935143,5.953586186224829
0.044005694010432014,2.759288083708233,-0.3153693246258105,-0.22609162692885656,0.015025081161100516,-0.06383759052904023,-0.3000280168488165,5.717124764442066
0.0970897592515529,2.7781961971100357,-0.27362987728886623,-0.17366976130979275,0.11798772423729141,0.08768938413277211,-0.14487654563347574,5.939327421017499
0.07478058089707094,2.857921050927298,-0.23297114145951284,-0.1876956384358313,0.1887818036860262,0.07075023653567322,-0.15786626866901973,5.74043433232096
0.06062865832912447,2.8123520201137593,-0.25929440679237764,-0.1889595656239633,0.07516025844767454,0.006888858695204798,-0.1880005382572829,5.938183460595506
0.05356077604239559,2.890872430974661,-0.3078118232537703,-0.2028809796350768,0.020943904228105794,0.0031923344111974396,-0.22620781706110504,5.818564199493967
0.09433022474890052,2.7599524395362867,-0.20267206194281973,-0.12333793673901425,0.17347073633035873,0.14913462677526557,-0.06569953318120271,5.802646006103542
0.09985339578247278,2.822144858047736,-0.256762644757774,-0.15505856794701087,0.19283865919267038,0.056238030655689386,-0.10896675450250443,5.874109043111784
0.07102979799879258,2.831808757197902,-0.24407078684655795,-0.1926380972952372,0.08390544901994088,0.07770385242091668,-0.1585210831850786,5.945999556750089
0.12586790707919204,2.763006684578284,-0.2395830098318075,-0.11385456574861898,0.16765287069994816,0.13035475305492178,-0.05353885234375279,5.7973533473691425
0.11073097072434045,2.82768193652138,-0.1988053138197943,-0.11554257920970024,0.19852621216702906,0.2196427267866101,-0.09813153394626052,5.825616731360402
0.09477771961221841,2.8702666167353486,-0.23688134558027443,-0.12430823451229316,0.15600989446082475,0.09523566718212796,-0.17742645399777834,5.781196779735754
0.07838536081414628,2.7371009927385095,-0.27676592571052605,-0.15981931110553632,0.06354111242580784,0.05642508312285412,-0.19397548718372556,6.048831358093825
0.11697720285460293,2.8292283081250833,-0.14814024818732113,-0.07282921867097873,0.20526888737218082,0.21003648346154782,-0.1278536760976987,5.873607858140113
0.11686296937877827,2.8789852467460557,-0.20253769220778087,-0.11537509580816006,0.19036545235462948,0.1350062513117132,-0.09595198383576471,6.159512480404806
0.06792530394771669,2.8400572942993847,-0.23801101141371134,-0.1387793107191071,0.07609091609585912,0.0885322083344206,-0.14489658056167334,5.785114780085073
0.1207962635335482,2.8403004528031217,-0.21660524930752834,-0.10414588732911055,0.18530590978288908,0.13835186066889485,-0.1389505179573661,5.874883084546068
0.11728874416215973,2.8217585746602043,-0.19419709762056164,-0.06864430176137615,0.2055965901829698,0.14760871211714752,-0.09656080716327611,5.885933458108873
0.11790194671436872,2.7276285581012893,-0.21581859287202945,-0.1272346789763869,0.12233807952379944,0.1538674891447824,-0.11203325545436894,6.10468285921198
0.09842554898073996,2.788115843895359,-0.22223995554430834,-0.16347603996285526,0.07375721648609154,0.08254468239641452,-0.2146969585228964,5.860439280370394
0.12595344604324651,2.7579489450404986,-0.18220250426701623,-0.10467217690611058,0.19879961170108054,0.18668743421311684,-0.05927162733458917,5.9547863603164926
0.13432323767763277,2.8686482670944966,-0.17322259881807417,-0.10680411143197131,0.18044011133580154,0.1260292354845993,-0.04782143782177421,5.8678395058199975
0.12285731372204907,2.818585877201166,-0.21221809697149704,-0.10887399684938577,0.08800040440777517,0.06771114951800665,-0.16724416576620516,5.972724808883544
0.1292897690534559,2.850733043438937,-0.19626138970608814,-0.10463089966648911,0.13371972618967612,0.11889048038022108,-0.13491928704127132,5.912677637827227
0.1402842173062853,2.7619654666245768,-0.17939069895370632,-0.09739762039516421,0.1982149896527277,0.17400964999319674,-0.0013316196216237252,5.875249243268748
0.12576186918069002,2.804900812652033,-0.17231666815784438,-0.1177969851350093,0.16596389968655997,0.12512984414986933,-0.098863089721946,6.0922505136820435
0.10356251898845939,2.8656460405048363,-0.21770854212442456,-0.15609960018671248,0.0965192787676462,0.04419548186161177,-0.18441967650818256,5.8794750197476136
0.1577222175220995,2.742710081849315,-0.1876939464195162,-0.0865865978646635,0.22703830824847784,0.25234768299515004,-9.394580126744514E-4,6.115950024069621
0.13893858016340702,2.8253887934063315,-0.17176462698953218,-0.06451334910600773,0.2301115456587059,0.14477938628336445,-0.034758488082154024,5.933768323970114
0.13303726816133585,2.8299998042534984,-0.213454343648139,-0.10795194632596049,0.12268647892924836,0.136784647801778,-0.15666959260037328,5.919017652138641
0.11504026603061057,2.858298628658652,-0.19940120520920485,-0.10047189031487082,0.14624372400198846,0.15587422591032823,-0.09444877406034043,5.862147274545217
0.15223456724127724,2.8337287036979655,-0.152160590002545,-0.07349006688961258,0.24229301449276294,0.22796580367900665,0.034457453354107645,5.7538355757584405
0.16543072952621193,2.8365575760353785,-0.16732752523562724,-0.11268304701035993,0.19179021874454658,0.20668835903836597,-0.1060459876089508,5.71573426764987
0.10132883425072893,2.777890275335658,-0.20501083665984268,-0.11230503489311798,0.0784971747002005,0.08193946663149074,-0.16019121223042315,5.978045829839394
0.14042810472666784,2.804052720185843,-0.17856731476840432,-0.09204179645500464,0.22753845044882975,0.1703490119220688,0.04077516330250564,5.989874037858628
0.1425832810308091,2.7828843909891186,-0.16489294854052766,-0.10247788677888582,0.19735657490745578,0.2083440474131395,0.011406264598220276,6.042266440968408
0.13405938492264277,2.8817774231545075,-0.19829341662437047,-0.10361584242597258,0.18966742360082292,0.16235522186024903,-0.028661074905833424,6.041447032202613
0.11885042539578199,2.812477916305249,-0.20619342271532742,-0.13319872702641317,0.08011403448721481,0.09702066430292781,-0.05911021152378248,5.919505509225602
0.16140500261716273,2.826072886260528,-0.13054944854222886,-0.08059285170589597,0.25051715398657687,0.20926095248055368,0.013087109438904156,5.657893074411022
0.11528639220118549,2.807890494472968,-0.15869142634177966,-0.07601356145309832,0.190266849966245,0.181114378014852,-0.06568474038748844,6.021533111284081
0.13861479616390934,2.8863499436590048,-0.19317054176963305,-0.13689400455169143,0.18425513393383194,0.11423997769461,-0.11881431986777995,5.973525376683645
0.13464070266808556,2.854862795366721,-0.19062939402599027,-0.07850643753288623,0.1840204883649218,0.13787400710621192,-0.063204776353221,5.725857024652538
0.137022600545467,2.7818000311495386,-0.1378170635042576,-0.029055708287293536,0.2587280212935328,0.2576281902070481,0.06132728728488897,6.061360973194297
0.13491573250545108,2.798177669168981,-0.17328632212345282,-0.0751038897617814,0.19815124501037762,0.1737581093494863,-0.10068910105688111,5.808724511289271
0.1296363154316397,2.8085461371176694,-0.20885917192892317,-0.1397741168191584,0.0934806040524993,0.08289656577159328,-0.14633700668707034,6.091183451379104
0.1520497847854928,2.839705195217875,-0.13322360512502876,-0.028133281396453467,0.2261322654548007,0.26765326484961594,-1.0253053983098404E-5,5.820217750291503
0.12955725909204996,2.81097626899751,-0.16023844635946535,-0.07453723793995785,0.2424272702779444,0.2408289792380788,0.08571408399565128,5.867269596313966
0.12119545377720077,2.8359973055283065,-0.21844321030685526,-0.07584976511633457,0.15639682251594125,0.13526366464619685,-0.0018749938119755184,6.032193682000162
0.11340253181392522,2.8671191743679936,-0.19319178883708923,-0.07243399993794715,0.18063908719827193,0.14547372358800598,-0.04765922278235093,5.6309837052185445
0.16035028130019585,2.8685245338106173,-0.14588417706227721,-0.020540865953806487,0.24942191619504298,0.27727251424740673,0.1010235664946407,5.886143323492123
0.12573455717897974,2.830849927682098,-0.18802659470362293,-0.050405984475081156,0.2148582848595731,0.21952992438368465,0.010884182987285995,5.961003633923906
0.15836783775543428,2.84534084733357,-0.17735827224937098,-0.09828244761934153,0.10529994728755765,0.15694504296254563,-0.10145412467152315,6.161825194856539
0.13875113592670038,2.901640343202018,-0.15921637652025863,-0.04966973216740449,0.19730461472003333,0.09935486036923784,-0.06266783340729604,6.091215528632713
0.17011701237486979,2.824229713129845,-0.1384663926394124,-0.060833017251264034,0.2133014089638025,0.27887780687115343,0.04318064436000704,5.783293959325031
0.14411581289052236,2.865354671904104,-0.15781702763932298,-0.05509072927350881,0.20164340905240796,0.20877435225903757,0.003679771509394916,6.04012135186314
0.12001427079737712,2.8483642449929336,-0.18480943990162096,-0.10433421186591715,0.0842485339166295,0.11814118246139658,-0.0731743906211575,5.935796872646354
0.16680373150112737,2.8571819269876793,-0.1304051259245708,-0.027067416678923383,0.234980608500007,0.23930828620871106,0.0027634396660869147,5.997381427657463
0.15551770469917742,2.7790767624191495,-0.12726439622431904,-0.001242206259775535,0.19137112111723312,0.21093895758817519,-0.060145726056756416,6.1226690899413265
0.14104324606185697,2.816635528507859,-0.14874333117947738,-0.05499673087923721,0.16157746285011532,0.1422702013231091,-0.06497970212624055,6.090167981519583
0.1140985761491395,2.8564849873094453,-0.1630703400847551,-0.08666190484357189,0.1468333071071255,0.1726188422235653,-0.11469142432646581,5.941713412633446
0.16438122015721612,2.783947633728941,-0.11504794331303385,-0.00996265422345935,0.24438667143205714,0.2815059561373761,-0.01872238525973467,5.872129733544578
0.14759328383658507,2.8474339097484456,-0.1425535985069773,-0.06555157387977285,0.20037960867266844,0.1869791874585895,0.0593818601699041,6.14039859373779
0.1259293695041256,2.8055292286977136,-0.19270834418750518,-0.09670490295865077,0.1361579098528085,0.13531224088975735,-0.08846001831373938,6.076232252726529
0.16364911049362268,2.9265211721333357,-0.13971881159446464,-0.0074738581033455135,0.21137796297063696,0.18343548554032232,0.049090271809255355,6.073824817388069
0.18007807032033882,2.831121627126846,-0.13531192882272236,-0.016186063215935388,0.30992103634035695,0.27635104618858114,0.04028622752687227,6.045919072439504
0.14534512786084586,2.8411009543559933,-0.1407619159888116,-0.041521172042170845,0.23777885843943675,0.26485505830232997,0.006447542211743347,5.894373153558127
0.1316290908095079,2.880904669248476,-0.15574094360721813,-0.04934389979925234,0.1525676848254809,0.17978019995801403,-0.13352289543844614,5.93137947818886
0.193607027552976,2.8339014713521986,-0.10977441920080108,2.316185581608788E-4,0.2864290311872706,0.2538476553798966,0.1076756692912224,6.149404433074985
0.1948710535760417,2.8089556446021025,-0.11379113706421064,-0.004645349413982641,0.30459622414639903,0.2805408522980063,0.07262526495101675,5.9197269996863255
0.198407841684302,2.825229316308014,-0.11819215954662425,8.106366330674329E-4,0.23497484265100896,0.21653998555443946,-0.056455293242702584,6.01000943268752
0.166683175709107,2.8289514396049267,-0.13280902921391316,-0.04726501502922648,0.19701033329777373,0.20589590932682122,-0.07966131241971469,5.966881324633167
0.20819500166167865,2.864425352381399,-0.09391581960251544,0.045754060339922416,0.3052742200750957,0.3362534560309761,0.08344637166875528,6.085040608242105
0.18480176922540734,2.7952160867344893,-0.056424150452200186,0.06678488134511394,0.2863285431088462,0.3357037223596028,0.03822720872686323,6.029371671131148
0.1677805109529998,2.821354652052371,-0.10997661497560561,0.0014954896866238333,0.27307429766246366,0.20278522787907405,0.012958997395082486,5.72591819958325
0.1905749228263647,2.869833334625288,-0.061576197196020366,0.013462720704287001,0.24497311482396303,0.28474703157909687,-0.008631451639725764,6.0307918742166375
0.19347219289357517,2.843179592688258,-0.06183355235246255,0.01917246657485642,0.3550711401756959,0.32545650322481906,0.08630799092678546,6.045082168638596
0.20311206090119543,2.793849032376288,-0.05899471294266746,0.006037623669087728,0.29713076599244254,0.3422642029184222,0.013118503712301716,6.029902437563277
0.17690736472462157,2.8618530921459144,-0.1042536406182043,-0.009686535738490498,0.19560837450184196,0.22114093566007803,-0.002191989754733025,5.853510692913295
0.18142699121950778,2.830890822789413,-0.04165153365597842,0.024959633487003138,0.29880261678930614,0.2919616776756861,0.05699177316603273,5.944412618089676
0.1861824082735586,2.779586283874537,-0.035426485310838675,0.050046910294272745,0.2940958226310322,0.3025272997367823,0.08436770317001416,6.053052538636059
0.17936548880633157,2.8558230041491077,-0.03611312082083427,-0.0035325094371183984,0.24449173603861366,0.2818748780702903,0.01616794927851467,5.826597630898941
0.1748168827539013,2.8499673867039856,-0.10799595966825815,-4.1601836441228636E-4,0.2418588751579779,0.16826004408099232,-0.10391028584503613,6.005541159902612
0.21908351231945017,2.8247001043466926,-0.044683774611577985,0.037851624815357254,0.33038394127940734,0.3879159120236171,0.05894051818274599,5.992640926188175
0.1960049652844859,2.895194215615455,-0.05526972644612742,0.02997405492153329,0.29778620371736136,0.31274779930328994,0.11310803389164147,5.991544453526469
0.17074145494380838,2.8357652326454477,-0.03558980312861258,0.024247564327884462,0.20169941600295638,0.2761968766932192,-3.9790594013985474E-4,5.984526683351462
0.18192902526869692,2.847888765187736,-0.06103515988509252,0.0020095308655984296,0.2445615904939104,0.26178250990580526,0.07858048556322735,5.90166775851131
0.2139866663115491,2.8229017534118137,-0.05414235469302132,0.051008241124797155,0.32704868098276774,0.39337734311466654,0.13605945165771077,6.023004290056368
0.20644362438435698,2.7966320363649873,-0.07746741692690104,0.051301912451807125,0.2524938700064674,0.3347470724656757,0.12627544219831474,6.083402069208151
0.16131875515218844,2.7246626853800233,-0.08794904215614177,-0.002773075124176309,0.21251978351315826,0.2680138039394862,0.12347053014002442,6.121686925869486
0.1961067001628613,2.849047838266539,-0.052700612013837744,0.03018224543927746,0.2971398526577811,0.35164643645622756,0.10372587287629446,5.979113931988712
0.20550209155643487,2.879819847065316,-0.02954471644877237,0.05663906792192358,0.3221685415950511,0.41184953386726664,0.1810206292174595,6.093927030739978
0.20619634909723752,2.8717578289052974,-0.06913585172794845,0.01275690795211614,0.2645476763078069,0.3621462364126923,0.194445894403363,5.975106757434811
0.18531620849739674,2.847055764038307,-0.09800423873296217,-0.025721065368143347,0.1729391652692548,0.21075941219470387,-0.032460702560390714,6.012667867958358
0.21964059339763875,2.79721011877705,-0.04133324424281277,0.05469884059565061,0.269984598286586,0.34043161362313357,0.13869003928605483,6.018134876885993
0.21518417763894782,2.8551920848616654,-0.06540106056144507,0.057582769394347325,0.3103621931404443,0.33075763514653583,0.15718520791649526,5.993842050170823
0.1815526192030966,2.8789460194140335,-0.1164892529488435,0.05207737725525537,0.27913567615641244,0.25081669456198047,0.05890851658602932,6.039042274472585
0.1472240504745953,2.889338031132569,-0.08961452591939938,0.004049314522349652,0.15818386574842747,0.27656450188473664,0.023416323142907803,5.8778752959595835
0.2098692455352461,2.8421706209223383,-0.0594298750295776,0.024226552808430408,0.30009240739844556,0.3941814607984873,0.14964015276208537,5.897998903566271
0.17318042235414152,2.831969301721463,-0.07502770451580928,0.041522625929362275,0.23442162355213608,0.33027764831696127,0.08696221517367893,5.900878703895049
0.18790740313471704,2.8086191014413604,-0.09488867124430117,0.004848629648696345,0.21294525301643072,0.3142180806805434,0.03697148315515189,5.866897870032522
0.18983706555387028,2.8442436185983246,-0.10678970254923537,0.011940803514053997,0.18337665722276436,0.277524650018219,0.01109311758313795,6.011769093671821
0.20499457938537177,2.8753570216359003,-0.027827017974176534,0.024628295279496993,0.3228760585506882,0.37094004791832635,0.21032848705728127,6.040283492309303
0.19136459980758183,2.891303874472161,-0.09112637463700789,0.04868828292712684,0.3020088948148969,0.2835044888529571,0.06898568213925414,5.937777503506676
0.16667917340091634,2.7911982070710617,-0.09219790514334009,-0.027394708508102012,0.18737695013519692,0.1971353271105131,-0.05195818573407819,5.934658112846225
0.19441121949943682,2.8621229752842705,-0.039557285684876424,0.020084828950203675,0.2416232006193446,0.2508314133038086,0.016038214739917785,5.9663424031056635
0.20646529101478978,2.91810694237224,-0.0462898399908972,0.020399965423222997,0.35019710620591576,0.32383516398981205,0.0916463374611887,6.138788271094836
0.1861477140844683,2.9133906430760765,-0.06356649375055048,0.030266063288707266,0.28277194149928736,0.31455122064100516,0.06975852448920049,5.90225466795919
0.16493623821986864,2.778807525321252,-0.09930936195452723,-0.019058458116164075,0.13712103521327906,0.18223397198405578,-0.06669290151874485,6.054871420415526
0.18879476546068844,2.820668156856147,-0.050270476629789514,0.049407290806322064,0.3517243087598761,0.3015392441668069,0.11276212425834145,5.889360635522044
0.21076541972560253,2.787454064621458,-0.04562284760043196,0.028635769088342564,0.2797358887527163,0.32608974534053964,0.04744630054959956,5.7362406154673415
0.20093769648094523,2.8572822713004595,-0.06543956481295214,0.009712648169542131,0.28182625813619494,0.25511811694799735,0.11048135816321669,5.928965491900346
0.16896798495226834,2.9087571082159225,-0.05641728606305417,-0.026590844192485894,0.16374233698450988,0.20996808601649122,-0.03853707011603038,5.88380422395416
0.2169982467653981,2.8546201495695507,-0.0018239859953660168,0.05388613901152342,0.29253142709632507,0.3837356402001505,0.14377410684546468,6.195526034990057
0.2127359295910689,2.835810918513546,-0.020928271483336498,0.022771993909402544,0.27736532581400347,0.2837467340288093,0.028791613105255635,6.200804862106406
0.19129315526351542,2.853414360944272,-0.06568371198615468,0.010104074308218495,0.1925806537117493,0.2069656205321808,-0.016490937325278714,6.100086912413401
0.1908601159553496,2.928510660526915,-0.05244781973249268,-0.023307064934419208,0.1580890839867045,0.24729875038721288,-0.012738662802685227,5.99728364234072
0.2115543544813864,2.8258966113441977,-0.002016248640868166,0.0561767378713433,0.34469284623409274,0.3771120781154061,0.17503711538142885,5.884133048136524
0.22976288528059943,2.801247994756392,0.019853875588211705,0.060411464527200136,0.24081433767774077,0.35860799461303705,0.06996333386857986,5.762964049775375
0.18434212455184484,2.898152300815377,-0.005394622876789808,0.035744341804655584,0.19449394608368942,0.22400372011967387,0.0032298294308332354,6.074698707097419
0.21153841397221596,2.8033745883941505,0.007791463128300988,0.04337058594548882,0.2568932115120368,0.3334058871147639,0.050481657601985294,5.967865828557077
0.2278522538002936,2.843848042076039,0.0391830799717283,0.10816798039816418,0.29449565380897585,0.3111756351903741,0.09062678017812893,5.996146224079583
0.21597665691151122,2.895515132720387,0.02413760947543114,0.05134965483955537,0.19755205234556691,0.32748859581910483,0.04268743521465854,6.150807583532884
0.20284454246332143,2.9194599545629276,0.01017870295560529,0.051202980203233404,0.1487898821028518,0.23657072985118938,0.007118820002697868,6.2065822982545695
0.25849324515300404,2.838065153111139,0.0905628840146279,0.11093731742237066,0.2690437763846638,0.35969475865865186,0.1037831740921008,5.835852940088557
0.25864291943622086,2.7839222751673764,0.06725557472182263,0.10585837576620467,0.25674369150054493,0.4226585084336848,0.1622445521547244,5.895703197885635
0.22277696902631092,2.8841779712976408,0.03200260921480147,0.05333685529003627,0.22635596786171258,0.29610740230137156,0.07648154390013301,6.116643824389148
0.24711939475542738,2.909516398106988,0.02597249032169611,0.05126188769214902,0.211692221416084,0.2983853310279026,0.07393321060064549,6.058754631184971
0.2829925908698553,2.91251897571314,0.07947946871233869,0.1582102906955027,0.35135726498476905,0.4457691043031117,0.19270474754582842,6.057813437528047
0.27661640187364245,2.8248915578583187,0.08464861674527892,0.15553280569073571,0.3125196635531675,0.3952410830743997,0.1560226748841092,6.000100711434733
0.24022687512393584,2.8660746434270203,0.03774666867551688,0.07693248694350405,0.19636918852287835,0.34612353127988277,0.09712600713509123,6.063997891105138
0.27368704459095106,2.8002472879159415,0.07036914786997939,0.14936304845949855,0.3366346146571534,0.40265999133974856,0.19271061600080527,6.157374370792779
0.2794482014076709,2.868191784468347,0.10484269919702643,0.17675554490943948,0.34303548994885497,0.5071470852308916,0.2261728525141314,5.90863207430473
0.2515267545026419,2.892708038581407,0.06364852253993038,0.16553960641602494,0.29280420822465797,0.4059838509165824,0.22319578454326405,6.165043099940833
0.24347585322941684,2.8711702718800356,0.04700480023064679,0.11504765158659727,0.1937631739178611,0.3660566295059919,0.14430178567295932,5.793249803803904
0.2834319482179817,2.919880644576946,0.14949868888026355,0.2046343688954315,0.37225448523635957,0.505326265270269,0.26743535661701207,5.8475353621800386
0.29214940849615445,2.869477763847028,0.11376765618634715,0.1990417878751064,0.31993385500342464,0.46489142553617213,0.22184918664891093,6.064918205532213
0.26982488634956137,2.8531644820767617,0.09892212542052063,0.15690578083359935,0.2577705847894875,0.4102551498461016,0.16750149757340546,6.127229581575327
0.2627467858868586,2.8207312198774317,0.08057706406226452,0.13583960653149307,0.2596334203169785,0.3790724976593087,0.10285682445354317,5.845889975168539
0.2746129257745853,2.8762394135879505,0.09844018886821351,0.2153962238684123,0.336107037126924,0.5036103612842688,0.19370566259427663,6.041893332347516
0.2705040792112675,2.858320157739375,0.08685834944086256,0.1810585024057271,0.3028715004554297,0.42761879099863637,0.19945487686103255,5.936384347911573
0.2419625008969874,2.826429420980594,0.07655872419753544,0.14254733490271318,0.23592645465047146,0.39392311991212503,0.11253359807950661,6.000115349107881
0.2607624062469199,2.7731854855228137,0.09071978965377608,0.20317661688258085,0.3081162049415356,0.4082413284819749,0.2042078192132618,5.904915810978251
0.2561485036402951,2.799139047059672,0.08949535162378,0.18565676053828645,0.3096170016832878,0.4319129710241847,0.2092122118069798,6.110270476252608
0.2428069363809973,2.892702647650459,0.12554079587864955,0.15181217866103452,0.22867534056221672,0.3912422081908568,0.22211913945971037,6.168870671359479
0.23523985081452384,2.837606821866053,0.062059451734151956,0.15918927978232356,0.24183982638998433,0.33901841027089963,0.10380343985626309,5.961556747655857
0.27960523434559714,2.900778968970468,0.10099123764455994,0.20902624316662693,0.34487088239421854,0.5175981306405748,0.23275850191478906,6.1074939941261315
0.2690500180923774,2.943647046408281,0.09263560898354545,0.18709142639190082,0.28703094152193714,0.48121039900631496,0.15725836167017995,5.9196972935245675
0.2590125545657384,2.9422663518283265,0.051734454473590076,0.12764883118521292,0.22747906490200975,0.33952952418235277,0.16927621389580352,6.011286499840756
0.2551139987276844,2.899029129946196,0.07176307902084972,0.19516872075179534,0.2932441915801255,0.41307383094198813,0.2259130029099613,6.20517569994965
0.2711073244974698,2.8748636328910226,0.08430169234857886,0.1915778919265577,0.3565849270036686,0.45343160125050835,0.25807717696867594,5.840884433690777
