0.015339586273157855,-0.06533467704685417,0.02470264484665072,0.021412983376115274,0.002683719926432416,0.0011595895656783936,0.005908586539724891,-0.2533716331333492
0.01428231314475312,-0.07432600201233018,0.02667552948572482,0.01492434442944628,-0.0018609609076731476,-7.911254745609067E-4,0.003135765420238386,-0.2644150139482303
0.01666520751105566,-0.0797056707414732,0.036502178039557,0.007177308837036725,-0.002141225427995863,-0.0034116700280809385,-0.0018692822589187902,-0.2628699171107629
0.020176804790169166,-0.07411538175442783,0.03174185678451515,0.01718414424050327,0.0030354388139860575,-0.0010211668657385045,0.006167785132657523,-0.25434801818671027
0.02496146066755382,-0.07306625427838741,0.03252800943064211,0.012610822502545934,-0.0037796521208746906,-0.005587739088435786,0.00396173846528545,-0.2620263285372372
0.01292244440875127,-0.06264415797870267,0.03820761862989441,0.01835605926090392,-0.004342704298267363,-0.0030745229333642037,-0.0032626337730002355,-0.2622953300016885
0.02045616154776878,-0.0774524292968221,0.03685672291652042,0.009714230372338206,-0.002618548113408703,-0.007520887547478905,5.0753932881704604E-5,-0.25900164307088647
0.023283394161307622,-0.08589085335463296,0.036074162907438055,0.015628967736579957,-0.007370760400971218,-0.0050568272710210084,-0.001033564732573462,-0.259633141765889
0.016641159623807054,-0.06659923509389855,0.03646389146237825,0.019827691506748235,-0.003327459660408842,-0.0071060786422161345,-0.006421776124265501,-0.2507433831488206
0.016518351535461318,-0.06967893074870987,0.032185730685814894,0.012655119814863176,-0.0015504871094876138,-0.005803100934702066,-0.009036974455404419,-0.2625475112055844
0.014681841035577282,-0.07212352034709524,0.03453552079215124,0.006525511385419456,0.0022626680942121435,-0.006232303911211592,-0.008216115985808943,-0.26207051285346117
0.018964385204260734,-0.07992242263174015,0.030878912733363323,0.018835117726804605,-0.0042936667563166775,-0.007288333834100057,-0.006248572757023919,-0.27092003411847165
0.023306004125334828,-0.06448303045033978,0.026056717212351917,0.011005209104300747,-0.0043687095556712765,-0.009531408466645354,-0.013586449167189882,-0.2554999337541882
0.021408624031035918,-0.06620780031359177,0.02786675957078778,0.01521137812105361,-0.005437142528638804,-0.01373976683911413,-0.008628774945984605,-0.2654040432016335
0.018384992017894477,-0.07725845136783471,0.023129315650411687,0.00771264508523904,-0.007442026729362245,-0.013029782852341394,-0.013521293970775448,-0.2523675747359948
0.012618881894055488,-0.0770560480446357,0.026730800640334326,0.015049433110172858,-0.00549024115114839,-0.01829919120084794,-0.012334449531625324,-0.26962376583465847
0.021101965974468267,-0.06605944895837033,0.03597314487218149,0.0092835915097417,-0.0025059361454258973,-0.015948898351443138,-0.013548114639955368,-0.26575905443694453
0.02346020636645178,-0.06284307866345099,0.030706981188941287,0.006933829232123066,-0.003753512447044431,-0.017498760343728093,-0.01659864480060134,-0.2659075767355804
0.012304852766863517,-0.08519003281851797,0.01830207461312776,0.003035153213995891,-0.006325184596489237,-0.01125711856472206,-0.018560931598492154,-0.2733435793322862
0.02198521665995322,-0.08485133529237382,0.030639765892265303,0.010369149310571778,-0.011149312542732914,-0.016970569885684295,-0.013454534864049551,-0.265035509006014
0.02625098151390666,-0.0721551971962744,0.03465705870317069,0.007880493026596751,-0.0056015461895781325,-0.022254500902299648,-0.017396026910235618,-0.26063984448032007
0.01931655216553764,-0.07305117704629915,0.022707554505680426,0.009688088969892294,-0.0129989826784544,-0.01713175798852174,-0.025517770807685046,-0.2624028714121116
0.01609865194550721,-0.07518788715285045,0.018346204323023935,0.005949991147739839,-0.006566790704144315,-0.01993500709225388,-0.02447640428971184,-0.27632441296913457
0.020555169819160987,-0.07599045911925911,0.024371418886691684,0.010963225585191427,-0.006682654069215507,-0.01977696178713393,-0.027970577842286237,-0.2650837167925881
0.01934214003452141,-0.07108813890038217,0.032141804965645435,0.011331427810506205,-0.008479203002967152,-0.0188386478848751,-0.027173002700618076,-0.2649031278269957
0.01792915855040498,-0.0767263271058049,0.03569111784699367,0.0040258559646004916,-0.014190763729267294,-0.02224877282545296,-0.03295281546559093,-0.257514900807411
0.01696724023607005,-0.09958614723319115,0.022897215936481675,0.002236505195328232,-0.006917675473720411,-0.026043648697580402,-0.031597815182718154,-0.26911623278681485
0.021538116947968228,-0.07453356065894629,0.025966332516170296,0.009027750221332159,-0.0045147587031834835,-0.01999285437817212,-0.027757511276046178,-0.25986494608716554
0.0181545058822604,-0.07050112504509112,0.032176153646092845,0.003842927727778866,-0.009650129635050386,-0.022539985147323714,-0.019912840482122798,-0.2666260339091989
0.02130594240327786,-0.0766792214306068,0.02599851174884081,0.00385082870010957,-0.009390400376719657,-0.027076103465284523,-0.03253856820843689,-0.27379721949028485
0.02053845235572382,-0.08599107817635034,0.022419550224157484,0.004065454773763304,-0.0074947298131589225,-0.027319734428677234,-0.028172304655750373,-0.279522293806256
0.016851186785740803,-0.08155922577481378,0.027119054878843876,0.006365803024625685,-0.011732284777579828,-0.02926875924132914,-0.032944908234058726,-0.26348870643379096
0.021739747111673483,-0.06554124394250722,0.029726322628092237,0.005685496948489994,-0.00787110168537577,-0.026085875806140916,-0.026358180209012188,-0.2658564183018629
0.02273598161596601,-0.0767477698382332,0.02989083109023128,0.004185130284401495,-0.00280131803830136,-0.02420880706071221,-0.026026689229360384,-0.263144694359731
0.017722290297354032,-0.0855756653756945,0.02908272658542574,-0.0033689223744345596,-0.008659160429498568,-0.023887137918090193,-0.03223710172742661,-0.27295812373356826
0.021925874539992847,-0.0827843339947775,0.025916594656289496,0.005816639561871106,-0.0056427256188864286,-0.023593861167704663,-0.033939722482962544,-0.2716857779399697
0.021541551913837075,-0.06854259929594353,0.02203052850206736,8.319378940917606E-4,-0.01039155342915804,-0.029452539445126134,-0.03607908742345969,-0.2736248006626593
0.016240341081071922,-0.07728209040784535,0.024132090148483887,-0.008286532960153175,-0.005202297367343525,-0.02749240125418269,-0.04083900322093092,-0.2761218341546864
0.019692271978655154,-0.08934283973743253,0.01970503607130869,-0.004481266345752996,-0.008848948701326112,-0.030691860697793352,-0.03737390953309362,-0.25664140741237246
0.019041054085203072,-0.07187438532027526,0.025095391281270828,0.0030349546262091478,-0.006834561081135964,-0.031202845098699295,-0.032665305268068955,-0.26166020577506993
0.021004525385955868,-0.07969644312291059,0.022050010631771373,9.342771992611042E-4,-0.003899323276046224,-0.025511712416379416,-0.02948006672434594,-0.27060836448458875
0.01649310181000322,-0.06975102460509494,0.013604197429911695,-0.003972066974946508,-0.001623554228917075,-0.03159750673485062,-0.04293659195750478,-0.2597831486598774
0.016141897791324016,-0.09019697706450078,0.019915670974636104,-0.002640077550461441,-0.013699038066206145,-0.032534553235797924,-0.033266619973994854,-0.25926457476536485
0.020469618532593686,-0.07238249501254775,0.024424756102405368,-9.7168233051749E-4,-0.011797518682964617,-0.0257093652227306,-0.03752896046259981,-0.27060249761244093
0.022154315524386847,-0.06461832144986453,0.01868653735486451,0.005223322216667161,-0.001967643326778631,-0.02652368359977519,-0.03565886454566828,-0.25870966373241994
0.021428956150441252,-0.057992000781408426,0.02971949431542654,-0.00152356450758108,-0.011058352286288884,-0.02829691935206384,-0.03683142373425635,-0.24977267158199953
0.015885711535217076,-0.08860352774905278,0.021903641026345847,-0.003050431310279476,-0.012567786698927405,-0.023705581387820817,-0.02731942664805411,-0.26704787232244087
0.019315873962368453,-0.0644134102665157,0.024818196003043254,0.009099540547495533,-0.00649970796815898,-0.025856156160616654,-0.03685176457922089,-0.26738397774557326
0.019124872985772593,-0.06697949845007983,0.028537448699601113,-1.7220839243609426E-4,-0.007680883210866586,-0.026868149278395755,-0.03405731054609821,-0.2512200202210232
0.021363463886020055,-0.07389124575986458,0.027808929836728953,0.002889368711211733,-0.009815818236650389,-0.024538536002055935,-0.03748353597295437,-0.27069178373444575
0.015303240502506796,-0.09176659366922706,0.032618147885521774,-0.002096954498222627,-0.012941834875303078,-0.021017315560712346,-0.041755458842066794,-0.27592765450829976
0.019292741848952386,-0.06886551550093813,0.01771895805355702,0.001923358984954986,-0.008538821163320514,-0.02513078813610185,-0.027999751356033838,-0.2625850657995474
0.013366950075609828,-0.07037843977218723,0.02430693719578166,0.005089708998383102,-0.0030508833708194336,-0.027280071623541676,-0.037661872143935286,-0.25203129186479134
0.017604819554965276,-0.08360403685453188,0.010035106351293345,-5.816288310868508E-4,-0.0027475864903072126,-0.014354833833344958,-0.03203681707924745,-0.2664873930665913
0.019533158785328523,-0.08375845445723196,0.01668695552967925,-0.0028510161642372974,-0.006494095134454753,-0.023723723113920795,-0.031904102737256225,-0.2588916955243582
0.022965997648532906,-0.06701180739652983,0.03157074039967509,0.003515228217315085,-0.004553457913308886,-0.022788222605017946,-0.03194693607194725,-0.2501376123527247
0.019122323315705184,-0.06661215037299019,0.03118519737559997,-0.006222877533768304,-0.0069834200255177534,-0.02139294893339329,-0.028935261187900334,-0.2590547539635227
0.025298978207770887,-0.0686984293860168,0.026303421801451867,0.004072844533869473,-0.0028683954851037256,-0.021829816447309663,-0.029343514932220423,-0.2627221890784502
0.018363112266809027,-0.08792389559191449,0.02348518448246621,0.0011732186305858272,-0.007972150591309386,-0.019025643029251246,-0.026302959199415346,-0.25343666876496923
0.01506849725228758,-0.06727749691102514,0.024797895784517212,0.010329576949263841,-0.004894483169198238,-0.017357495011215286,-0.03522902421224299,-0.24908992851801776
0.022770168208079068,-0.07027735657765449,0.025724824217049528,-0.0016785034442918286,0.005188784543289899,-0.017752006595821993,-0.027254686324306013,-0.26469716991693454
0.014307195292290404,-0.07626224272468662,0.022094812270889348,-0.0024660462758151983,-0.005386869780569273,-0.012120118223861514,-0.024476036867803995,-0.2693596304762171
0.017948361818201804,-0.09258564258460418,0.034169696973018415,0.0020805237159585797,-0.008432766302726939,-0.015101767652490779,-0.024666775854986254,-0.27505600612371894
0.023224670323391365,-0.07127951924472174,0.03162085386862994,0.007868314802841071,-0.006559997971507454,-0.012855840842905902,-0.023335563282012937,-0.2575915110870094
0.019101593158681703,-0.0747770106042127,0.03046803155012301,0.004246368923312546,-0.00412643073357215,-0.016875263160210825,-0.0226698339303061,-0.25867545170472445
0.011224134383083022,-0.09345384000640156,0.00863536253926697,0.0014820152981134193,-0.004038944396276629,-0.013581499024299353,-0.02238078209590427,-0.2669046828412046
0.020577628154110045,-0.09023301632951244,0.02249277728270388,0.010146830098559366,-0.00846077351905534,-0.01505977204619429,-0.017822728816771514,-0.26151335850420687
0.01739051019164476,-0.07010461868091002,0.022172223857476126,0.007524283557189699,-0.010379698581573038,-0.011757672734137302,-0.02230899475989823,-0.2545954411384678
0.01339349814761208,-0.08001094439512535,0.017948548589022388,0.004372315968213041,-0.0040214803050728914,-0.01812488987937177,-0.023442377931559583,-0.2608829339586242
0.00906312288766303,-0.1073824825645885,0.02634138393776636,-0.006982041941935308,-0.009041741147091317,-0.021252853321349442,-0.020816185800166788,-0.2743317878003069
0.014999264745125496,-0.08353371033510593,0.018902871758472467,0.0021889028456997125,-0.009110701186507973,-0.012616055588066468,-0.020257041475560452,-0.25667423519946386
0.01625382771536645,-0.08975205291735011,0.026845051030193225,-0.0024945196586763766,-0.004299188101097924,-0.014877647254385184,-0.019476673425748766,-0.26208554560238906
0.014720148038819016,-0.08368627162723141,0.013919063155463983,-2.4643731657688575E-5,-0.003885268986810886,-0.01648711506606435,-0.018798876717377358,-0.2732699670609419
0.01084562208307489,-0.10877005422176325,0.025383832910241537,-0.001270841904438775,-0.007497538183580012,-0.014736221759385116,-0.025743231955878645,-0.2677048027742783
0.013219403956075149,-0.08111122252383389,0.021000715485566226,0.0058633836351862706,-0.0044199100102088424,-0.018090660280977056,-0.016431516561144242,-0.2527480373219801
0.016672713837473072,-0.08398455740655027,0.018413866169138864,6.142509433706065E-5,-0.006148540109151388,-0.012020970693674022,-0.020243593306854133,-0.25614036103112736
0.014944440125154146,-0.08526630795789233,0.025113246523271373,-4.823535171960015E-4,-9.289091177083675E-4,-0.018743784200232982,-0.016473967159871032,-0.26571367420881215
0.015818368689504363,-0.09462514838533555,0.020384452557612957,-0.005750207871277938,-0.010607007650765589,-0.014626926645182545,-0.0183292594285543,-0.2759241189477423
0.012986288159866178,-0.07778793156674314,0.025476160382967253,0.001303782078251712,-0.004578227710947994,-0.013592872863044113,-0.01984434673993635,-0.25034363268811843
0.014315315774469884,-0.09307509471436905,0.017359508875746287,-0.00421238834596976,-0.009575394692216006,-0.016965147020987455,-0.019475213874031276,-0.2739875599502169
0.011596315804817263,-0.09044853456067574,0.02445571193432966,-9.814433519106124E-5,-0.0030644082532392466,-0.019685219896458325,-0.02217024516065398,-0.2610505155620272
0.01131741267762318,-0.09648612741663964,0.013258565722987139,-0.004247365463488876,-0.0037367900144412813,-0.022121157120397496,-0.026945531323372178,-0.26768763206029833
0.014686740675212074,-0.08802039685424058,0.022256645976380808,-0.00215174823058975,-0.007983898933147524,-0.01680654746080106,-0.01890603716478738,-0.2645951431219998
0.011272002680803661,-0.08947878341206389,0.023601879853782013,-0.005596576747474396,-0.009557515427009729,-0.011789946386397857,-0.01984633100391602,-0.26239286940803763
0.0195047836159617,-0.09224957260281326,0.02333866026580925,-2.4270607674494675E-4,-0.009954301318234144,-0.012257461201465317,-0.025540800073232943,-0.25835706242846695
0.01157939627138044,-0.10405855787506627,0.017256297807171365,-0.002270363513704411,-0.005150225712533612,-0.0215431008193384,-0.022071754666756902,-0.2757030057896514
0.015812922183513548,-0.08476656938394395,0.028451344085236585,4.684954733768239E-4,-0.006300599303899377,-0.017498452167846488,-0.02248432672531897,-0.25562654608450136
0.016067076530368356,-0.09531464511213038,0.015733776667741037,-0.0033089426426998704,-0.006188698514217651,-0.02038879766865804,-0.022071977316047365,-0.2607829367081579
0.006416583211548891,-0.10588343180492304,0.011153722419945007,-0.0068482864397283235,0.0017400590031934374,-0.02182470600757746,-0.02188316728632268,-0.2589968809911818
0.01275480638692712,-0.11311310208543604,0.027639794347649054,-0.006309792416012117,-0.008474233114366311,-0.01770625122250708,-0.026113426750661382,-0.2740293088161961
0.016681188977082317,-0.08570465691033957,0.03358515389167563,0.0018794331153397371,-0.006240331682950517,-0.01629621567641594,-0.01816774113366185,-0.26799422604516726
0.012362927593841819,-0.0986366614027761,0.019468597320463084,-3.312300282967724E-4,-0.007422223562998533,-0.016139071789232334,-0.021720212373213577,-0.27541942086260784
0.009745749343149162,-0.10348539592844468,0.02665871902036328,0.0035623341423504807,-0.007859983742740752,-0.019368494055184593,-0.02411134357519697,-0.26344912518998514
0.01336339121918292,-0.11285632655341524,0.015224391608461786,-0.0013671056587949136,-0.00567468708112792,-0.018897463859762553,-0.022156494053155246,-0.2624766074817512
0.0089480257577268,-0.09516705032677299,0.019091533736254766,-0.0020331726654574224,-0.0024118892639565484,-0.019312780099378642,-0.01568549976820052,-0.27038363746454575
0.011758089235451907,-0.1022376206684962,0.017946128994498784,0.002023477034224967,-0.006702708243235746,-0.010751567891120993,-0.022214484323114413,-0.2673863145528406
0.0017382034745652823,-0.10778369194518009,0.01842739749981063,0.0016637633851211545,-0.004605965879131183,-0.014183098398356395,-0.01838902621817789,-0.26140740541891927
0.003777337137583918,-0.11926257463767972,0.013638628370135186,-0.005019213639860803,-0.003881688204810239,-0.016230909594296457,-0.024302999724436468,-0.2595512108508427
0.01188530234841212,-0.09903271525680553,0.014413242162370601,0.0023300262308603974,-0.0019744586265626578,-0.012671148441448683,-0.01544371558350036,-0.26778668896529123
0.008784211356328217,-0.10261414063972865,0.016367803526661756,2.546763064635721E-4,-0.005719955034198968,-0.01173550712328216,-0.01699401680781306,-0.2550415139805254
0.007277998700874549,-0.10536513103246763,0.01667068006259396,0.006432640606667981,-0.0033285360257198156,-0.014446975583627791,-0.013916412210456195,-0.2505433900497733
0.009077225852642848,-0.12254927153704252,0.01279838869395728,0.001912714032458173,-0.005274738256036089,-0.010627628181762537,-0.01655252916206301,-0.27333972398902384
0.009960258411672456,-0.09962652028093233,0.027086844037652588,0.012255377507660524,-0.0027530501804828027,-0.011191196408920783,-0.008795570896223577,-0.23967676162963783
0.0077349451504483205,-0.10246438187348039,0.015528491209619284,0.008439683945983906,-0.0011873010321460167,-0.007591661119176372,-0.00797654881896633,-0.2555257772236598
0.0073810725921664615,-0.10626100353196552,0.030225980954413586,0.01136505192345432,-0.003446603146831603,-8.666538348409987E-4,-0.004298633086561948,-0.25747234916745726
0.012852144536324531,-0.11529698106575154,0.0217409028638572,0.009540331102077882,-9.738752011470131E-4,-0.00800351173353732,-0.014769430344353577,-0.2639901974155843
0.010498143881571621,-0.09883715127988289,0.018605369093929208,0.018979149234843028,-0.005677795993359053,-0.0035741542625216762,0.0022753295044501583,-0.26120648785009404
0.012468627353406704,-0.0953225213248017,0.024211353007283887,0.015142175807836476,-0.0029526424604485544,-0.007762951668265912,-0.0054124568492429645,-0.2633046771888088
0.01014010644032986,-0.11540850864660797,0.021932380622025092,0.011886919470738113,-0.0030274841823042455,-0.003497933831374275,-5.880634685173911E-4,-0.26150374203117016
0.012017356518343479,-0.10905749953514118,0.023370834597555536,0.021963039193570424,0.004037928285125534,2.626647173929052E-4,0.004402052823591831,-0.263910640662929
0.012448778947718479,-0.10348557683306318,0.02499482977655197,0.021974238466873006,0.005768054036437245,0.004052638065954885,0.007893517920849852,-0.2558297618819952
0.014181457838757544,-0.09674837921606143,0.02489927133505994,0.02360723136573347,-6.091018924573689E-4,0.0015745749544528909,0.01803427767291159,-0.24035497130938918
0.014841867551993333,-0.10660893854630413,0.027096288822314584,0.019501518489863087,0.0042624283562694995,0.007188095739495762,0.008905806540172216,-0.24834394511589816
0.010412816558107541,-0.11865604026819482,0.019400159032032842,0.020404776902845978,-0.004039549831551248,0.004836013959688393,0.010012793404960215,-0.2509251849335771
0.010481208821780176,-0.09583414934576026,0.02922101513748769,0.027564512899705674,0.0068938394074188735,0.009070128410725747,0.011922936474173279,-0.25010171520061186
0.01883165773918498,-0.09888840411276391,0.03065060871880589,0.03126269014424233,-0.0032046070891080087,0.01077013343152815,0.015683130747525763,-0.2424709004349859
0.013709711813996859,-0.10524898396868197,0.031563980437891014,0.02695785869849366,0.0024610088484674267,0.011601624342742948,0.018765017647286338,-0.23110242976137949
0.010786529664441628,-0.10254159418033848,0.022621839287651543,0.02230288111937297,0.007341450800908978,0.011280313827923227,0.023225923037297067,-0.243546771058695
0.01875998224862395,-0.08969934229924761,0.02504813443933827,0.028771930732563792,0.0023492563103370704,0.01876253880159675,0.02137475436047239,-0.2445159964459843
0.01772440965186205,-0.08966363036549271,0.03716874375644598,0.028005486627258935,0.007513601952097871,0.01563881698983528,0.026077154859849603,-0.241209062854063
0.012497592362427406,-0.09804716276176602,0.036858082607127494,0.02727854946048186,0.005550112950300075,0.015874289138054335,0.026321779309479446,-0.24811825261751957
0.011996003374062718,-0.10440247464796905,0.030219198339669177,0.020804755322081533,0.006273005843416582,0.018355969995625807,0.03192999716398295,-0.2465382275660343
0.014160374566263517,-0.0869091389669074,0.027142173973149344,0.02825915402830056,0.008995419070550684,0.022676624298950017,0.02770168499060615,-0.2380712294461467
0.013812605190232478,-0.08330097963429053,0.025153813422987132,0.02980359421008201,0.0090398808713453,0.020923015999703882,0.029819944286330127,-0.22628741899421248
0.015462097378313493,-0.0948536817838751,0.03235910846398265,0.021983397280250578,0.006905392065733344,0.019749650367151584,0.03630425311028363,-0.24065991415988813
0.015610494728814565,-0.10144790259262096,0.040049442389688876,0.025062997278470667,0.005050659013252244,0.020947911342017046,0.04304829214359875,-0.23819632208364175
0.018413894085113878,-0.09396031396322442,0.03880407291791629,0.028095541090218064,0.010345802603307254,0.021165595830056245,0.04165108912944144,-0.2306453495887957
0.014785796298649938,-0.08461049296209722,0.036481158356945154,0.015791040669176977,0.011501024839222726,0.02850124478854654,0.036099371625980294,-0.24349388257430496
0.012026151203185731,-0.10085680614316232,0.03291240278692611,0.0171380559577757,0.00875594020578722,0.026053298078912917,0.043778681194787186,-0.2455599553587454
0.016517242947332304,-0.1050446870818536,0.02472830865003656,0.01881601355750396,0.009371081091383328,0.028393661933992214,0.04080712006582009,-0.2487455567224438
0.01875671963349463,-0.09971813726442878,0.04080388765616621,0.023724073877978157,0.005642064507488304,0.025552813355870795,0.039688640878919865,-0.24803381566100602
0.01796391206668718,-0.09555062580790798,0.04006068016675921,0.015143548214228534,0.0039777061054601754,0.02838390694662206,0.04121581608184857,-0.23888882254743454
0.014629111983238244,-0.09633261145184073,0.030678907032885117,0.020677415579336705,0.007183488212417356,0.02843489032864686,0.03445996724422366,-0.2503877751525104
0.016460715132535306,-0.10060872384813245,0.028189183722967782,0.02106001576450429,0.010184914520623839,0.029315144622268717,0.04212913654361059,-0.2501662629799923
0.010045511224549242,-0.08803464753377407,0.0301561908002919,0.018582775273886402,2.577075761634441E-4,0.023546828995285717,0.04186247087967383,-0.24672589106119563
0.017713970227369254,-0.08789960659934222,0.02757647199040914,0.014684045089599146,0.007037164799527547,0.020461790296853327,0.04470195597357124,-0.24408592777002075
0.015664181415834234,-0.10200950277058009,0.027834457930779037,0.016845200370910706,0.004271506799293419,0.0310364087885275,0.04520545262935894,-0.26363130652220024
0.009449013744228327,-0.10265800193345609,0.04081202453075013,0.01569313913671337,0.004985650512472797,0.029331527662673943,0.03994542519652977,-0.23384926044875382
0.01747739459694056,-0.09014052168940682,0.025404005939176282,0.017039095631227647,0.00884188614227607,0.02746286873942319,0.03804729792533043,-0.23882630199374943
0.015588290900122585,-0.0936587548878195,0.026600237947083098,0.018452500210973423,0.008554167782162897,0.02887622335563657,0.039717341268777684,-0.23926936051996955
0.014827065511219734,-0.11122707413498586,0.027495269501720283,0.017030258967145544,0.00956582778725167,0.02417568220533169,0.0431851753355168,-0.2666206159287754
0.00670088314412541,-0.11681373818309211,0.025708579788772452,0.00802565126242808,0.008898682174331901,0.031756421293380556,0.04041840869375218,-0.25078494732098733
0.019712974104780703,-0.1093091549383103,0.02803003695412176,0.01138765170896937,0.006428682481896525,0.03309570658384743,0.04290639158192383,-0.2489362621167894
0.015021883157356263,-0.10126528483690893,0.019288688695451563,0.015850371391574695,0.010553610909295921,0.03026400737028079,0.04247939689433185,-0.24896120567600283
0.005822305271537186,-0.10461461543851107,0.017570090687387834,0.01011727393418052,0.008204108160809596,0.02656015786903518,0.034343782285715024,-0.24457737553746794
0.011654685646362658,-0.10777587022682503,0.01685307488946022,0.00859643469515343,0.010193650968258446,0.024882389645149494,0.04320731190219926,-0.24617567069133756
0.018336572231660284,-0.10119253284310381,0.028964788601615336,0.018252328974099466,0.003944665898502565,0.028917358005768706,0.04056513779074394,-0.256619457097658
0.012516841517962687,-0.09333709789905424,0.019080847264577334,0.01192426341280652,0.008401696145325344,0.03004255763738323,0.04009675915247151,-0.2513211763502778
0.006877126164793853,-0.1123285277422012,0.0236690976857063,0.007741589342462589,0.009372850526576654,0.02884529764284899,0.0441606298979268,-0.256741135852812
0.013422605219403078,-0.11248850003267497,0.03200051944103934,0.01008078093083165,0.011977871095864191,0.029503871840574066,0.0454782782762873,-0.2513410072830494
0.01897246776896926,-0.1068980751545158,0.028805152377711585,0.012552351548225673,0.004721321221654254,0.03161549524294668,0.040745864334751296,-0.2466589603039975
0.017826521010072618,-0.11220087498326382,0.028018024965367323,0.0166893254028717,0.00851909867516058,0.028241488205251193,0.038906109868241084,-0.24637328103064923
0.010962544529595162,-0.10954084496683547,0.022271847778937814,0.008271259195288734,0.010146071124516692,0.02775036403890594,0.042429451915457626,-0.250415700689709
0.020197503108241262,-0.10224297670582308,0.02620049499137644,0.0065223436783405,0.010150611233292464,0.027507313183726314,0.03787774774088235,-0.23264775271205326
0.01320889317159658,-0.09468330623149313,0.025344124289000933,0.0055312664351048054,0.008548200787769179,0.02641995176098726,0.043867237300906296,-0.24450907800920757
0.01909833815600648,-0.1037462458390538,0.02784327142750148,0.006652752662938924,0.00944835127764597,0.02658641262198678,0.04449358235007016,-0.23486163592760576
0.018853826746423157,-0.10488915256479973,0.01739113197223871,0.010781020902569124,0.010048528231941732,0.02595237502926129,0.03614419085069103,-0.24849426437596348
0.015999362450863877,-0.09783350329688548,0.012811766114881263,0.010645208824638937,0.010191188071358204,0.025246263823281545,0.04010303896601365,-0.24791587268273785
0.0137988985376148,-0.10480361819882043,0.025536481029968746,0.008681361057046505,0.008351491197871472,0.027989957039290875,0.038962406434843895,-0.25468683045037827
0.022030185077063124,-0.10244929762829007,0.03572217475735785,0.0071019009323172524,0.008295234778358012,0.02449234361447691,0.045158828073269985,-0.2365320245105368
0.016945720230875216,-0.1128942280889427,0.021297511900114818,0.005465874374841467,0.014647725352058988,0.02347972939203896,0.03813919580305616,-0.2556906845776554
0.017507050816034864,-0.09708738797856162,0.03475574332896188,0.010620133563679851,0.014386284364137327,0.02438854612929401,0.039670552778758916,-0.24220426290438057
0.019344594705268416,-0.09989357294118165,0.024578106857219922,0.010399805167383324,0.011848999848852607,0.024487768751084688,0.039342468243763105,-0.24265763312366262
0.01927505257467778,-0.10088814502051721,0.017927516007015424,0.006641539841382826,0.009122144765210536,0.02090590371727783,0.03587190958416642,-0.2472797471519249
0.020140143747551055,-0.09934046666645201,0.023103062387722,0.009922005533457758,0.005793777463458023,0.02827199938374986,0.039144516528453834,-0.242267561980375
0.022002260494232952,-0.09660934303419234,0.019431398528511216,0.007699631807141762,0.012027126711194923,0.027720745761554207,0.044022476589695485,-0.22776920007371357
0.017706763904386524,-0.0942179432629219,0.028310429050381378,0.012245123276254934,0.015564601663884044,0.022032031640611995,0.03518602071732724,-0.22485933922012122
0.017539065669651962,-0.10234224595777365,0.012957280668669637,0.013738448123507534,0.006088856202123921,0.02052308283908396,0.040610877368720245,-0.2357528065728238
0.01597782544380459,-0.1147792523193356,0.027178529433619834,0.005000668716659488,0.008427160760423413,0.02579446740906505,0.04176912300410508,-0.23447612895930992
0.021745833527769452,-0.1004616572010317,0.030938936925407095,0.008674438356024931,0.015727343886333317,0.028615437434219085,0.05387857901373364,-0.24825041141404336
0.014127002952300278,-0.09545066332982241,0.0238973733347213,0.007638739052490739,0.007035667811831704,0.027069175196416315,0.04710062495553129,-0.22541530122957626
0.019207114056694678,-0.10338463936622586,0.02873513091966158,0.004318090578897117,0.01610924273111827,0.025456576177583207,0.0421607348207932,-0.2523292990440981
0.018744526384097782,-0.10939823530650797,0.017699503844421097,0.001109114202474191,0.005027026100838868,0.025985394239380812,0.04203479963035253,-0.23887394297237347
0.01781954832841933,-0.09598772424114833,0.028199201900712317,0.006950775982858051,0.00836038113327691,0.029098118177164997,0.04223563976143259,-0.2392987965138988
0.021672627885075926,-0.10424738859471598,0.03324387853469423,0.010258164663025794,0.010936488341833901,0.028784116180686044,0.04119744763695762,-0.2431870461122912
0.01998232298944908,-0.10889682499601042,0.01621800209915617,0.006941898531836194,0.009818791705160765,0.02360960733774282,0.0381525205463192,-0.2351304202531116
0.013295399336072362,-0.11576555807848671,0.017487561666984796,0.0013409051334782988,0.008242940302882541,0.03092510370067052,0.038227640453085535,-0.24377548671618604
0.02024553165335088,-0.1059238169587506,0.03124894032179881,0.01088955381556591,0.01169927791981761,0.026881714409297885,0.051900234614153905,-0.24811153709328354
0.017665880347678787,-0.10076276694872183,0.025609219463912095,0.007890113404757019,0.0120064911488949,0.0307646239190917,0.04045237816473769,-0.24722457151985966
0.016706770051897257,-0.10514087996106782,0.026985695052666164,0.012914642352277727,0.002532467410268563,0.027915303320710544,0.0378834715408723,-0.23898342953983245
0.0156014671332022,-0.11337265017403378,0.027596115920462527,0.010565427749292351,0.006043278294798543,0.02831193207614108,0.04387349782530335,-0.24437794124441078
0.020244491010772473,-0.0992112179035085,0.02720077883197695,0.010781082070294802,0.009325439234838329,0.030426959413147717,0.04529628712504167,-0.2532617807744453
0.014385830379015455,-0.1053285179502217,0.026542144520590345,0.015172419085632419,0.010014042767094307,0.030553910919875898,0.0435396194504007,-0.2507400688404806
0.013513187277126876,-0.11395494443422151,0.01936090844340697,0.0042208317237980835,0.013013937368027945,0.030758665914040355,0.044218650418873844,-0.24315790194752956
0.016084030535351963,-0.11823856938706166,0.01794590894861955,0.009101885183380908,0.011784400885458774,0.030900437870667055,0.047448678386604014,-0.24995487984973158
0.021384663972193928,-0.10948605140262985,0.029599769637203167,0.009152447083939518,0.007346363646940094,0.03354535670172547,0.04616766891212918,-0.2545611877538842
0.015282861396843954,-0.1028474781729952,0.01880447086035265,0.011703866031904606,0.006993408540481706,0.03117345876666245,0.04662201564949243,-0.26328313935683584
0.013381613452010057,-0.10045119977376249,0.03319144186506001,1.7461894927005482E-4,0.012203249323043137,0.03135387459923263,0.04089596557310396,-0.24878172505294519
0.01623941144197038,-0.11886567207117579,0.02751281956590068,0.011451323485000406,0.009500565883270772,0.028925329572117825,0.043038111744744645,-0.2635768137666127
0.014914869949471929,-0.10438264274811884,0.027419721350670473,0.017131582431822473,0.009638566239282224,0.031034706841339847,0.044597921181719784,-0.2528726463807853
0.016674018660771228,-0.10254658693898872,0.03652638513666746,0.015938857094500863,0.0057750601182391045,0.029003458341306687,0.04394255121819318,-0.2412939352210246
0.02134395988730417,-0.11438025632916753,0.027638635922974893,0.01200420824836024,0.006719040127519443,0.025140076841091305,0.036458020684455895,-0.25243152454453477
0.01996367668395588,-0.11502523598018045,0.034573133232514416,0.012167599739857655,0.014341579908405988,0.03317908210661726,0.04281793168955666,-0.2585269549528517
0.018695500136332515,-0.09837330491652942,0.026486165672508447,0.019580596058568652,0.011277769018907376,0.02791318773682368,0.042084453315680115,-0.24163019538408526
0.013694548509610882,-0.10817102859314752,0.028535208757557346,0.014097515680918308,0.011440405090093333,0.028056481044468326,0.043981679827025597,-0.2572528359646437
0.016439398290566645,-0.12076316515182543,0.02995335603417029,0.014802520921827683,0.004170072619720669,0.03025064008741666,0.04126448296487472,-0.2746337722766271
0.0222201610193582,-0.11872511980612571,0.03577170723087004,0.019149184337273438,0.011926360169947279,0.03182185024490827,0.04209932753837586,-0.24730384787033038
0.02145533328556116,-0.10944073363328014,0.035495737097808885,0.012314536737657353,0.009088120792612895,0.03648106551902092,0.04034052441689368,-0.26193336454229543
0.023982486995249692,-0.10376055782320219,0.03495178801954275,0.015202004779896992,0.009641504573134469,0.030438302021265688,0.04542805350650824,-0.25243379151177314
0.016083135611636597,-0.10982733300719179,0.015439220998744122,0.009372332063062008,0.004253232850823829,0.0305723641045741,0.04518521766916278,-0.25338567889246294
0.018531542181027594,-0.11047007523865943,0.02795411597083753,0.021167700595781457,0.010359468133469385,0.0318878058948532,0.043619785071842776,-0.2571849790018031
0.01804661261060111,-0.11260644725389235,0.021015010587528995,0.01889881902695898,0.009675730021854297,0.030222813049408798,0.03995113665338548,-0.25381447117534756
0.025409401896041607,-0.09513460528094655,0.036389656235439584,0.0139805619430453,0.00715061756029691,0.031671914655499726,0.042316587398294345,-0.2566115877119253
0.020578231184496414,-0.11130436111525005,0.02995878227414177,0.02051603374374941,0.013859933786622924,0.030158875180497764,0.05025810274896737,-0.2560992369773908
0.019562736169556217,-0.10153133266171326,0.03203639511562905,0.016576271236959206,0.009703492397510142,0.029642568656595186,0.04040823799347557,-0.258530997452147
0.021406937357263102,-0.10314600339867878,0.044028684065128235,0.019298331357746893,0.009238837550791665,0.023773492166114484,0.04466067665782616,-0.24159495274410334
0.02328166499146064,-0.11186848986581394,0.03529447528800071,0.02274098653176951,0.012197203635314645,0.032709880095430854,0.04286178969986146,-0.25607694193263936
0.021194829877320253,-0.11041431705289163,0.0286452193263068,0.017972766152477945,0.00702420004694732,0.028289876163668286,0.046530590558557794,-0.2532087854287506
0.01884464603776804,-0.10199583114671833,0.03790342022514031,0.025266157400930987,0.008373897153754653,0.0291602095534008,0.04496861258967096,-0.25491719499349175
0.02367389978955205,-0.10209968645815932,0.03069999480997779,0.022545745179775534,0.006625125495356913,0.02713978056014494,0.03713024572564917,-0.2460037582471369
0.018521347744233606,-0.11441072010679774,0.032728451944905944,0.013005884719137124,0.009568552364147737,0.03137749732180271,0.044973479897702034,-0.24690431639838756
0.021744985605797518,-0.11141161650607256,0.04847882208948572,0.017320255702008028,0.011081820469709534,0.0261269204269144,0.04001896750495161,-0.2549622530883817
0.024489084605201807,-0.09539027580084475,0.028581887825055295,0.02438847071011691,0.007004892819234104,0.027930713220410366,0.03993724077454127,-0.250121092941959
0.028109693079166217,-0.09581046265870209,0.03182719885448343,0.019105182464293758,0.010712350702944894,0.027663815734823988,0.04191039207547508,-0.23794454392370104
0.023443062284037856,-0.09294418414255368,0.018057999922577273,0.018441338451704505,0.012066353786183492,0.024158946775959828,0.03807118773465364,-0.24095901539547052
0.022672892769243336,-0.0983764472556711,0.03116634560844278,0.023708336094020004,0.01014834664767162,0.024380079379995975,0.031735919533033737,-0.2506592333480225
0.022420318575347285,-0.09079952019177395,0.026174022510767628,0.020351068366101593,0.004451473780786711,0.02444193115566073,0.03273972156320653,-0.23633922827770662
0.024835854314951306,-0.09276144998859721,0.03123964356684205,0.014341334701562276,0.006586581246990383,0.02669948140069648,0.024953050966347107,-0.24222800439268405
0.01635223347280216,-0.09994923275401787,0.03356345673603272,0.014898603594641497,0.010434991787129028,0.017153666847414345,0.03535660985089513,-0.25125064696961186
0.022861624797209556,-0.09287062969747571,0.04377919109753171,0.018477136790566978,0.010944976997009193,0.0271910313324301,0.04096830615836361,-0.2461198971992034
0.024646315241558733,-0.08051064218781882,0.03543895420265956,0.018877093095706683,0.017608955098652845,0.024285891258768,0.030640924857633187,-0.2360379026401319
0.021515860396431424,-0.09518430056001295,0.028210285494763378,0.02482496120465983,0.0048833961124588356,0.020264329062319977,0.02924509509837123,-0.2430910088828655
0.02276175575859916,-0.10169740308441119,0.025677616867169857,0.019157331908461795,0.006023594818125185,0.01951276611888327,0.030133582864523546,-0.23140218977512503
0.026703105118063356,-0.08202222898389655,0.03552318248831692,0.01641665586238761,0.011524047894724264,0.021952616306677677,0.029687602048844925,-0.25192233571892914
0.027400550488648073,-0.0688434707271567,0.03453681070038308,0.01858192998924876,0.011919746394469185,0.019802446771035716,0.02936611654743713,-0.2136371766473888
0.02653735575986171,-0.0828225867275873,0.028416942952712528,0.02453832783758619,0.006903670852467345,0.019452950030839883,0.029321621696413277,-0.24434518008556452
0.02594632154705882,-0.09609516446294432,0.029807501170218485,0.012931586426001082,0.009190035697409909,0.018976051814139687,0.030432673355590384,-0.245241375992653
0.022709652981759584,-0.09552701063711663,0.032558201591693044,0.02066508426093603,0.0073968379840292755,0.019225871064240042,0.025496498749324546,-0.2456368654743106
0.02904384672475695,-0.08157142604313083,0.03372032390637893,0.022910645108837297,0.0019464071683377678,0.014767750263090535,0.03446879732570758,-0.241195615544155
0.023139568446675026,-0.082802770702833,0.044531741434036355,0.016413166361485793,0.010916911722805398,0.01484278779961203,0.030877612099453028,-0.24140310009579158
0.02038244970224191,-0.0909065516849523,0.030048787666410056,0.017489678545045264,0.0032470048348033818,0.013506746036584551,0.03071880806005179,-0.24936681895892598
0.02946029331167178,-0.07625619190709321,0.02553656278434901,0.017775596001009662,0.009195577160311956,0.01738515718389837,0.02814030471642765,-0.24429052875550025
0.028678996528603215,-0.07771913617738221,0.027906626442796133,0.01248622252942902,0.005360767661848063,0.01801267198747681,0.024210594164301786,-0.2416842330573704
0.03164165993558329,-0.0837511471425266,0.03272020547177034,0.017680393344631944,0.00451666778438501,0.013633978351131977,0.02559371351590933,-0.251625670479469
0.02269160215712405,-0.09860112169070107,0.031189451880823154,0.014413296735982954,-0.002082040234843534,0.020671175672870516,0.024327393632930554,-0.2439089092947235
0.028323384331046725,-0.08031896874411316,0.03938190720076109,0.010998911333360633,0.005349607045612281,0.015173847283907794,0.026886642929685588,-0.2528296749999669
0.020854110810402903,-0.07810982697401643,0.02984687704469188,0.02265973228292334,0.0023106765565297444,0.016225345238076012,0.027283436355915187,-0.2445193433903621
0.02871469621140595,-0.08794551224398972,0.03135799623612983,0.011730786893167573,0.0022088965096012784,0.016843587353391976,0.021832978733154394,-0.24370883207677382
0.025143935907348425,-0.08816829721434784,0.04604861879329622,0.02049822085300663,0.002033129053568931,0.02111351753857515,0.02855623345471556,-0.24544300772919536
0.028278555698277218,-0.07746858506354755,0.03114179736892764,0.016261402350216822,5.264221339323782E-4,0.020728746776213666,0.021605023584898013,-0.25878297735638833
0.025429522471397813,-0.08706572494370876,0.02854814581661191,0.014773628110108957,-9.909220039321066E-4,0.01113532568044861,0.020826049699857088,-0.262881307334449
0.02490665546889714,-0.0887708799097144,0.020710841561612917,0.016733134617710897,0.001325823321848772,0.012010636987356648,0.013423749245162531,-0.2388008712239
0.02778450204757923,-0.09708259342321601,0.02395900675291285,0.02063182536695029,9.631824195310639E-4,0.014385035554145066,0.023553055759862492,-0.26299058241832474
0.028441615375428008,-0.07785940296105327,0.029284414661333268,0.017370737969506448,0.001993299023554601,0.013983477539743923,0.025717790967396535,-0.24682079603079157
0.02651011201242912,-0.07954702692654461,0.03631676922834463,0.01848183286697743,6.844224031307172E-4,0.015052820098018912,0.022705948956665934,-0.25062256629467083
0.024793317167869186,-0.08449077833262328,0.02781333504992865,0.015179406959374439,0.0015123401772512697,0.013854441838625494,0.025065043772064307,-0.25622017781462086
0.02912181702655208,-0.09461260343810118,0.030019148388158477,0.015527929098248438,7.043573889564172E-4,0.012316085648332847,0.018577052943606898,-0.25015956326441025
0.027993469182467378,-0.07844013690829328,0.03303513838385962,0.026218131497558552,0.002351998233903768,0.011837228507361752,0.01664926517611332,-0.2487625394859508
0.025092807425902076,-0.08705198816694792,0.036179270698986306,0.014159368932673042,0.0026880550197201083,0.013344513323362358,0.01448607723044607,-0.2623791100151265
0.022633452609498783,-0.1002278332388091,0.02383893315835918,0.01454900009462078,0.006635691524207895,0.00630366137781234,0.01738972733362689,-0.25317857462542387
0.023812052949393783,-0.07853284483365455,0.025795446673932784,0.01846041936633327,-0.008220840113746748,0.013099974052159381,0.018584412623041544,-0.2515124340273323
0.028730226665197346,-0.07754436255823707,0.027040864569050152,0.010932871921674915,0.003208885921178228,0.011876282298322044,0.020703803983450397,-0.23213327894191255
0.027004790364267502,-0.0929201120827172,0.026487606001683334,0.015236296240239004,0.0020281767946652616,0.006929143418667523,0.013466013691357201,-0.24765083211597286
0.02865556375133115,-0.09360401583165019,0.02702664012935719,0.012697883232435215,0.0014636204681376665,0.01383685814054479,0.013218384222709599,-0.2621815798544195
0.027539177365362117,-0.0778594621083539,0.03324833468983408,0.02421984563025179,0.001481817645125354,0.01619705928161514,0.012533000020808342,-0.2566850194341799
0.03174335266051822,-0.08765956145819435,0.03260697717433766,0.011304325869493995,0.00149885136624778,0.006905776820923074,0.016041645331093132,-0.24430150620315938
0.027868967911770397,-0.09094039679866892,0.029314462788623787,0.010485463063947022,0.00396775329049363,0.009459115908307052,0.01764446816256248,-0.26971001003454037
0.030037142650970336,-0.10286599244988928,0.022902509094156316,0.018128905118856325,0.0016088651396570098,0.013320846940492912,0.012168045757625003,-0.2566676457810281
0.02653978904365348,-0.0817988627490564,0.02252372500005686,0.01811307832344513,-0.006233146090767184,0.008245103864798159,0.008803163159623735,-0.2588327662206924
0.026774654502006463,-0.08543017986166372,0.030733805751831836,0.012117441110423796,-0.0010257361324749754,0.00909078709441403,0.02261419557345205,-0.2573429760233895
0.02323139836466365,-0.08171689379009697,0.03385761654523604,0.016957754024967495,0.004120160321926581,0.00826054260226891,0.013978488228228574,-0.25148699114798734
0.03047438231914254,-0.09209846215836416,0.023075970729194272,0.0034525718964335357,0.004396068659295927,0.013733618085003715,0.018960387794121857,-0.2602923306923326
0.027144653265998134,-0.07325641371310891,0.016540904336479655,0.020274608981851013,0.0016375813405678182,0.016119822829448523,0.024667010633901847,-0.254390211550317
0.028808708976115028,-0.08818471644926786,0.03153454186147388,0.008975307071380148,0.0014062058858701492,0.011676281086690495,0.008661718260900553,-0.2469914774049932
0.0351302283289328,-0.09286713185311321,0.03681535645664181,0.015866182785136802,0.004988430008966027,0.010992683679298157,0.015528759960533857,-0.24035615434429058
0.024690761817347962,-0.09379043928733126,0.03086184119162518,0.011866607869210519,0.005097828228061274,0.015063493810396738,0.025312135072590055,-0.25571705348789653
0.029743414968105487,-0.08167769133636843,0.030911914026960297,0.01587190300901358,-0.002805513130955426,0.014881989021161605,0.021796782308870364,-0.24765972787256643
0.02659449693744984,-0.09119797403013843,0.03471793929327352,0.011290661717896737,4.776956418724249E-4,0.013895216949702057,0.022276345826647528,-0.25309266123259644
0.03097567961959297,-0.10279179424449447,0.027333022123022598,0.009703743529506053,0.0010736793046389605,0.012238554109708467,0.019308821758578378,-0.2608653866618169
0.030247536862458294,-0.09975102603789021,0.03688683075432829,0.006939545558272381,0.005696737010878087,0.01398470720784375,0.022492100943917823,-0.25721795580965423
0.034891688245934374,-0.0766817514576873,0.039777774504817724,0.015354185111746367,-0.0049473634832633675,0.016801652497123495,0.023755594632156388,-0.26426884796540767
0.030015487450157273,-0.07774763891674398,0.0319412692465784,0.016125870655699665,4.369055069989783E-5,0.012552478093315177,0.021830503779177654,-0.2574123445308806
0.02716440320731854,-0.08725931006265546,0.04177262419179683,0.011997170469046088,0.0032963668467417954,0.008504355829925597,0.02417723748111078,-0.25761095972235487
0.02864532502085002,-0.09922075707481112,0.036265147403509466,0.017494729089134048,-0.003369615845543548,0.015353897570009352,0.019874134671932605,-0.2631090987002943
0.03480307231673684,-0.0841574360334871,0.0268969356297297,0.017389854671902388,7.321763236513304E-4,0.014932396950522028,0.03316777776191369,-0.2571567059432932
0.02585071289797765,-0.09530318852315654,0.026202200581781115,0.01503434287817322,0.0014852609620667828,0.018712984882515202,0.029816274338953657,-0.2593605061339304
0.030730228143892535,-0.09120052534276696,0.02626647712644081,0.003348328436268297,-0.0033615882588180416,0.021335701431411946,0.01915396875986873,-0.25644599676196655
0.028860398848014675,-0.09661903329347762,0.03154740562645666,0.012627212524519838,0.0020333438472429945,0.020752216206177013,0.03113663158178912,-0.24804376207721096
0.025228343949707386,-0.08429732750606508,0.02831175357856404,0.01705766155349119,-0.002960571063495483,0.021911501585157412,0.030775766058276987,-0.26985989791286574
0.029741653925830204,-0.08997134782599568,0.028166372366577295,0.016334417404023492,-0.002530066936864354,0.018495305778120218,0.029973855651504015,-0.2478473498863977
0.027141897857564257,-0.09473102790725764,0.042483172095802095,0.010576708114897958,6.685911589925842E-4,0.017025996066328396,0.031238022878171054,-0.26216175780750256
0.03028715067324667,-0.09992850562501347,0.027108679399196554,0.022683191146311094,-0.003498727269925542,0.021561633245113506,0.03770989032565397,-0.258125062376519
0.029597478842622617,-0.08398529524618079,0.033256500371753095,0.0161227632433737,1.871273455489566E-4,0.01992615357099604,0.03323721464080395,-0.2696987565935899
0.026381870245593183,-0.08712119533905477,0.03118785791755656,0.016910310582447487,-0.0027607988315810007,0.01888435520298287,0.038982769781963585,-0.2610764446728721
0.027122303363931313,-0.09423883737134196,0.03125491994509746,0.013909621150669208,-3.597803285807202E-4,0.020903222087252406,0.03807213916363211,-0.26480785782925265
0.02886904269886844,-0.09445270061107147,0.02557526146040188,0.014554750381020134,3.281609025069018E-5,0.022915513109650756,0.04074361005175072,-0.25918489884564555
0.032043216086457514,-0.0857029925001023,0.03236270016062898,0.015556210945354957,0.003739219317765099,0.019565354905105692,0.037798103303624306,-0.2665337269223363
0.027469926369076088,-0.09515590732277145,0.02763568031167679,0.017487954837570232,-2.9538316241889114E-4,0.01854819622125568,0.037710511882505696,-0.26327609916940714
0.02408551401234631,-0.09901633772035966,0.023795854703114048,0.00891533644521457,-0.006446365945013642,0.02126709118756559,0.03747891253053236,-0.26107770323458934
0.030362271840056344,-0.08569256038479896,0.04421687179997816,0.01771631629084984,-8.895267720898443E-4,0.021454469384416516,0.037205061905675595,-0.2654939607261368
0.03098163090830318,-0.087331402026932,0.029775150323819968,0.009463463078075914,0.0040475318557359466,0.023832806733913723,0.035173826572022705,-0.26321622388032023
0.03063246771334547,-0.08819036898202824,0.03288307646359046,0.01882343111754205,0.0010870472446815286,0.015861061817828103,0.03247961666925937,-0.2678947751259212
0.0281386096423973,-0.08874564162549081,0.017895630643573062,0.011120429213913045,-0.0038125593944278845,0.014815800142153343,0.03364056526154496,-0.24402689062087357
0.031626148082653086,-0.07577704525085155,0.0316867088846592,0.017723909411955542,-0.0017356890146617205,0.01934709517895497,0.03693130639237839,-0.25154342696423937
0.030353326733943444,-0.07783497753135361,0.03359831919990077,0.012717007646143167,-0.003210300841183727,0.019692393790254874,0.03426310590418907,-0.25160506806251826
0.02650356644221481,-0.09474685674686431,0.03355993703355527,0.015280890404029409,-0.0033056627404035636,0.014663398748662633,0.029272146229400667,-0.2563868221387814
0.029038788831251428,-0.10265502898645516,0.039088311025042864,0.014501392125036846,-0.0028815377384846077,0.018230854591837143,0.03875787635167078,-0.25621056767377703
0.02778665440558713,-0.0854975656679728,0.03795835233542646,0.015629548944740827,6.889035154708534E-4,0.020448361029718747,0.029899374066252808,-0.2572416811049026
0.03347678058258944,-0.09131748177172713,0.02995464982053625,0.011833450457852444,-0.003795343468542779,0.014864268985359207,0.030550813200250257,-0.250717311213741
0.023949945252432762,-0.09437589739074777,0.019695024861520877,0.004444673964039235,0.0012288020231698525,0.013371760119146897,0.0230984768962759,-0.2401884433089508
0.032441198557447364,-0.08566767479283177,0.027489764006216895,0.0172355783009889,-6.689125515339666E-4,0.017545636175135992,0.02123029228838195,-0.22818356071621393
0.027628951109735598,-0.08738056885071846,0.02850997347802489,0.008823724430975167,-8.903670153801042E-4,0.01108950116732674,0.024988471419644658,-0.24406106286764145
0.027443635025215195,-0.09800368206679928,0.02661797998711612,0.015315589023931672,8.835358791124672E-4,0.009240366562342409,0.028229781337763587,-0.2349353472709928
0.027217822225578264,-0.09562943688182898,0.033390733659530686,0.009366058131670586,-0.0021659029602185257,0.017953585361572023,0.030551740982423053,-0.2413903012067035
0.032794208605550254,-0.08793401812357178,0.02477155082092569,0.013828074414968246,-0.0011404928304455868,0.01428240289577413,0.023624763263780293,-0.23762450979921176
0.03269705303301977,-0.09103168407273798,0.02355624602641206,0.008293777494285877,-5.773896056223474E-4,0.01572654034048315,0.023608210353101636,-0.24582974145191772
0.025878302264010347,-0.10995198077245269,0.020439026815738722,0.0043133959476672175,-0.0028954097680693124,0.015483099863184848,0.018126897744975907,-0.24355136793655494
0.030039705579008848,-0.08733294263302586,0.03831202122957306,0.009247406359090254,1.1606838769008173E-4,0.014266955591533419,0.02854540437927244,-0.24286221173244554
0.03279235613470539,-0.09564022810387973,0.03095318384485858,0.006887826189893858,0.002594935912655003,0.010787776099000912,0.021841223936263435,-0.242268269757034
0.029822108350552216,-0.1017304912776153,0.031290647347187686,0.011266847062928438,-0.00619282199234378,0.01051220523220073,0.022897624097457287,-0.23597024035329886
0.03429107681951569,-0.1105365033056148,0.035960839127456325,0.016766662152177095,-0.002655236790772356,0.00731715620832166,0.02197454977444251,-0.23523442973228942
0.034286578870035396,-0.08350727850802711,0.0320037767813365,0.010725915400054426,-0.004465954610589072,0.012949165685058368,0.026879362641602404,-0.2288652494714482
0.03401145009546293,-0.08714115329947779,0.03319245325201794,0.015150701840453392,0.0013061423547871653,0.015422544723929264,0.028207721959878407,-0.24261101418492378
0.02687721564758838,-0.10370148923923483,0.03299566472853824,0.01366721446128399,6.552390957623337E-4,0.0151443955192907,0.013279529404994456,-0.2178096852062351
0.03203933330454932,-0.10098800918173224,0.03518586643479334,0.016250806732512727,0.0010644293440552005,0.010110440889549552,0.019651962194682678,-0.22375834954818394
0.0351743405912649,-0.08367387181244569,0.029145356104647774,0.018069946394224025,-0.003514944772906441,0.00791558375004219,0.013264600604090506,-0.24406117766939023
0.031179062083627834,-0.09710698690005713,0.03842157263962023,0.010861607943927756,0.001080760930866325,0.010305296878440331,0.014263281642446283,-0.24111506356581774
0.03333818891430524,-0.09929111753375884,0.03316318472699974,0.014821943031830131,0.006019418062954139,0.009999377257677307,0.015238781904201214,-0.24381005317102755
0.033026307364174716,-0.10091346011359513,0.0384659050147354,0.014054865252712484,-7.425306816191045E-4,0.005478576468825695,0.015458520569375833,-0.2512731974457699
0.0387340962295446,-0.0797378726519615,0.033401618359237245,0.015724045324566952,-0.0022368161971206913,0.00609729777227385,0.013268646864409763,-0.23516820111050327
0.034748503892652535,-0.09337705805925463,0.029029628147201624,0.013648771703137415,0.0024901444592964543,0.005872244345204716,0.018625048186524017,-0.2517817848014226
0.025797841305533375,-0.10903582235655915,0.03942102090923198,0.009759528845393111,0.0014684007188835214,0.00897185188034039,0.014157007498732407,-0.24584898670582517
0.03485181878292798,-0.08515485290253427,0.039583025731088725,0.021807169988518612,0.0019181476605803754,0.008663800425459662,0.01211570935245829,-0.24811811992841104
0.03800345791336638,-0.0842938908331567,0.04347391353680202,0.01935097036705961,-0.002180173746912402,0.004100594728810295,0.010799659529306952,-0.256551772821754
0.03570322406110215,-0.08558006365124801,0.031160829923898327,0.022268294537985484,-0.0036270635040186482,0.00613582758896689,0.00702598819095344,-0.23925186042638186
0.026814827031696752,-0.10058203816002739,0.043322952620137835,0.011833237148982136,-0.004992669896580697,-0.0018608035679073863,0.007578125522153768,-0.24615691654580005
0.032604575948263936,-0.08669245691359463,0.035919699059796514,0.02263946783576322,9.424363959384529E-4,0.004567077427324158,-0.0010666314575917342,-0.24018827335431697
0.03588489508987025,-0.09203819295147835,0.02912086883191294,0.022083690818093415,-0.009640327681421845,-6.007414162403018E-4,0.0016210562911177714,-0.23351693935910822
0.03844185181197542,-0.09518471212610383,0.03351759458336562,0.020303475413902487,-0.003186199726552186,-0.0025140806957892623,0.0011160490797820827,-0.24514968047272506
0.030143113676469522,-0.1057680047676782,0.032195759609661465,0.020718557893101563,-0.003875027757711668,-0.00394590776013202,0.003168461951263897,-0.25656737183400796
0.03664865393519454,-0.0888585619116826,0.03381574205097661,0.019683870795315517,-0.0012926613119716031,-9.742033415706435E-4,-1.844213061789192E-4,-0.24859942840885857
0.03581380143006453,-0.0961986313985563,0.038318038229808185,0.014252202206490119,-0.006567155421096371,-0.004425026298020772,-0.005483183329799945,-0.24226221529037378
0.030187177621483215,-0.0966708042114767,0.03813516997316724,0.008435176927283164,-0.002542478680920638,0.0012449535005810196,-0.009415995624643824,-0.2684120429089223
0.03046949589108703,-0.11073178434069805,0.03425585911293789,0.013909002249820147,-0.0021025531948884223,-0.00562103801899964,-0.005154836206276116,-0.24667706296221253
0.03262899503741644,-0.08641713796167788,0.04347441883418631,0.018418181583713226,-0.003998949469889056,-0.0010560887410499765,0.0030911685026336054,-0.24961555996003928
0.03751373962910226,-0.09297033692744731,0.03196540278433567,0.017671656546409495,-0.005201259618312291,-0.0049661789516010305,0.0031661433885490854,-0.24518229131162295
0.02854958778222758,-0.09635371295960517,0.024773170791076927,0.00841628603551886,-0.002161611545391171,-0.014491569114832414,-0.005052207221135417,-0.2343802941192274
0.0205249568182552,-0.11054584195419848,0.0344954424471678,0.016004353945941366,-0.0020435041583241145,-0.0058336032030888605,-0.004151929170583221,-0.25941618771487024
0.034913024743465415,-0.0925380381310352,0.032045029602025675,0.01706037333518915,0.004426567863386856,-0.0031436187402090494,0.002588319060737915,-0.258907144413654
0.02873300652652624,-0.09114114132588935,0.0397730735134298,0.013806766192782422,0.0031149083125603877,-0.003944340292967211,-0.004041364387913561,-0.2501424736626111
0.034919801369939406,-0.0912154790959588,0.03471043112966332,0.012573977688071992,0.0014760161943012725,-0.00783745726794017,-0.0055634665143846134,-0.2506422772451815
0.0254924309418627,-0.09816066127195965,0.022061852252237474,0.016660837668159508,0.004257558017752263,-0.0033357135203381477,0.002953793255478181,-0.24892933076285173
0.03286099901405524,-0.08645531835477023,0.029366836316484533,0.027317457734222037,0.002886348463393708,0.0016816320648630212,0.008014604468114389,-0.2521407253417361
0.034749919611426545,-0.0828273879985588,0.0332383849083239,0.017318423802620234,0.00396436079074795,0.002428500119519899,0.008161661874428702,-0.2516764827015121
0.03575511912435661,-0.09621646945647329,0.02619845354573374,0.021503071477006953,0.0018159562097703006,6.972538776522695E-5,0.0028607931145184827,-0.25611602280582196
0.02708107428910435,-0.10780992084500292,0.04143810981479288,0.02022335202564745,-0.001345447763186393,0.0017524808389999945,0.006441265501319283,-0.24394846881864551
0.03263426947887315,-0.08496040998902238,0.03729807618432885,0.025213286494183747,0.003727134493093591,0.011479828070379124,0.010900084099362727,-0.2579124677925951
0.036382347692371,-0.08865149227020144,0.039135147627389864,0.017528643382620702,0.011757547708875778,0.008212615287880533,0.008187500215707503,-0.23477518629224997
0.031988871775771366,-0.07974504541196034,0.03293221358722731,0.02336216941044701,0.011371159063810917,0.008454506511787974,0.013369380830935475,-0.23178879229241584
0.029447940312879346,-0.07829197604342793,0.035934891402125635,0.02542899828306881,0.004665189373777412,0.011383149826766385,0.02552611457300531,-0.24113975854738706
0.03394405455996113,-0.07429430912423815,0.033066591173766154,0.027427160903274742,0.007573547435003698,0.01680110777622675,0.029412534932618032,-0.21928102394744603
0.037566324286267716,-0.06987088688913609,0.03702226302378712,0.024204904945094242,0.010703978532191733,0.02122681766316114,0.02615526521837874,-0.22139432123678243
0.03672510927798007,-0.08862094038315001,0.028443000972733397,0.03022197356073953,0.014158267196609326,0.024221608071739936,0.03652839149746016,-0.22191678317016755
0.03877091637493342,-0.08976429184370607,0.040699987904893216,0.031062053111658543,0.01596467732491107,0.02741496591236225,0.03439780715517036,-0.2349143203954297
0.03604613313521584,-0.05861920717421843,0.039632882973881574,0.032856449724725366,0.016769416739372454,0.02986925905476317,0.04336309633788052,-0.22304478001590433
0.040110292356655995,-0.06451637877672928,0.04394375823784554,0.03173152523664926,0.008634401094329777,0.036545167055082456,0.04749433560953057,-0.2130616832653761
0.03571243248486644,-0.07035935376587402,0.03653601213787086,0.024627975199067863,0.013951199675888782,0.030679961206038903,0.04888010763524105,-0.22742948068888602
0.03453724920854115,-0.07429479193948614,0.04551212490285099,0.029122648448692393,0.016909291861089054,0.038798710663509275,0.05351326220636487,-0.23498138677968197
0.044229069202528545,-0.0550421250762231,0.03501127565426396,0.03370911629524271,0.014930628636860791,0.04710516076111458,0.06940472383862627,-0.22086515479104513
0.03866550697171333,-0.057825118912663946,0.045144351147471146,0.029305049206878486,0.02503737316653185,0.047435612491070187,0.07071737256997722,-0.19987544993880124
0.03411547881145465,-0.06257605346062327,0.05000800225542606,0.03439835228832238,0.016478608114443634,0.04656221740610923,0.07212713978933635,-0.21124566906808814
0.04521838251621985,-0.0674798288291512,0.03179393742661208,0.03656791060369561,0.020325081441403256,0.05547799537604631,0.06898898872050074,-0.20855283864349444
0.04467363738113271,-0.04322882330042235,0.04409313321678059,0.03817450904872544,0.018921867493568976,0.05550099381007835,0.07732630911596262,-0.20773385357935345
0.043053021832889504,-0.05706105586230897,0.045080596866098666,0.04011322683451215,0.02075329471448865,0.05577736599839478,0.08170530453219291,-0.20476979018034944
0.04530442691217878,-0.057214980179670555,0.03932808840185328,0.036264635797555414,0.020113711162487353,0.056926209504443735,0.0771624794318017,-0.2075642363834499
0.04195698453780873,-0.05910628736473311,0.046441754671455074,0.03439233711296734,0.021554156096815238,0.05277528955265147,0.08384595213831919,-0.199889617816001
0.04453764305080469,-0.06151601240970606,0.039939161157207526,0.038217943768507574,0.019990703639566756,0.0565388589520793,0.08109329122385583,-0.21184039197518245
0.045335335519200805,-0.05021644133422905,0.042349526537235616,0.03787704881667802,0.021955243282940455,0.05576279888164429,0.08460392948605325,-0.21825782402010885
0.04040314342627453,-0.0658576980172736,0.0423293287295708,0.030322749675599264,0.017351509911399488,0.05425250883981785,0.08005076376560746,-0.19847644984916069
0.04633887788742731,-0.05942695990089746,0.04437970432920464,0.03781376588794284,0.019587146424774944,0.05226797687767933,0.08243933549260693,-0.2025574924629931
0.048039604778500125,-0.05214995518553123,0.056792112950031975,0.0397688334630087,0.015059318778179188,0.05444954615212466,0.08231107225089875,-0.20573930892588
0.051501336803149486,-0.046639265565386674,0.04866754575315516,0.03353877534382073,0.02351593189049823,0.04942108868801342,0.08322848071778989,-0.21043224598719779
0.0403190912290239,-0.06456807748954475,0.05109088741993613,0.03576983252046346,0.01378040538680946,0.04846415507879156,0.07493095965004211,-0.21787874368542853
0.046092246781864604,-0.0689029804464704,0.045158107809703696,0.04491215824794036,0.018204360897392222,0.047568516899747275,0.07679998808726854,-0.2154573479741312
0.05021619761995845,-0.04533409766694864,0.06401699904760338,0.04681130338538672,0.014773051540966205,0.04793514323563853,0.07929021515355003,-0.21319058205646177
0.047415754757207954,-0.04555837080389137,0.05271244059369026,0.03869450077063011,0.013309460920927444,0.05005973892261585,0.07687364903193837,-0.2193191324447806
0.04580216806625369,-0.06271487755322257,0.0564977980404644,0.03546068984644165,0.015529461755944952,0.05277861096015556,0.07984067701120479,-0.211272862271311
0.04785197889917054,-0.06684624929262685,0.04513321492731257,0.03882207299698241,0.016808180340081542,0.046601636928591754,0.07296224226400015,-0.23053686058002731
0.04687959376220335,-0.051456606265848324,0.06680983975237346,0.04174398721609639,0.016268468479580224,0.04306212922226336,0.07889896734331293,-0.22656207864715233
0.045816614252574196,-0.0459555886072831,0.054827761589839236,0.03913270787825525,0.006506788878410247,0.048513159191536065,0.0749076633487392,-0.23165003194791098
0.04853381063050216,-0.06426267848751331,0.04652776806826029,0.035046696449267015,0.014816639154331528,0.04011328309161691,0.07628552161060655,-0.2178993935058029
0.04336821006903718,-0.0747526495562107,0.05395100814827393,0.04766761611344782,0.010346929725597042,0.04348591207092946,0.06859475663044702,-0.22968284349968168
0.0536589869875688,-0.04409250235148257,0.056264478681672,0.04445806874254247,0.015142590341361133,0.0466156240195344,0.07659481717489047,-0.2119014032183677
0.04924931646946833,-0.04892016522345541,0.05043506343900087,0.048355823032861345,0.012741447828935328,0.040648903535299916,0.07583023342959079,-0.22783133903293112
0.04742367643253996,-0.05943585105050203,0.05492691089827371,0.04303307863195438,0.009208522562805396,0.03987118257719618,0.06975772553680482,-0.2336646352538234
0.0495552186277953,-0.06719792855525335,0.05307711031724155,0.041894111127560425,0.01888438228552641,0.04107718895622614,0.07305573475571392,-0.22577882503819477
0.05412455732513018,-0.05066399762271634,0.058191420506701265,0.04748177276458731,0.014548795042847838,0.04310013729059868,0.07207433532181903,-0.2254678564124171
0.05214154506621634,-0.05385085983693987,0.058584354107281106,0.05318410916123125,0.00868956325861984,0.037178816147960196,0.06850111840353493,-0.2193433911341868
0.04883332774443921,-0.0528205273529099,0.05060152400675472,0.04880031658452021,0.013215930843005133,0.03723726185740953,0.06880217112808668,-0.2219176208916557
0.051602755249382654,-0.06259644441409545,0.0494485532489331,0.04432777573962492,0.01575219889647715,0.034432350399512736,0.0720546422972111,-0.23362339060415824
0.05919083680930528,-0.04574231498055952,0.06868967163285074,0.05450156914783298,0.015696783969848322,0.03953398938675722,0.07071493659054925,-0.22078295335693723
0.061725888022775295,-0.05548300324662012,0.050350768289483136,0.04465487820523584,0.012060730319917364,0.037704837262366224,0.06542041149455147,-0.2184395632461193
0.053606324731300274,-0.045932083884699576,0.05783026741983407,0.05062547458417043,0.012415139409672501,0.03781521339378411,0.0669619435609786,-0.22456465278813617
0.05369687988747109,-0.05333770453784194,0.05407775270013087,0.053941374559162404,0.013268588300392816,0.03424344621956326,0.0642668980012002,-0.2242911504066025
0.05992357111543851,-0.04419389690188259,0.06110765277565067,0.05282356863101572,0.010228039294857829,0.037469990492054836,0.06515156155745676,-0.2249730461297512
0.06346898148447908,-0.04181009143914372,0.051001597550038136,0.059615994029490506,0.014450356869163733,0.038675915455987364,0.06632379290388221,-0.2082455524148088
0.060340728436530496,-0.04127594689871749,0.05843558275707879,0.056727094461622767,0.01576420535976815,0.039090939558118265,0.07440905757336787,-0.22665031578110767
0.05253888473976905,-0.05145555149944566,0.06238034649629825,0.05248766246334343,0.016319391966210545,0.037547402157688106,0.07168462832485613,-0.2137591791280008
0.06147456053493094,-0.03250834715890839,0.052941628149738636,0.057636855329623406,0.013460377728164661,0.040803989572746696,0.0671433204269998,-0.22074751710762788
0.06390224792118977,-0.039150919753328677,0.06139909254836555,0.056964213875892795,0.013433949911286972,0.04296344949185129,0.06569110818340514,-0.21404769827299147
0.062165122065259336,-0.03786265907098262,0.05057655168492245,0.053467449335453665,0.0165076436457546,0.033349297353870065,0.06834400907178262,-0.22314404258887577
0.05847840931628155,-0.04742815268288562,0.058913372911871466,0.051099237488918405,0.018597301764933256,0.04148163850132243,0.0654437873443703,-0.2128897245758592
0.06668400309302285,-0.04376416135625741,0.06720299847706714,0.060137253584178554,0.016547526542638392,0.04150454245151821,0.0671847999429715,-0.2135115455831724
0.06912676950478587,-0.031144406539080495,0.06477951142973443,0.05844711715233498,0.01175867630336093,0.04173307327179963,0.07102038980468244,-0.1944182103368985
0.06748891062688239,-0.039118852398324536,0.06429897536212925,0.05525736590232218,0.017014458737772617,0.04305926462745322,0.06718264126872209,-0.21211043365413948
0.06544693636870282,-0.04937476761872739,0.06461576919400704,0.060189939412707665,0.017697319325855478,0.03695642123861599,0.06922481471949063,-0.21018786786757637
0.06720744975190507,-0.03748421667643739,0.06292039489814935,0.05834768407013868,0.013372120110826766,0.04124701328012229,0.06998989741790797,-0.22086578658163616
0.06800631509369949,-0.027774517022949606,0.07889740599950353,0.06541645904815134,0.01772221344877108,0.04140192026226676,0.06308075134116843,-0.21430434880233357
0.07229868746296819,-0.03997514116521431,0.06124646003356824,0.05737124225004377,0.017281119266395403,0.04282770289187528,0.06244430853490793,-0.2108792051814938
0.06607052561953547,-0.04714687133703201,0.06909528552239147,0.058022005380164034,0.01951098170261894,0.04488722236483637,0.06781765199086595,-0.2190071711452008
0.06840725442141052,-0.04566037244054104,0.06119085152086731,0.06246033764893894,0.021482805075383395,0.046238205570194084,0.06798742891156077,-0.2224712066969928
0.06724332090926438,-0.029642604050547465,0.06770750409192461,0.05938350210603212,0.018020154171758136,0.04206223317736173,0.06630004486802833,-0.20396439010640424
0.07254878313516218,-0.03062503830212824,0.0610198828242997,0.06797866585035836,0.0104178593656665,0.03681999732710886,0.06718933155209574,-0.21399983628347433
0.06798136981333193,-0.0394173065434087,0.06097620809241479,0.05340892312592119,0.016784451273241265,0.03647196726656291,0.06611165612618645,-0.2230978287395324
0.07080796965117478,-0.0532099100345187,0.0634876359446369,0.0564504767619606,0.02075439839323599,0.03533931588226137,0.06649254833728983,-0.22184203548252018
0.07412510123304475,-0.024871696574679563,0.06810316744786082,0.061823939554926106,0.016188293299697936,0.04172974828958943,0.06748343176218374,-0.20731545701721563
0.07606290238201494,-0.025077442786563143,0.06701053137677723,0.06362788895346755,0.018914506283881777,0.040902848916117424,0.06606299877809683,-0.20312349740533436
0.07003488220945543,-0.036825975909114426,0.07027075345012074,0.048147847608850575,0.013615857769061587,0.046103774422819085,0.05832160447245703,-0.20999904219115084
0.07365972910824803,-0.04531534877605602,0.060951460634103075,0.0607737579679579,0.019642232865441707,0.038193448232837754,0.06450131030794586,-0.20833724888770996
0.07445254749623731,-0.026886588334484124,0.07562514205608839,0.0625919630372438,0.01598511966604497,0.039004585956653744,0.06830491842311573,-0.21295331714613563
0.07608762794826048,-0.028727951579416013,0.06123644732819103,0.05609237578549177,0.018176339361793956,0.03938190204744575,0.06109804298016172,-0.23035033614551112
0.07377646323115986,-0.032923843959298406,0.07063951535719513,0.05809826834993464,0.01705587690247366,0.03933951152238126,0.06106995061584439,-0.21397097637114068
0.07535395981904572,-0.033255071354124324,0.06951043393433233,0.054305068818917716,0.014251760707791314,0.0367770460550535,0.0583719693321014,-0.21271708075232443
0.07832320091069446,-0.014781595333831924,0.07165462164148263,0.060045344646138636,0.014850337818465302,0.035848681099772337,0.06812861668017238,-0.21601310165605805
0.07863654442162246,-0.01783214268341175,0.07509021045056172,0.06393830264330262,0.012653436700745101,0.0440932501494377,0.06170976013427418,-0.2015342438935748
0.0779361618310397,-0.012916712336294846,0.06761905508408994,0.060570611425836494,0.02128206221583569,0.04295943056885575,0.05990548696103128,-0.20980466166943612
0.0750315101513414,-0.029909463553799767,0.07345440839196844,0.06857162721980942,0.02340205122223814,0.03968772216976958,0.0562431994454731,-0.21160377878499587
0.08597115050950759,-0.015993993697009396,0.06762867719135036,0.07400900252577283,0.015543205179122275,0.03522325674095895,0.0608254303151023,-0.20423403274055174
0.08070195545847729,-0.0129776536606118,0.0765386784257127,0.06711149295597144,0.019924635392138682,0.03882080034401995,0.05551930290735152,-0.19730230979850877
0.08119381860305713,-0.023458744189979203,0.07043134002432609,0.05978533079260252,0.016928313246544098,0.040511821818087795,0.05418130172205603,-0.2193659831650929
0.08091690508510471,-0.04083888797242366,0.06554028346919563,0.06408511851192004,0.02303541835975789,0.038099020844378224,0.06188663537104291,-0.2089327776559481
0.08933421773568143,-0.020103800855558095,0.08292767181262777,0.06485037549663711,0.020058043649703965,0.036519492175766104,0.05983112418030596,-0.20651144688030165
0.08543923021983876,-0.012268535958117667,0.09112301707279696,0.06697832856081941,0.01792746055765563,0.03876199204111545,0.058006883712589975,-0.19426033327912104
0.08484227164611281,-0.017536873848703033,0.08556053233243768,0.06396275408098215,0.019154341017215037,0.0416419766770899,0.05881417552424281,-0.2144899376028177
0.08363194627747025,-0.011964489192675875,0.08474911710403897,0.07360657946333166,0.026477936017525502,0.041478288400622974,0.058695956131018565,-0.20268767942745772
0.08663518738336154,0.006416102078707083,0.09393415285100268,0.07538177841278622,0.024356169736723915,0.038816021440696374,0.062106273542138525,-0.18395759458676816
0.08789574587333379,1.902772496094604E-4,0.08453877929282937,0.07472907803111425,0.018123363528029336,0.040746043879878936,0.05566481583724748,-0.20667477795013287
0.08069124638249299,-0.01046693485520733,0.0844154005690311,0.07230370004587557,0.022557236129688386,0.03971508980044496,0.05053789926734114,-0.20785464401478387
0.08610295281698487,-0.009758365151437721,0.08216376115710923,0.06411486496230878,0.02464056936788776,0.04304852108062529,0.05793312668431663,-0.19838835959356638
0.09140375793306664,0.0010695908146972335,0.09277763357418971,0.07388323856145705,0.02525256499739052,0.03919538151940196,0.05775420138544191,-0.1938277867005945
0.09453041863794727,0.0010722590887770704,0.07893217917374304,0.07214177730998743,0.027017643187064167,0.03320527226947035,0.04557848487781212,-0.1892587964063994
0.09161154189709866,-0.012193642122605498,0.07869508052457384,0.06812278508057674,0.02624811316642807,0.03420274537798268,0.049256521365537015,-0.20587432566577624
0.08723226976671737,-0.015439510133524032,0.06747233460703501,0.07366091509463084,0.023866008106713257,0.03794773139049078,0.04782017012296168,-0.21293823550006374
0.09619707507973153,0.01725292468617128,0.09226359514152994,0.07442831920157292,0.035079159748928876,0.043314247190926226,0.06208648138483044,-0.20953664796164576
0.08851432555760139,0.01908813851070342,0.08281190239839378,0.07497554758158197,0.029507147931542174,0.04359658055700609,0.05592940991852623,-0.20470178031192485
0.09197091070034381,0.005318221776036639,0.08692223596389548,0.062232143280820544,0.030681179560948537,0.036842076990283225,0.05340920155783023,-0.19971593575530294
0.09611746627597745,0.006560211669856722,0.08395007853556011,0.08161603682240767,0.034341880553837335,0.04330986649751118,0.059686997758199925,-0.1964223846427038
0.09403573753266714,0.0024264645390233352,0.08264917288323854,0.08375454030505279,0.027001115660936343,0.039849279446780066,0.060358732901469446,-0.1928771114048714
0.09390293581829455,0.00405517645031892,0.0887565722875688,0.08419924637075671,0.028344057383113755,0.036860806509416415,0.0567507638579884,-0.18728401833823108
0.09478078960658953,-0.013843431696105761,0.08446973693332348,0.07260655107807835,0.022369955531887382,0.03144939393259722,0.04901790533544508,-0.2037125281460244
0.08923735917004018,-0.001205414450636558,0.08198879563094154,0.07411268288229514,0.02614538307636298,0.03322595849200674,0.04036972224752205,-0.2056668372845529
0.09499120289148277,-0.002143276720695372,0.08441041639107141,0.07213449448815303,0.024129553701123588,0.029818273892985563,0.049359855635009504,-0.20005694896009166
0.09616806347814005,0.0017293741632318496,0.09260213646558334,0.06915208362649111,0.02397380071680083,0.031799609587276054,0.04092588187214435,-0.19866315200323317
0.087063918853468,-0.02513003302447785,0.08179347534109202,0.06449281682598366,0.028851051369716486,0.03461763261961485,0.04069691073945377,-0.20956758810876627
0.08762961932768983,-0.0101046382205177,0.09120439647104192,0.06844105415120966,0.019534510866021728,0.034754642563665714,0.05180656155053749,-0.1927014556036433
0.0933245756903868,-0.009114743033371484,0.0859642158042325,0.07280245827814731,0.025881038712919,0.0357599912441508,0.04153699297437714,-0.23055374289969088
0.08623157280601708,-0.017081236109558126,0.07620624045689994,0.06381360899395722,0.02982063599470053,0.03212635150476089,0.04592947251898568,-0.23326526962033217
0.08660773759426066,-0.02105405959224155,0.07620092805184726,0.06357228022326847,0.02397695227060808,0.032513289858239924,0.041313527155615364,-0.2364179543373532
0.09233197756862653,-0.013555829879705513,0.08418205388505778,0.06793025087805875,0.03086725513074335,0.030670999089620034,0.053198062404605125,-0.22160646880403478
0.09131803564861904,-0.00801867910330716,0.07793414957872194,0.06212910035660738,0.021892871410032298,0.0327385727794669,0.04700251215192426,-0.215769484797931
0.08500134153059304,-0.025315876784277422,0.07519640012679794,0.06232320580317466,0.02848363933280774,0.03375566867929856,0.042645280434647916,-0.23362444400347654
0.08713714137690882,-0.038136208238800526,0.07648193591308088,0.06690725038531536,0.02465976975489123,0.03311378617723381,0.038591030632823035,-0.2298751395415824
0.09259413270513255,-0.019176136386301695,0.07961906737934558,0.0688840566431884,0.02448257520895726,0.037058784484956996,0.04695792216429585,-0.22692699583346815
0.08838052067504902,-0.018127226071468862,0.08082393078880325,0.06964676316546341,0.03012942258950825,0.0304224774425338,0.041352979987473816,-0.23082643821997695
0.08663566998703229,-0.023774471992754426,0.07308963808857737,0.06614144465629601,0.02430403515246128,0.03427775519413819,0.038670252032958985,-0.234174684184685
0.08787991576041976,-0.029980015006122872,0.08412793808906326,0.0654059897111061,0.021530811771360053,0.036087527641118465,0.04442016891895057,-0.2314959261547842
0.08921698373015964,-0.013335840705068209,0.08548564584468918,0.06733643125495538,0.021695440310740985,0.03077898809526866,0.03732250661644199,-0.23882362125854883
0.08956328520765815,-0.02448507632318878,0.08670062135612518,0.06702752250920335,0.02374345748314838,0.029264111408342997,0.037405665625745564,-0.22134617015068425
0.08633940533764006,-0.01564328483143175,0.0910954959104903,0.06991641130533402,0.02913516387397309,0.02948023173268732,0.03607824890246382,-0.23028381057916825
0.09023263979008832,-0.033986713963330424,0.08285802856969364,0.062091856321586696,0.028110453951468436,0.023201059673479043,0.036829798642470844,-0.23534994685089408
0.0880978789352152,-0.011928475271501433,0.07513183216367136,0.06357010507230189,0.02516587785577654,0.02882914600385778,0.04130605905868165,-0.2262022874054482
0.08100328428193973,-0.025303940851873447,0.08055418373451378,0.06887138144044846,0.022862616777140445,0.026173892762307877,0.03045947405119146,-0.23189895368246033
0.08709336967842721,-0.028231619742084907,0.07755848717348504,0.06952461070232813,0.024123030810233728,0.023019875665251963,0.03162349175870042,-0.22030723847079237
0.08895795069999264,-0.022416932028328295,0.07533950199451699,0.0664805296793984,0.02641183190295142,0.02763983680929283,0.03263408711597964,-0.22985996878959497
0.09019816403594001,-0.01662466302064588,0.0865758365733791,0.06634024655226915,0.025303064845767713,0.02955558981134337,0.02377971016559243,-0.21895372011266206
0.08603767804121122,-0.01715640536136114,0.07530159824248218,0.0723495972407349,0.02464342715131905,0.024922374277354335,0.030951153416191157,-0.23706946522394712
0.08606011182522166,-0.0365752958110424,0.072381889552146,0.06020161556821783,0.02697709034089822,0.027138350632178877,0.02685811238902514,-0.22213105259814178
0.08696919766611136,-0.025108666635401754,0.08065070817172479,0.07107307400729623,0.024552433082581527,0.025302486270189446,0.03494954954917543,-0.21764227341338568
0.08729805481367461,-0.024330276866644122,0.07761721073048593,0.06827921990289215,0.020104548038706087,0.021158005323582384,0.035712361050175515,-0.21355236531937027
0.08528216896774445,-0.022318540888638636,0.09193086643781753,0.06650252164717245,0.02475421094178426,0.025520408479278157,0.029470252326354585,-0.2215265163277777
0.0845258650461203,-0.025571456570488448,0.08145569251363388,0.06327740975968003,0.02601956763862696,0.0267647454402657,0.022244695718874163,-0.2262134314328217
0.08461038378362226,-0.013691156186948952,0.08608856754604602,0.07067118051650494,0.01984799589394499,0.030928976895299214,0.03116078382359332,-0.22984516910501773
0.0873182596988249,-0.019860072701384422,0.08367790097566939,0.06789616343698825,0.019894461236279384,0.030267059785795452,0.02909658643673381,-0.2318004328299298
0.0891890716361462,-0.026344320133795156,0.08234273895315042,0.06355367547641022,0.021054237477026803,0.020149024881577497,0.02627345115944181,-0.224584140888085
0.08551864166773246,-0.03389548953247674,0.07115725341508043,0.06377089509757432,0.018507246131332578,0.022055176342782534,0.026317481204923193,-0.21553760388189105
0.09436223326292885,-0.0076604064172871396,0.08620431668169776,0.06850560133025022,0.02668145417406847,0.021456353514226728,0.027076238377497456,-0.20712343267825603
0.0862120791669019,-0.018681576389458415,0.06808824046038701,0.07250013849927155,0.024033414031529057,0.020084572669200402,0.027117844180544026,-0.21186781154668988
0.08926979831223304,-0.014566846898194692,0.0960245679644659,0.06495163719503609,0.021568306236623484,0.020555307006782108,0.022835579392094317,-0.2421994533934134
0.07761233380220958,-0.028600742476710985,0.08140967914047982,0.06323125918043636,0.02315424664853845,0.021515252058239186,0.015367259949555475,-0.22334116370175602
0.08493258271101557,-0.01471186839280296,0.07782962599924291,0.06742051918946763,0.02144380324703432,0.02402566323740733,0.026427301569773413,-0.2279982989770451
0.08471441808883517,-0.02058790841885745,0.08417599475532445,0.07141666005023527,0.021293409317375785,0.017954304363235935,0.020231620225301623,-0.22018486343842944
0.08179063410635681,-0.027993409315436677,0.08704966513323173,0.05448231203671493,0.025348886506817495,0.021080270548427756,0.01552497763466336,-0.2321312700426382
0.07785935765019551,-0.029254479477183955,0.07905001076818699,0.06001004586770213,0.023766723850879978,0.018948036905049707,0.01988049600412249,-0.22889084969188034
0.08554727884195266,-0.02189754433615846,0.09059385312605454,0.07160619528717675,0.018574825586636527,0.018316004650387196,0.01670488829517645,-0.21290125971875395
0.08661883081923513,-0.025256569055828237,0.08162680408351637,0.06025163685054541,0.017189153173813285,0.01679328323671305,0.018168276698062116,-0.23098660788666095
0.08253486954577702,-0.030569556959505043,0.07549842168351356,0.058715870452612624,0.01887493091130298,0.01527803248799017,0.015880436543800763,-0.22873687577362228
0.08253328219026797,-0.025983923123650804,0.08630993585999237,0.07185851346862104,0.017663037048914906,0.013951933760175584,0.013483936707433041,-0.23296710377237587
0.08681646202102268,-0.01953550415414156,0.08641751358780984,0.07158054531218663,0.02145164227760336,0.00936352543494166,0.017684969679630094,-0.22670048747174398
0.08616621901955607,-0.013288351484169863,0.0774030739308811,0.06840166114474931,0.01575156510786576,0.011939332870173937,0.02004386850379505,-0.23542237668737656
0.0798556843768371,-0.026970546429526458,0.09233111571129932,0.06269451532855255,0.015247651206542234,0.012404684259032319,0.008637764213354795,-0.23781823840655525
0.08219159873503647,-0.020238333680687365,0.08647075982686217,0.06602815030630632,0.019053248950575526,0.015596960895673126,0.013201878522289814,-0.22745141313134554
0.08939898585637816,-0.019727223205434238,0.07788490369573084,0.06407991413137457,0.02259848675203914,0.008877124350648647,0.006437044385306787,-0.23003927813275385
0.08358305399278512,-0.02565006733635647,0.07863136772064118,0.06638804868333463,0.017276813721887472,0.005465864181378627,0.0050987832482726194,-0.21258345513126514
0.08268936763267118,-0.022094010880702366,0.08433427534970675,0.06910273401430718,0.013532867738296818,0.008612629400619866,0.007289598254233854,-0.2413240001872765
0.09177521278747679,-0.008968491578911292,0.07700142649019909,0.06998194853436576,0.016016902670714178,0.013684259704177136,0.011464625126585875,-0.22557877084881234
0.0875080527762268,-0.010934969599359235,0.08848316570813587,0.06515824257907281,0.020470682883308423,0.011741535769020166,0.006555288396484689,-0.24382538225014425
0.08826601410346935,-0.01499003981622987,0.08403867452529208,0.06751819261359876,0.02326445074657909,0.007191737381873238,3.5042103231534475E-4,-0.23979720039215183
0.0851039823111371,-0.02394281361775016,0.0804832707939686,0.06438342498169324,0.017888810484491858,0.006462904104289625,0.004952961618724986,-0.24748496998977984
0.08981407911372638,-0.004854096750569441,0.07685588202800288,0.07698281816991528,0.017486653832109948,0.011995996328879825,0.010764097506299149,-0.22128817465413736
0.07925853475462492,-0.013049376494574284,0.07905426093893918,0.07350574696681376,0.013771173422387963,0.004966687795069988,-0.0015308992068215085,-0.24219403448206034
0.08697304526046641,-0.01976390654018937,0.07997408141143328,0.07009610659042234,0.016667589572821353,0.005668832368872974,0.0013310713463335158,-0.23419096956947127
0.08684395745975657,-0.01967643364107248,0.08413418726247926,0.0725583697423638,0.019897225625046408,0.007642124084177407,-0.0010062360245503429,-0.2357334545289091
0.09061496740208606,-0.002490855853118847,0.08674599904463318,0.07032995367468046,0.011037019381454925,0.013845987436021012,0.005339610522628535,-0.23399763393295023
0.09219608216141463,-0.010722994836017135,0.0810585393665865,0.07016231321350783,0.01367697979057565,0.00774208654152101,0.00764334786139432,-0.22758850391560342
0.08858741984959978,-0.011665012578267976,0.07453946846286828,0.0690273189858658,0.016064322424363706,0.01316344772590304,-0.0016778529996688382,-0.22679028041222926
0.08673178830010474,-0.00868358890862709,0.09246312064790926,0.07030170247658206,0.019008377272947765,0.012602741744795282,0.00950542662289042,-0.22294092467083543
0.0878453137412381,1.417719592002224E-4,0.07963720264847338,0.0753610021358839,0.020960506750942003,0.01124400327265418,0.012485498315670245,-0.23456548326980212
0.09378709819323384,-0.007929593621979043,0.09063266205140828,0.07426386188521904,0.019625919164395805,0.011111538617163238,0.010408744203269496,-0.2272716844354234
0.08987020835447465,-0.027260273963785477,0.08156911350077807,0.0727565919450089,0.02321913364044534,0.012013982229963645,0.012820615293079044,-0.24491155013666227
0.08879887644401613,-0.012058158532519776,0.08805475347373577,0.07898624363257185,0.021242399301800056,0.016422333224029993,0.01791100250784411,-0.23503733867934135
0.0941116723687474,0.0012089647106288126,0.08748466616524898,0.07926772389275188,0.016190526024645675,0.012134346455003735,0.011701103524052273,-0.22312480384236333
0.08863853493129656,-0.005454458672069453,0.08182639307147346,0.06482026580899086,0.020360667761969865,0.02062429502700814,0.02075134929540322,-0.2283373480279785
0.09415512857288451,-0.013919809119966639,0.07988904073144243,0.07315677127294638,0.016027453942568177,0.01626513992002553,0.0211334727306054,-0.24000733400084653
0.09133768155395512,-0.009061492185146207,0.09574085567915297,0.07137548650575562,0.02086956977777688,0.01963781090396472,0.027160317065582553,-0.23447578671430472
0.08951551373908362,0.005741915277605123,0.09420683095796477,0.07487505519329106,0.022866235497602916,0.018778510942981993,0.018715206632315927,-0.22869191958979548
0.08965795900836805,7.927621151436333E-4,0.07988251611027491,0.07441877223418934,0.025590370259037723,0.018962611538972038,0.0277918180702448,-0.22554818429498377
0.08995673943508187,-0.023704077166767083,0.080162664478911,0.06618823484209184,0.027737813503140116,0.01844969714966437,0.02268430741852164,-0.24022575500899854
0.08547888340687436,0.0028515239199724727,0.08930088690709942,0.07805357572470598,0.022363347998962585,0.028784545561501448,0.030940151018395333,-0.23358215954522024
0.09149681427605742,0.004859762634806006,0.08773094123668604,0.07423030930978812,0.02438583685613099,0.02648455967406849,0.03018396791798347,-0.23249920199318203
0.08776262693215431,-5.453973197758576E-4,0.09241887875959019,0.0748039332692888,0.01895411415830262,0.030717368090259826,0.03915909095153519,-0.22519002026748938
0.09188316235063904,-0.028110383317755432,0.07519804841469475,0.06898850127403033,0.019178463958424638,0.02785055048303257,0.044471338309369994,-0.23006364705590998
0.09314958424944413,0.00281081063463764,0.0928435802973142,0.07504455208703927,0.022009711826942672,0.028488694262647704,0.04681954298739361,-0.2257251984480914
0.09402394537408766,0.012600608689832789,0.08590252198855793,0.0780253642393855,0.02758633640800167,0.03644589183776108,0.047523291749186805,-0.22609526310141498
0.09493133842674079,-0.007338129584389444,0.09000098883582872,0.0781327369805571,0.02096243604381505,0.032164339895758426,0.044682186253901475,-0.21824252851549678
0.09098722836120907,-0.012295084991455617,0.09004755599521605,0.06726184996623984,0.031194995842888724,0.03756708730293168,0.041328773003178075,-0.21687630232722754
0.09671189985858086,0.010469884654086124,0.08393730172223911,0.0786359722799278,0.028262298444463083,0.038012774501734715,0.04538737751418831,-0.2251695035484502
0.10106841769931783,1.3373262878522616E-4,0.07993183208276558,0.08051096321484542,0.02150456071120028,0.03471258058846259,0.04798252390070877,-0.22614005774549573
0.09815318371042198,-0.011837944177226577,0.07667457266523472,0.06917866076434556,0.025570246359419832,0.042360135552707075,0.04935359666533788,-0.21949179410674813
0.10137883559106844,-0.004412984193570249,0.09054022882469062,0.07347596182624394,0.0191295895767875,0.040587996039958114,0.05413120942327748,-0.2228918477086263
0.09780976466655272,0.010500938668416837,0.0899210473393757,0.08156204001384962,0.023211811896992812,0.03563327081422256,0.05279933095785563,-0.2377268614651365
0.10206883866325041,-0.002326622913637239,0.08767894928943773,0.08621791039947062,0.021600068310720102,0.040404819918386826,0.05358111832192187,-0.21698939466218944
0.10032469210851204,-0.002758926532625196,0.09833726099602139,0.07814178040847297,0.025861087582369498,0.040247454490741415,0.05174546318591974,-0.21895674904390625
0.10277258062965357,3.187207689448619E-4,0.09769948972391504,0.08732250723490546,0.021312696848962236,0.04290757751128003,0.054905680555976034,-0.23718248731560343
0.10197101490428583,0.015629517708133568,0.09581603879878228,0.09012721461027293,0.024610729562796238,0.04284103573023327,0.054736402814580414,-0.22148889061892554
0.09778695430738786,0.0011429329680170937,0.09347192101845615,0.08702076152030452,0.026288894598827873,0.042138546568934815,0.05370991114128044,-0.2252450704861912
0.09801598931388592,3.647030476996566E-5,0.10581993760408713,0.08357180448906261,0.02133883377385795,0.03652323988047756,0.05227978924444368,-0.22041824684662012
0.10749232091841887,1.2505412055748323E-4,0.0942336292708566,0.09429576891347749,0.02355921227103073,0.04375838973859712,0.05629578886615805,-0.2228305589360219
0.10239256423524441,0.024938875220141436,0.08056096059711511,0.08672262791314707,0.02818102748966335,0.042736656857999634,0.06020952477254915,-0.22679348869247837
0.10265813875087636,0.013034079184038086,0.09821469606742445,0.09004850305219435,0.027547691416194946,0.04360902662403675,0.053155187869187735,-0.20615849157219188
0.10288806582951476,-0.0038846171963450972,0.09204851958196571,0.08784662080170846,0.033596496712958515,0.04289157444754685,0.055786197111480064,-0.2236795853027724
0.10371390510510783,0.017354832871137336,0.10885262256479063,0.0962765295083736,0.02420186704544741,0.04173818025842183,0.06253197720578553,-0.21995115784143152
0.10568147387646737,0.023026611563276466,0.1025280424772503,0.09359013215454817,0.030209316247153443,0.04320543473480754,0.0553103985676915,-0.22115400045057715
0.10588939916831741,0.020856015038424963,0.09886424185437065,0.08458838279058181,0.02660376903589707,0.04113387414560236,0.0572904817787233,-0.20478516812436098
0.10196539630004224,-0.005740323956614506,0.08999597647257739,0.09059979585004692,0.025877306116262395,0.04055814356310528,0.06027771884555886,-0.23255334272657216
0.10613855214413717,0.014969024703847231,0.104409436820895,0.09595721635355449,0.02871058267298039,0.039709211970359835,0.05673187098094754,-0.2243884963612629
0.10196822363409361,0.008060906009804268,0.09767836076164091,0.09168987964188005,0.024750793241966315,0.04070464314508707,0.06140051869473513,-0.22695065641951384
0.09858590725780503,0.005485625457802051,0.09997453029736776,0.09335303538571926,0.022814501494811644,0.04158767224446489,0.04829533162528112,-0.2260586518548949
0.10162181263734922,-0.0016969850835634537,0.09511134095894423,0.08986802569117827,0.027087429577809675,0.036892993683541916,0.05353154890576984,-0.2337594493779689
0.10069065303672627,0.014822674037929045,0.10517612551034136,0.09165659156361725,0.030386668588322605,0.03713260871885375,0.05728988662689881,-0.21663588945220233
0.11203771077882935,0.010300570016471429,0.10464611531555208,0.09723122015902001,0.029965600625640243,0.03751723076705636,0.05044297833109906,-0.22404851756677682
0.10426173994765917,8.563996523592873E-5,0.11051697339809315,0.0880925850304577,0.024904700483791,0.039260000586372905,0.05472305916857227,-0.23361720463413066
0.10202733945808211,0.005078750067014524,0.10072270929438584,0.09585216866402897,0.02768572155219221,0.0392709580852041,0.05887224258178601,-0.22429447863259414
0.11255151834224947,0.02136943035260488,0.1043985790757149,0.09706318350331647,0.023611643290846633,0.04156623450179157,0.052982517933618196,-0.22322541209679678
0.10846973481929588,-7.772478361885613E-4,0.10077943642625292,0.09091867565804389,0.029355961658794436,0.03786980105094291,0.05055807785186663,-0.21640873329796043
0.0972484403427218,-0.0028086148983452078,0.09518731372478295,0.09617128940823809,0.02361004972766284,0.04005487636897945,0.052158761081454105,-0.22236300093285885
0.10872044571917425,-0.0017794735184787373,0.1002708732788089,0.09355322126218792,0.027569472054899485,0.04225632856924287,0.056749215882539165,-0.22296730077408985
0.10472876429774704,0.0076623496847136215,0.10455840877843213,0.09776764407780918,0.022920213912732853,0.035774694892653953,0.056961628784871855,-0.22791194551770438
0.10357016445678927,0.009977813224845263,0.09975540502782465,0.09385815316483541,0.02194332222452789,0.039711185037253294,0.05158420591286093,-0.22556566808552825
0.09880426144952312,-0.01858940079766344,0.09452288465425651,0.08953463906162795,0.023094716318194774,0.0325518388625931,0.05222369327244126,-0.22290652685570303
0.10099434878292454,0.0011689791273455045,0.10405168987988474,0.09302926706813065,0.029284700477117766,0.040668374046735706,0.05361411967747722,-0.23666929328959144
0.1040350458397263,0.004112664869543751,0.09589884085958582,0.09224118891699336,0.02472758327827459,0.04297438490597628,0.051938258148129274,-0.23775810829518612
0.10402606859975395,8.475861820621771E-5,0.09771292215469284,0.08121889396938833,0.02254481715455436,0.03737958609298523,0.05227663931248542,-0.24348309109332336
0.09959497187127886,-0.004433244876815619,0.09593259546410472,0.08699233687394983,0.019251786056271376,0.03595508639428046,0.048065511335601566,-0.22108361951429514
0.1034196806488348,0.005844304669523548,0.09715068103553298,0.088981435918431,0.026840893950436602,0.0379475908589447,0.04556268280002369,-0.21442847846671215
0.10173190994564543,0.003893672981018686,0.09343743664197936,0.0915458717387634,0.02493559146337832,0.03745933998030759,0.04321486844128421,-0.21580863141180462
0.10080095285050583,-0.00474750366026562,0.08810954369374353,0.08768295406741715,0.022675772463415126,0.032553225287405764,0.046766834025467954,-0.2339385647586602
0.10242854860486174,-0.01742928188904469,0.10071019425809048,0.0840173758389561,0.03013288830672372,0.03803402402687021,0.056183570968642904,-0.23044425002568142
0.10703183884792829,0.008483868126555695,0.09585547598908743,0.08752122994748354,0.025718155824355025,0.037391502884027164,0.04633342386649066,-0.22713828840306854
0.1016001415344939,0.0029593925198401036,0.10189200200655099,0.08220475178177848,0.023355718536748577,0.03541863114837536,0.04335484944761253,-0.21936253338079167
0.09660550523094062,-0.0025776023177271883,0.08736486344368005,0.07585240471900807,0.023167667744823713,0.03492249336147594,0.04113383487755204,-0.22795624940094952
0.10234212856424511,-0.0016366544567949723,0.08593314000555957,0.08711718117574933,0.01778124515961703,0.03686975225985654,0.04857647129966674,-0.2186437315360907
0.10609342214098068,0.010980077347032833,0.08522618868170048,0.08767769313206046,0.022512973123564956,0.03071520120098333,0.050692827185746914,-0.2232623516053733
0.0975098494202995,0.014067295993161477,0.0877392033016437,0.08128865898127748,0.028710922581782556,0.030308044849182977,0.03650791469960195,-0.21342409967518186
0.09843199021193094,-0.00878724315861729,0.08367223510255557,0.0807030726658917,0.02168348797426627,0.03252586336642051,0.04486989957926862,-0.21497855710436878
0.10545575887621225,0.009717132862427353,0.09784963797059268,0.08601351168698727,0.020637110022473606,0.0365329166629236,0.04453769344851247,-0.2126397440110941
0.10417986917573409,0.004306010377310757,0.08863698721668312,0.08967589710289565,0.02903842443175953,0.03209589660672843,0.040601389781632455,-0.22722843028955975
0.10263114624984784,0.0022219466459240875,0.09698941340052053,0.08342703718027855,0.0232506017162824,0.031035495074514755,0.043441445764804576,-0.2183366422563633
0.1022407338856513,-0.008007161050217766,0.0858275978473686,0.07127690413412265,0.0307548309612371,0.030392863979987052,0.04554887551316388,-0.21576259271806333
0.10595554693139767,0.012425017148023071,0.09070467779228625,0.08038890861851769,0.022090117037773666,0.034163395706857294,0.04733592550438766,-0.22263248145453232
0.09969310044442077,0.007518449880741611,0.09269538212171408,0.0773160257179271,0.028467803092984998,0.030126408951963807,0.04022250468614301,-0.20075171598030944
0.10043710307465165,0.009366377215305866,0.08541284016363884,0.08397298342042642,0.026256432956818614,0.02837503144958461,0.041833017690842696,-0.22268198647603316
0.09739952220248124,0.0015774450359823929,0.08364169705724371,0.08181004592461145,0.028139907215201196,0.037595289754904636,0.042112690676347896,-0.2163167504410623
0.10184807181287199,0.010131639922682519,0.08928699557518993,0.09078808547705713,0.022022622932199726,0.0322350396900491,0.03670170687607829,-0.20707083322098827
0.1009703045651053,0.004718035650497985,0.09630212095213332,0.07982697527347385,0.025164657021171925,0.03143617757935471,0.036661519431145845,-0.21686113138645596
0.09410554631354362,-0.0012511987253044658,0.09168339609659285,0.0782689064886323,0.0217337355064656,0.028570514378795275,0.03536854646214108,-0.21717538137556758
0.10404766051961804,0.01670302440350505,0.0886676536042009,0.08399266428374201,0.02473550064827151,0.02572557067346011,0.04321046948021986,-0.2109765500272206
0.10309442160530564,0.013046591815230827,0.08706198124813054,0.07679281834489615,0.022826373820786356,0.023832218875585263,0.040300469016199644,-0.21458896330618937
0.09970232712606505,0.007667302020956418,0.09393140121475692,0.07874706044286565,0.022072157604393322,0.028043421964961002,0.0353423559894908,-0.22232657946311274
0.09603025340031035,-8.971857285745941E-4,0.08624687757835058,0.07449537293869804,0.0248667299738155,0.025159109206397377,0.03477227276648913,-0.2187597211076706
0.10284249053649917,0.005535806323238383,0.09737618400824431,0.07427361911863059,0.025480170269836688,0.034798329254126584,0.037008273728239546,-0.21522510511144535
0.09866892391070758,0.005576834866231602,0.08574962193242369,0.07476133702948816,0.02554008897936935,0.02662670732963464,0.032001998083778176,-0.2134363545658548
0.09750877175456377,0.01085271612329698,0.09910526545242387,0.07891654649655293,0.023435796329759496,0.023989712325408644,0.03208284891713985,-0.20570742554214871
0.10194104337508043,-0.005732894891312112,0.09378379413727209,0.07161630481483562,0.018246168675374673,0.02515758958458988,0.02731214673433068,-0.22129543529923074
0.10161009909960395,0.01787391160550098,0.0761372428495405,0.06502418875370378,0.025454716844506352,0.01790993418676373,0.02798764827939921,-0.2137629374842675
0.0983030582084327,0.011673252163953948,0.08179805851165191,0.06978780108400692,0.01860367727385336,0.015638246104470996,0.02597069490234629,-0.21193344583460735
0.09782494712879926,-0.0023966045719440764,0.07797479717806378,0.06479582850867656,0.01678343436070728,0.017964104389965624,0.022903716817189695,-0.2263412002359686
0.09981175485514847,-0.0012706131017719926,0.07939902926305409,0.06868132543418957,0.023525269629377975,0.020067127844262088,0.023744433180302463,-0.20397225905101146
0.10836039736896945,0.005337262391079485,0.0915424835251565,0.06466251969289918,0.018346004117253015,0.016016765646561452,0.012206891100932583,-0.21082207332519212
0.09346001013452485,-0.0018146754892112713,0.07893105533766095,0.06065433053716841,0.016307311018072555,0.01280864711083532,0.01777308920987343,-0.2143652500074321
0.09391599673920205,-0.005183261453899562,0.08118794651828345,0.06800419768498225,0.015640051728976777,0.016248861128115293,0.006450012993609662,-0.2144744923925283
0.10170310329195018,0.00705386215542603,0.08914687545853957,0.06867658998232624,0.01818924413508018,0.018843305666669013,0.01291812081400068,-0.2327884770456353
0.10446730376028834,0.008651405588028651,0.08673184870139564,0.06492533261010512,0.00989009177161122,0.01617376868425042,0.01173507806041183,-0.2226013412596999
0.10299551527570995,-0.0010506306011689483,0.08225589798031058,0.05941445791159507,0.008776423468407348,0.013500101144605106,0.007579541282194277,-0.2104628064954384
0.09786243445133011,-0.016380790220421458,0.08533564583482833,0.06629491243849975,0.0198489925000353,0.01061687281100091,0.015078262393731987,-0.22734832037878247
0.09336933713129517,0.0102919451763466,0.08484505971415085,0.06787333776494765,0.016775859382935313,0.016374705729668596,0.006876908975795805,-0.20763201873123407
0.09656476932919263,-0.009289370122351275,0.08074457182065974,0.06566044629300619,0.010523600196459773,0.009712143993232633,0.011730297128081846,-0.22240311185846393
0.09926789948173273,-0.019774859355475852,0.07727635209565621,0.05621047255908275,0.013455062648636117,0.0032283280317268554,0.00518545151862357,-0.2305292362934715
0.09872493800538047,-0.015934088835124722,0.0739542524657716,0.06117768412231558,0.015490877205685477,0.012718724838730591,0.010383717298451611,-0.23676745709914837
0.10382283323155073,0.005840984782644111,0.07703227077956913,0.06377533947007777,0.0133306565432859,0.012091747322732561,0.008397266901677488,-0.22814517406271323
0.09532969400827676,-0.006071184409050586,0.07507641772751955,0.05616135790400516,0.011920989136290262,0.007355719208160384,0.013349384383779677,-0.23569930313622847
0.08845259100111977,-0.016184717863679202,0.07165089147913314,0.05644962222811039,0.016123579828409042,0.0061946723010788745,0.005521529108549097,-0.2519180280920473
0.09869817544863412,-0.007574583775901345,0.0755531806516218,0.05440471597274125,0.015238160833225838,0.019872639342370532,0.005219017588323999,-0.23841431370782223
0.09358819296957842,-0.00881515456254858,0.08205454124054291,0.05337966398708877,0.009515877856484434,0.011048726743537466,0.00513999414785983,-0.22591696651409066
0.09604907500273764,-0.01826235554833685,0.08330285251980048,0.05139253709936176,0.008872485211657977,0.008416893139436046,0.007808073557067996,-0.2400409211829295
0.09376379605383514,-0.024148949721938387,0.07282567965049949,0.050094607156664694,0.012159326413727651,0.011554711671302256,0.00945184975965934,-0.23335326794045969
0.09298131003045951,-0.0070976969659712055,0.07344519973419932,0.05205334838169234,0.007536858167377046,0.012724703052963486,0.016100233226262976,-0.23545230155720723
0.09604058900053099,-0.010165063937847805,0.07096306118761077,0.0587515188559084,0.010247368189520297,0.010456289034900928,0.015210335348560696,-0.23457676891337073
0.09130107655300683,-0.015755629790081317,0.06397258746155506,0.051349399440386204,0.006926619788524662,0.012774853403780904,0.01971037144346204,-0.23409732192901395
0.09330687293711641,-0.022121344640194135,0.07663425654111405,0.05540761429677665,0.016504898532214807,0.014647199413548388,0.01463774984227965,-0.22500250124293708
0.09203677628293638,-0.0027129158882689616,0.07071402549188537,0.05457476826794052,0.016378070985854712,0.009766288002034116,0.009468400582975246,-0.22971390565304
0.09164430626764919,-0.01191538373445016,0.06018199087749087,0.05532306770458002,0.00959635037167942,0.01636319315010746,0.015317019553383453,-0.22873371572274073
0.0926931908332704,-0.022232242860602217,0.07518366583687831,0.044946501392247186,0.014242854565733723,0.010516990269252081,0.018269123451625395,-0.23587568727177932
0.09514567233340276,-0.005009984821880536,0.07220228532676061,0.05409632118113259,0.019014611826571673,0.01632586270232916,0.017124382106021047,-0.23311419115922327
0.09470421313935867,-0.005447900876297311,0.07890607899418278,0.0568507149494406,0.012657694199165492,0.013986758455413228,0.01970269483723297,-0.24088391008113536
0.09292197874544329,-0.017487307327824733,0.07030971861345596,0.05742030458939629,0.012562281661425277,0.010434536146018247,0.010922107850629017,-0.2305724363596127
0.09148699630895413,-0.024892787211690054,0.07071121163923809,0.056304855064274226,0.01621404989658292,0.015315038291099693,0.01830826396713629,-0.23489566979806573
0.10078289494180262,0.0028397298235215023,0.07128205596438891,0.04925870166751865,0.013359347293863212,0.01187444066764011,0.015682548948547148,-0.2204423012246568
0.08791149846347393,0.0025205500490158034,0.06674916279425612,0.0513804241728329,0.014283428653085758,0.015958963650102347,0.01576901251395007,-0.21184919305934904
0.0891776560789671,-0.010674418842524586,0.07220570719298039,0.049714000051323176,0.013366823299530062,0.011660144930482385,0.013019834526382508,-0.2368052415105478
0.09602222014419864,-0.019343900296488352,0.07135827270593685,0.05319559394067205,0.012641003360224634,0.011145948518449434,0.021737319750218184,-0.22120039016623944
0.08843870497878278,-1.0982870970152002E-4,0.08314381908849504,0.05927164311531413,0.02407034267160384,0.013305782337580764,0.0184389307839706,-0.23353409254908572
0.08876183800803063,-0.003688659578425591,0.06714055425727868,0.047979658120228835,0.013856953682432418,0.014885782226896233,0.015445190046521702,-0.2259498067522438
0.08880947420029937,-0.018007955068049156,0.06842425194193488,0.044460228368662556,0.011181772172421757,0.014377686133390886,0.015283575840109255,-0.22595890273333524
0.09549314488588871,-0.0021358246303742378,0.07194584965632343,0.05690999975899788,0.01214961420957226,0.012108484397177844,0.01219845857416869,-0.2284032906928612
0.09049559689505676,-0.014922801939710344,0.07566223164232515,0.05067669871054611,0.012965607114082917,0.011866230755002117,0.013731372699944245,-0.22677611729539954
0.08946091145217355,-0.019289143159228972,0.07499334547511634,0.04629761168957734,0.005703728818985578,0.009136960995519462,0.018051220237580448,-0.22485247905474615
0.09566975300110096,-0.023609917604551656,0.0659037595133156,0.045026912537933714,0.014011173394897441,0.015289963389856213,0.015124521230742451,-0.233955830652127
0.09076497893750038,-0.008032186277952161,0.08343523407779523,0.05482927025770143,0.01134543823680239,0.013614087007494197,0.017021545362675573,-0.2248314687506855
0.08911864375373642,-0.0044810876363865415,0.06668245715561083,0.05309662942650116,0.009771634171255967,0.008318816644961147,0.008002269273411211,-0.23048613559919381
0.08531869198968593,-0.019615696289921894,0.05805311191262706,0.04976582509505425,0.015589215251663392,0.007242885634745289,0.007923643441352246,-0.24128842255370642
0.08449839288767254,-0.027464616149939856,0.07189527963522489,0.05347769888314174,0.007485429682466772,0.012176798533607026,0.012484579098623608,-0.23163362291210868
0.08724713436404191,-0.0014613059637219189,0.07009970415145267,0.049150791425625416,0.011101134583203416,0.006077002595848079,0.0023783789038389095,-0.23836519590606
0.09451190770691924,-0.01113295061073634,0.06413570533194712,0.04517667572950505,0.00941381782372422,0.00625871203436594,0.013791283830656871,-0.23063687919436768
0.08431449386059146,-0.020976326122691753,0.06663988390818337,0.04868279655513192,0.006418885525277436,0.007553848117112678,0.004290271922701762,-0.23341409212260691
0.08601820800999527,-0.021329988736202492,0.0680284719664497,0.05414182714555248,0.010378457576858444,0.012520357869667797,0.014674923216667196,-0.22583300965051084
0.08821804959940542,-0.021719846430551623,0.056294160541574316,0.05363674687056533,0.006698455442206059,0.01023802762713101,0.008323124579404977,-0.23696793367063074
0.08618320957010958,-0.022068167494371013,0.05686112028929483,0.047809590665572554,0.010584427834475418,0.005039080191920767,0.008383046813788264,-0.23091281027183122
0.08634189891817656,-0.0368692007499701,0.0652122463973101,0.04709037816396051,0.01201373556758894,0.0062876447564428365,0.01348202784986867,-0.24763207601569626
0.0976018481084409,-0.022667756246164354,0.06285418177088434,0.04972415513254648,0.0017149987780528573,0.013517978011815854,0.013086955838003806,-0.23789763293996977
0.08419011402483995,-0.01806702203414409,0.060957881847695405,0.04707302087085026,0.010742601714424016,0.009920760535884482,0.010881444422550672,-0.24013262195423576
0.09105739779150109,-0.030357924112509385,0.06139705504449908,0.0470271319850638,0.015246166841262248,0.010504071939149397,0.012887424787547282,-0.24979461871549538
0.07857380151552491,-0.042867428047917544,0.06892138745022036,0.04059120854481394,0.008673829388901346,0.004871941412703989,0.0070939472879349265,-0.2507525942264671
0.08995771256502194,-0.030698071590816223,0.07648562518364509,0.052635944934750906,0.009976130700768502,0.010696867470019768,0.01199862785639169,-0.2320673958499049
0.08824288095687229,-0.03196695823898215,0.07053332686613145,0.047173987011282975,0.010380722660737352,0.004558308208513777,0.012148872867837356,-0.25420196779473214
0.0894091260077886,-0.03266771449065448,0.06351754819269952,0.04392492896252827,0.013464042337138897,0.013219728277600628,0.014285015460022043,-0.24068434004180936
0.08102266004678589,-0.04475389324007694,0.06888711646156283,0.04602410959262251,0.007748804946249734,0.014325347956795438,0.01996268937293794,-0.2519834651161537
0.0915839566046981,-0.02087210577842468,0.05898744506773492,0.04519546738418709,0.012299173720162994,0.012556744626144766,0.014582466638490962,-0.2508127274035937
0.08553131055167958,-0.030239365931022097,0.07105737801251119,0.04868709931081285,0.01210844973298263,0.013117060105693103,0.02117506220641281,-0.24351603785111445
0.08165092376132271,-0.049016650403276074,0.06089012550236569,0.04138359554676561,0.011617883621535862,0.013741502551528914,0.021112170836935604,-0.2464307980628364
0.09076577265127042,-0.03878253519143455,0.0658314225365607,0.04374863732764973,0.015069196573237797,0.017039188915423765,0.021586419819701788,-0.2548869186668908
0.09000745806602883,-0.026947263277183105,0.06445890439683738,0.04563338974554928,0.01243683005652329,0.018822503772422554,0.024392941617013525,-0.24550975865830998
0.08726753967418988,-0.0305987598396149,0.061849410143836,0.04584315576856432,0.009338076742325875,0.01648277847439166,0.01832725149133934,-0.24360956180816434
0.08042375189353704,-0.05240895869648992,0.06537614990704092,0.044557230355966544,0.015302600215668481,0.020225115068303823,0.023888602558492768,-0.2694056539321544
0.08096295085751998,-0.033388935332829585,0.07530418086767518,0.05133964614344894,0.013238365886240585,0.021463553520340958,0.028155085662038302,-0.25405466884237743
0.08275382385023633,-0.038426228902192924,0.07372552927379382,0.05293393395374109,0.008897314779887209,0.018864075245882003,0.023754853344666215,-0.23484805333368683
0.08415795706051436,-0.039841868196298834,0.06523333547605818,0.04992047714735172,0.020505483330321223,0.01838404598417485,0.024341684782585905,-0.2524162640705764
0.08187347770668153,-0.03979035720478367,0.06146925972447458,0.049064697466476986,0.01574088862566636,0.02314469922165863,0.024248137615346364,-0.24740559181175062
0.08333520070228627,-0.024085154491445014,0.061197105160302724,0.05304604193872445,0.016840615424074754,0.026402429917981998,0.03120408261663593,-0.24248241544835727
0.0813736242415424,-0.03130612235521396,0.06690422076225595,0.0430766264401587,0.009571345107864861,0.020509792295159056,0.03138183829048311,-0.24548121687735383
0.08087502156512129,-0.03463289948130826,0.05962195631671744,0.03912125313005862,0.009401780980754006,0.01858670911099862,0.03559044107874601,-0.23564304434069322
0.08460039248209138,-0.0212826304655897,0.07061057463628286,0.04577029920755818,0.011820254363265718,0.024670857551868236,0.036476050131093646,-0.23115046225011213
0.08698740068622711,-0.01348338706750199,0.07669010654965722,0.05307554505247953,0.014904475069584599,0.02362735781246006,0.03149802069768344,-0.23205231404973056
0.0889173951852677,-0.028467112632217035,0.07274483504918385,0.04858064686827847,0.0186893644793866,0.026025459828310803,0.03437907193283509,-0.21893091164617084
0.08243216892297531,-0.02990657646587886,0.07370378658325552,0.04830138744855974,0.01974773804625937,0.029366733070953003,0.030789586602076466,-0.23208094268435
0.08866373340556301,-0.02049646452201025,0.06999330803654304,0.049318105088543084,0.018582682220006072,0.02908480564653579,0.03285492151834529,-0.2233987731142689
0.08957009964712025,-0.02837414845359434,0.06672590989961481,0.04976625744740513,0.018271700126249277,0.03070362747134805,0.02699257703757904,-0.21968802451640612
0.08817599477007486,-0.023289922606318656,0.06620164611173747,0.050730632925786,0.02046353663197308,0.025919809648930463,0.034901947963524346,-0.22224724909714286
0.08645259605765135,-0.02274494026501179,0.06696954606202604,0.05714805960192196,0.021808270182798076,0.03199661103107646,0.04076091387191804,-0.21878708429362714
0.0975536579554969,-0.016283736084877248,0.06412710285523422,0.0531046317075122,0.018134022693541346,0.03438674468797353,0.03675135446609625,-0.22205389962536706
0.09039638432599881,-0.012452055860843098,0.05848569523652198,0.05007103616050425,0.015898721329728676,0.025285049090448007,0.0348296822478061,-0.22181376373131345
0.08552276054602942,-0.007700988478057811,0.06356177874430205,0.04811355548666415,0.013259386503958444,0.026598292060507518,0.03914646949680237,-0.21728615312482902
0.09475555268951308,0.0029137569200478647,0.05638325221778409,0.04842807571076888,0.015682631044361073,0.027080827686495397,0.0349165876367854,-0.22043942725241006
0.09018762619892554,0.0013057359077278106,0.050623414127662525,0.06252091633377595,0.01799811632906441,0.024429841287167003,0.026212915339984082,-0.21328257032421433
0.09103768135889252,-0.002669093656720565,0.06329699390848641,0.0573771713556198,0.01361054515244485,0.02819757342908037,0.03008839150315563,-0.20729244397658647
0.08785612502374182,-0.015528710632124665,0.07104755425025493,0.04909410053961167,0.0229221261702334,0.02058878428548647,0.03827730345642548,-0.22620170107807558
0.09843260783911405,-0.0015129381612915733,0.06352156244526459,0.06172045484053182,0.015126230305867426,0.024619452370192987,0.022203015334292885,-0.21461249586404818
0.10069860488755221,-0.007175124087289797,0.06775201735001085,0.05797388270702642,0.01657598793848252,0.023501581234413337,0.015001509847964233,-0.20300310805923732
0.08971066096912175,-0.008960297971001457,0.06700503448900268,0.047495869637089724,0.011298902044853325,0.02410727955915239,0.02117173131456703,-0.1995645693215065
0.09976626914488074,-0.005092047894848789,0.06496468939308339,0.056936509278957124,0.01965312008563686,0.020465873424919224,0.0235595900302608,-0.21799497223695877
0.09605358365912178,0.0010103905990236218,0.06444935857055624,0.05958263028830311,0.009879946756792485,0.02017191086959491,0.018806191066396,-0.21914074242542664
0.09241648604630963,0.010976301175750498,0.07639425753485092,0.06022094360379414,0.012763735379777444,0.020045111281179126,0.017025827780061835,-0.20006446301924535
0.08766737950646732,-0.008310264083930069,0.07746820091236238,0.05657504296326776,0.014054228369117051,0.02108886086821621,0.018209169021885314,-0.2205544954631148
0.09272618954466531,0.0017994041034929491,0.07783663255783334,0.05780213814900779,0.008114809721260233,0.019213752482774498,0.02223194376791712,-0.2170173130324777
0.09947713508776354,-0.004884582871716204,0.06072681810767591,0.05762344316812047,0.010926188245238697,0.015224769807773467,0.01827503149386548,-0.21271321168196078
0.10284695416344017,0.0043305840452618274,0.06369950998846884,0.05990745702004821,0.010815936590420534,0.01240823859919653,0.00704615597482466,-0.2239182994763355
0.08554956548129915,-0.0077627416260403065,0.06004712174227783,0.06457484334022952,0.00467396108395511,0.009940063077663779,0.012505134400142724,-0.22564559271986118
0.09422556447277587,0.018462349491712597,0.07596288787340696,0.06626378961674455,0.013087918140785332,0.010740786950888167,0.01702286306860152,-0.20843370305754497
0.09254763641201645,0.006498508881364432,0.07435677951886459,0.06282298201837064,0.0055758380829364325,0.00512053022930745,0.00654908196482869,-0.19923132751210268
0.09013455953523844,2.52972982470323E-4,0.06913856643128533,0.061304043859148685,-7.22163525717806E-4,0.0032157882786995585,0.0018494486400700196,-0.20612408435420135
0.09189214311052128,-0.015145369509292152,0.0766249334931403,0.05860679290269696,0.001644673606378844,0.004566426887283368,0.005133745300403837,-0.22205226015552476
0.0986342010965657,0.022673757981815406,0.08300292265520036,0.06289659184396681,0.0027161264328907047,0.005882634232193354,0.0011454222747055024,-0.20241962442670933
0.0947688415849787,0.004640043496512005,0.07439560326965007,0.061283153615075414,-0.0023478900368733317,0.005882349479225075,0.002834358497226736,-0.21326339731783314
0.09459521155357241,0.0016494665103600386,0.0648725658178605,0.06049160437045356,-0.005516662224289396,4.054635596116761E-4,7.524942288358374E-4,-0.2241433848406215
0.0834851770659012,-0.007280923533941223,0.06086529587585835,0.05939831348662104,-0.0040671221241679765,6.181491886073867E-4,0.008311584083750627,-0.22262169268476872
0.09324601919434083,0.018670760972627362,0.06989954183474001,0.06768943726286304,-0.0010174905499000814,0.00434492906054338,-2.985543113601988E-4,-0.2170705100923354
0.08763829098667023,0.01418204491639403,0.08318646667384542,0.05405404867250627,-3.684702201429011E-4,0.0011966267145590774,-0.0026022234070814006,-0.2236355941427665
0.08653205223836112,2.9720527004603267E-5,0.07500152383427759,0.05809762323826147,-0.004199601106429809,0.0032728578849352628,-0.004539450748810072,-0.22405659512736453
0.09375663762446583,0.008612741478772888,0.06229146567415689,0.0536951713488439,-0.0017166685843497378,0.002066254383121965,6.697767084350724E-4,-0.21521563877585106
0.09321738172396174,0.011236223510501958,0.05723214295081958,0.05931186480950884,-0.0011792712098345067,4.0267878115379384E-4,-0.012100532701940472,-0.21947114184339445
0.08671870937798423,0.0020799140661251023,0.06820658642732728,0.05584799987114192,-0.0014277029892846471,-0.004015477573492015,-0.005779354901690287,-0.20977119592772778
0.08430108521964186,-0.008526578310838317,0.06404680980190221,0.04989927591137204,1.4207922731267113E-4,-0.004630819265252681,-0.006187023952448114,-0.22626163163602656
0.08475413501771227,0.004193701374795089,0.06408906269792498,0.05638435375641418,-0.0043605956186270525,0.00441777739398892,-0.00807629036471869,-0.21807277969241692
0.08664226388748168,0.013649887132885922,0.06898796272969848,0.053926031039958626,-9.472830902636355E-4,-0.0035852213507572804,-0.006465541906122496,-0.22238722932140476
0.08398486776089663,0.005269863290719214,0.07724819809919631,0.054782045093575316,-0.004683832255012112,-0.005993845908952368,-0.008426439709382599,-0.22308319112003389
0.08826877391642002,-0.008902411543508524,0.05987796941598212,0.05025005245529068,-0.00708658982165695,-0.006925785687617549,-0.008765310552180171,-0.2291284782972804
