0.08734342038132764,0.4986523937844238,0.09091967626701923,0.09431901106425278,0.08958485885434175,0.08685396271266038,0.0910741521528212,1.407990717549556
0.07732484616492233,0.5119738519372384,0.08020545046229437,0.08813917608389697,0.09611693153366203,0.09468035616215269,0.08421787525585982,1.4366079865547763
0.02310060522450001,0.48429295132744876,0.03440791707401263,0.04143637863666976,0.0773262683528817,0.05939311609428323,0.05884186586063222,1.4150631701892094
0.02944225845845253,0.46311924767875384,0.03583252245865835,0.03218726540937031,0.06494653353365945,0.057726069782174566,0.02207352303183577,1.3807265171908523
0.08251409524743832,0.5280192549129638,0.10751277723456186,0.11839493367197865,0.10485059318355257,0.09899381497052606,0.09218787681259674,1.4570629948696565
0.0821458322657194,0.4711091267809819,0.08329071119510577,0.08508312653027833,0.09595259128782682,0.09384455149824322,0.10075310699726717,1.442476232254696
0.02646610938496161,0.5005172030352552,0.03924459411055351,0.06892775016762333,0.07628867197904744,0.07955645062368281,0.06591832349865812,1.4098799830526545
0.03954278246060434,0.5519786637785035,0.04751446344547404,0.07156677052024261,0.08332831113971083,0.07550392314872958,0.07334346361649269,1.409092518170239
0.0954912640946697,0.5125019924422863,0.11303919611750374,0.1156380705912245,0.10634615673590682,0.11571318909160352,0.12208378998749704,1.3817092925194956
0.07875233380649463,0.5056849911517318,0.09337783902210142,0.11005013617773027,0.10670562470696376,0.09514634287204538,0.1184903927328046,1.4471205118553385
0.03954208236377509,0.466853332488532,0.05106014890584629,0.06821038057498081,0.07326526786671536,0.07224855994499034,0.08523804488716492,1.4120273962055618
0.04514017204105983,0.5298850230484243,0.07703082487057882,0.07254173777393083,0.07763924985020144,0.07692681660141795,0.06956904369080956,1.4453801630932939
0.08952620144471195,0.4992583681469763,0.14486296710065907,0.15372782808308852,0.1175086510646611,0.13149803139680316,0.15773587342477302,1.4049823873768852
0.08964199686754452,0.5094557979614659,0.12322133747037155,0.1361690752650755,0.11341661827243246,0.12976332175685112,0.1351904935607365,1.4312714041008143
0.050877590219976225,0.5117051521679118,0.07143429901883784,0.09765012016220173,0.10486222296983914,0.09783798424993352,0.10917144696161228,1.3540067622450687
0.05790909677407312,0.5189921682945847,0.06279525105877935,0.08351574461729021,0.09512075448255916,0.11131635402908893,0.09976977620533242,1.4231656242847741
0.11540048205832555,0.5448284526743931,0.14172568681324205,0.17329115035018955,0.11411593494678567,0.14225156137995912,0.15928525803686938,1.467966842119849
0.07915609807768374,0.49999728547596967,0.11384218503317256,0.15670605749322727,0.11460469483900311,0.14778833705343514,0.15312618410121398,1.4499081383881884
0.06641116116449622,0.5459115168579749,0.08273688185945208,0.10954244462642544,0.10646820836038494,0.11412386639644735,0.12775070747383668,1.4615898858186578
0.02828115442428171,0.528874251012351,0.050772022794025214,0.08150552851745754,0.09376257576944919,0.08698664937256212,0.09448512312457626,1.4000503942169107
0.09760394900381872,0.5502781231265483,0.12075313134714621,0.17177201637057235,0.12001562549336726,0.15796165403470575,0.16281452917182024,1.4417739155740288
0.09174644162541941,0.5145595615130594,0.13069481334026828,0.14067038966678824,0.13751128253054642,0.14041199727453849,0.1518823728184181,1.4178874352769129
0.061641741760209486,0.4985962306577883,0.08146029556419043,0.10001894633238764,0.10255526993036405,0.10840287961390718,0.13647192966039234,1.4634746481991399
0.03474115348061439,0.5008893799795558,0.0627597838092439,0.09469301204268255,0.08457344647822058,0.1176830382036598,0.13676559235412025,1.4170178169742174
0.10284565810911855,0.5525197963689853,0.13465015705582256,0.17645057075050932,0.12077495979355372,0.14519607184584882,0.1744929684526737,1.4354557309325224
0.07518136976798463,0.5282160507796279,0.1010245102367915,0.15194529651479455,0.12244211887657878,0.13727842689248468,0.17041552061830484,1.3972173035422653
0.04739956297893149,0.5997234991323827,0.07313745196721111,0.08702016275167558,0.09081198126695797,0.12146159834882532,0.12994622736259662,1.4245973712888342
0.03266691513889466,0.4893163742940962,0.058802243692189095,0.09247754479861957,0.08365517240304886,0.10185568254618559,0.12377378599133361,1.3776051891999634
0.10955194372109708,0.5311926207734702,0.1400578626453668,0.18542584144748855,0.12347472501842562,0.14364023637106713,0.15726675256866532,1.424619261092232
0.080523696074909,0.5297019199936025,0.12463356184197677,0.1545728072881095,0.11165054445172275,0.14772604519264873,0.16394869795102218,1.4480219340985596
0.03693628347667317,0.5300334152873901,0.0745473080845882,0.09662950173055651,0.08756756523408891,0.11197435240399686,0.12616564858641918,1.4424203335162598
0.04643326336215336,0.5187797680184127,0.05830811045149664,0.11622833668199563,0.09206765227068417,0.11704533742047636,0.12557936834621156,1.398381250786952
0.09709792152838373,0.4970842095184264,0.13355902845848533,0.18388208484559107,0.12017614384445693,0.1464270999086374,0.16365969036647662,1.4301014518960433
0.06794171814985417,0.5465225774683206,0.11585829666406683,0.15317989281780967,0.09965869761448977,0.14277697603744144,0.1492521168792031,1.3849570569035947
0.023648841569303462,0.4959837979844641,0.058264013723641914,0.09986574272579138,0.09313102957254002,0.1078069487124465,0.12616750010142674,1.4274329638481302
0.0337116113437303,0.5351301800201246,0.06874322696465261,0.09533152374027813,0.0765226121684485,0.090433612889582,0.11031432463509669,1.4131538719437207
0.08490422503617227,0.5119030825319532,0.1407369642829072,0.17678380179433545,0.11924444088713004,0.13308041637070792,0.15781020132746237,1.437685948377049
0.08140186827567862,0.5346334450611234,0.10161797714620806,0.1676408138754099,0.08091935994894946,0.13144662561020046,0.14945516375465062,1.4436845279699762
0.03348894901328614,0.5311929596217576,0.06714373490701904,0.10986184629014362,0.07916358146637432,0.11004802103126349,0.11503866601757973,1.3162798938217295
0.06904867588225032,0.5004895222295304,0.10773139578454574,0.14264656464397127,0.08314561778435174,0.12358454605123659,0.13901355118344882,1.3682646645530776
0.10120745683261335,0.5432008325377382,0.1408847756330916,0.17070056890972102,0.10243583611633925,0.14138438940457232,0.16190826802287014,1.431719726528103
0.08494685182682381,0.4763499944884553,0.13561189069184232,0.15762470608981316,0.07979284723194387,0.14203394503882608,0.1393897188569914,1.3546427413983346
0.020252413220908327,0.5099387718753362,0.061115192060063904,0.10019799317638416,0.07928612725115007,0.10320687681805825,0.09529920723673738,1.3374197540968142
0.09920071439172211,0.5162759281864547,0.13009356072611838,0.18615548585136,0.11966220599422031,0.13155250090815324,0.16571656400461773,1.4253521597181447
0.1029827141656595,0.4843473845224992,0.15597001066652338,0.17726447018267508,0.1029875240008112,0.15885428724399978,0.1658029791067021,1.382302441847053
0.0929738797582823,0.46299526643965,0.12688165765299778,0.18153965192011476,0.12298697583211747,0.15410971911271945,0.17823406075937895,1.332295244120774
0.05290832385450868,0.5429910423818598,0.07783200273604643,0.1161666980784178,0.10095549327189104,0.11016840757273753,0.1269224723318083,1.3948335908577227
0.11891382154693715,0.5064172441921314,0.15411583553638414,0.19870304648399256,0.11297682621892824,0.15085315479836003,0.1721275250593122,1.4282121455709158
0.11052947461958287,0.5143438592775705,0.14292663195629415,0.19614367466194685,0.12288838701060766,0.16622099462085552,0.17628133519767114,1.3642798772930629
0.09171920494349986,0.5398926606143933,0.12885182173782653,0.16423242318728828,0.11841805535177073,0.1407639951747762,0.17649908955073448,1.4603444465649675
0.04547490816608148,0.5462862417876038,0.0551929347843782,0.11100318970967485,0.0954318499479987,0.09540533663007791,0.14300646279305967,1.4524847471055613
0.10903405058610632,0.537598632436524,0.1615534723790753,0.19705278546960692,0.11637775689753206,0.15433486324235537,0.17240111505052488,1.4272952248616615
0.1106158079223012,0.5330704083332803,0.1434492213438566,0.18734035426030884,0.11047865364681264,0.16203822885579644,0.17968092122384507,1.3648843089444935
0.08767640129197675,0.5729673602612301,0.12598259374622964,0.15830484042905024,0.09093631243698347,0.11784828182268227,0.14557392902867278,1.4529544105133256
0.03969857993390032,0.5176905254325633,0.07834505174845906,0.12424501813347255,0.08318558933154258,0.10350054377803301,0.11389396649080692,1.3721814126912466
0.11952866313559429,0.5188325189101854,0.16091565812118597,0.20580637795060733,0.11377330800147185,0.15163859336779556,0.166080979307774,1.3901991473023083
0.1056636696794202,0.5073427018356543,0.1395243895010278,0.19624268218357394,0.114687449247407,0.1509467105715139,0.17559145311223634,1.419484085746606
0.058807896944549604,0.4924464489630625,0.1043147978434963,0.14326569927160088,0.10552138075913262,0.12867215422100622,0.14640241151211633,1.4126519623189848
0.03461634401716488,0.55553110296834,0.08691559080683918,0.11668955189238382,0.08376929972817411,0.09341725396166055,0.09965251665377566,1.3523932324180288
0.13258061981121882,0.5290372236817048,0.16113422739323585,0.18945572230251956,0.10884880842392897,0.1480834836310341,0.18146342471270074,1.37018509825396
0.08791319074506597,0.5402849969754693,0.1365029802234567,0.19044945035473074,0.0919825307384168,0.1362442492199599,0.1441702000311317,1.4488550722667697
0.061246403883735354,0.5137091771717034,0.10776216628205275,0.12168948292247955,0.08403499410751568,0.1005673584624229,0.10930135914689347,1.4297322510477142
0.0295014955764367,0.5595361710377551,0.05055613950136209,0.08977055634949534,0.07061149724321994,0.08911104803750872,0.08007229387690759,1.4379292746860501
0.09470526794979664,0.5240330194264383,0.1337804760148148,0.17451484335067877,0.10832847968522114,0.11383593251852488,0.13003192997503074,1.4269235361715418
0.07160533809085444,0.5231486438264128,0.10238539048122226,0.1424494819148389,0.09731483833015814,0.11320807766812066,0.11536834933160525,1.3838560912262952
0.04563605327059803,0.5496133989452536,0.09795556986040453,0.09657015188952127,0.06737224637704153,0.0752391423290039,0.08445953723881784,1.3808878129867277
0.025298292964827763,0.5428336005050154,0.07436602961371323,0.07887643369745398,0.06390318910701957,0.07683624957400982,0.0618407308094063,1.3756443373178329
0.08533149199706218,0.5281942582853262,0.13637097183665786,0.14528940285503594,0.091296719783712,0.09978582356206088,0.11988054039795486,1.3750844415617431
0.07298458981316767,0.5116170487033606,0.11572398863447468,0.13024813160606247,0.07246674593516311,0.08633643286836033,0.0957002191486103,1.3904762979874061
0.027243554466733013,0.5768775738851288,0.039525979245874206,0.09349156103982102,0.056941450568066466,0.06069248955014011,0.06290093160091864,1.4225876521359955
0.051481548258293715,0.5266997494768239,0.08752887597171614,0.12735167645537193,0.0644551759716294,0.07775713098522895,0.08551738811790273,1.3407143514418431
0.09441424564535852,0.5660519569443495,0.10509168113398314,0.17089062991165813,0.06856275900867546,0.10331428307296404,0.09947432217149141,1.3714788722518592
0.06894893015414694,0.5135931848932562,0.10280149281890502,0.14544167526359164,0.06499434862529069,0.1032480506769288,0.08899150721078049,1.4274590221884287
0.026530663624686205,0.5679792394070787,0.03986275584875227,0.0776450995796589,0.03498940384043449,0.045595557137146206,0.05864831778874997,1.36869124239662
0.09175734075468703,0.5033250983103693,0.12224888712508905,0.16294457074960264,0.05688434746081762,0.1015555586217359,0.07867202473070298,1.348608843752118
0.09813800622834966,0.5511147998247923,0.12660612378895142,0.18075144515096023,0.07675310014250881,0.10443771191270707,0.1077626523281725,1.3287812767115306
0.07251918419641384,0.529849489904289,0.10129221149148059,0.14192805507798187,0.04877088485489708,0.09184506131482223,0.09089738401711951,1.4013255133705582
0.024650891461979223,0.518618925805384,0.061917495405269515,0.09733978366655277,0.050092300584975887,0.056737339280744516,0.05099399846832573,1.427926965704639
0.10033477497853859,0.5190586531210047,0.12547120637616882,0.1807562234579628,0.0659006109004166,0.09436272153127705,0.10298406763570105,1.3158145587715393
0.09887414261505038,0.5626932648529664,0.1382198324956977,0.17715237855630542,0.09076277371976567,0.0970784720954411,0.1112602263114201,1.4434135637020313
0.07106585521311924,0.5408290368904304,0.085824827268324,0.13809769137915665,0.05739408599657248,0.09326902493377671,0.09175734280238194,1.354172006960963
0.023810307980395722,0.5216482726900445,0.05696667546407487,0.07888442167862023,0.03470985758461915,0.050695164246963735,0.06092179688351261,1.366953610926558
0.08142061183272506,0.5450148191118083,0.1243297319741051,0.1681814505314902,0.06345106645241261,0.08679097549607584,0.08519113698928671,1.387423091382391
0.08591126096514339,0.5233371104080546,0.11217880655039728,0.16216666054624412,0.06342808908652267,0.08215557262994326,0.0780466045944905,1.3722168033103959
0.045082332698333144,0.522563120075768,0.07776318478843407,0.1250386125706357,0.06387079547906771,0.059126263497777054,0.08083231480520993,1.344913544677611
0.022934856041042447,0.5313970474494831,0.03355851369309473,0.07102560000255236,0.028473865222076945,0.05998073107302495,0.03868877626980693,1.3910809631092895
0.08517947864334806,0.5234240042876341,0.1152436021363322,0.16382124548848054,0.06698376722145798,0.09094908132960011,0.08999455590693323,1.3424706979404983
0.07134171023569146,0.5507043208613245,0.10937751766247718,0.14867138228385743,0.0634950438562882,0.08777191237979076,0.08594948224874227,1.363424467055778
0.06256440613417802,0.533475888882805,0.06848632496027958,0.1021786260049872,0.031150927749682054,0.06931342992370954,0.04671595881875729,1.3310251373750035
0.014211919663866058,0.5611060325053568,0.016848265609710353,0.05628093757804873,0.029157672100225587,0.03491178023370079,0.024535246438393575,1.3910298917804547
0.08160672668172009,0.5125661992540688,0.09683946739272303,0.13635630564569007,0.057636878495350104,0.07928185889943032,0.08010589899171174,1.4087202997484924
0.07015998010917103,0.5397934845537391,0.09755597279693079,0.11668227849556183,0.05862504934755565,0.07159580959209287,0.06961542532266252,1.4132268539824702
0.04828459214354516,0.5290267588422095,0.04776674427249797,0.060953533600040244,0.04329654457180362,0.057569700025823047,0.05562404443857897,1.3554735108214595
-0.01535410371602762,0.5224989065711962,0.013610670598105945,0.031460443093903265,0.024501619632389154,0.029135653980873744,0.015457588931020658,1.3150947693854445
0.07872657178194174,0.5205241977394984,0.0949413359188766,0.11547534412083967,0.048600224233640923,0.08725950969256786,0.05891437479175981,1.4003838921769631
0.05635701569985043,0.5365447482312354,0.08994929619505959,0.1019897290670744,0.06709515498480001,0.0642547920795346,0.055954497827019604,1.396279178705453
0.04765853539528329,0.5400405563323006,0.04684931563937227,0.0585443681345593,0.05656346118815239,0.041105187034041674,0.05506588583365349,1.3720578167664814
-0.004452150428364118,0.5447752714953394,-0.0019858518530192046,0.01914731345456483,0.0201847201430884,0.025822319263117535,0.0200050987864797,1.313751753331517
0.04726777856564798,0.5360857433732883,0.07164634927602494,0.1063708025297933,0.045394542887162645,0.05940194419988885,0.0636756674698579,1.3954131464922628
0.0588258978941922,0.520259565585591,0.06361288943531765,0.08273130090460108,0.060932774583107134,0.057096184709193296,0.06831436229299037,1.3265182499202064
0.044653412341589385,0.5321372725354769,0.04733822114304679,0.03662394789239971,0.044335222096093856,0.05224531027196598,0.027273359101979675,1.317121810082758
-0.007751458719687247,0.5555099815641243,-5.919208618332927E-4,-0.00789602328704695,0.017937743572535376,0.01661403932683879,0.008438008605768935,1.3966355556378256
0.06053960056618422,0.521974318712507,0.0677917626781469,0.07493919591502196,0.06317224587520161,0.05713314341634746,0.05533197633674171,1.2770670527295553
0.05180784588125438,0.5057941659809079,0.06017727600602736,0.04423796985274893,0.0595896272296026,0.0451282334079911,0.04969884715519329,1.3502181833843911
0.02571260433020623,0.509760489357984,0.010924154100069184,0.015971533872656214,0.042614877815369226,0.03192549315804586,0.012429598432076833,1.3566666605134745
-0.018926399523157417,0.5239358529438423,-0.024137879003558765,-0.034494105630390466,0.01907706121140157,0.009081286656980114,-0.004169669677290446,1.3576875049422357
0.0724517962264481,0.5289281453880089,0.0745340511919579,0.06381423700380298,0.050744578023471425,0.0676621547416206,0.040699746359870205,1.406663432084183
0.057150569488045005,0.5032961881996691,0.062217417481656975,0.06723615498315919,0.07980948801539628,0.07630854179341108,0.052298654489447226,1.4172419838796149
0.041728647794807186,0.5668411590690321,0.035625818333477145,0.04615345456690072,0.04903499897535037,0.049534566108694,0.028038528398155495,1.3900500590016234
-0.012253724852359772,0.5112860747013539,-0.004833489458003867,-0.02457466257526305,0.006979544700652275,-0.0011094940243734754,-0.012184054284607003,1.3785058407457755
0.05967429138076594,0.5628579615085045,0.07586348951005566,0.051700710728019544,0.05212662414808693,0.05669251419746997,0.04062385387711935,1.399949806320621
0.05662372286206516,0.5223248221542401,0.05236573967481035,0.04700441304843589,0.07368064080883253,0.058084101338611076,0.02191316125558012,1.3056423510092028
0.038832257012877625,0.5525149095332724,0.04141682465568402,0.02341801194100657,0.05391365997237989,0.03559696441061005,0.025300485043361878,1.347975746000276
0.0018363466200890667,0.5561812876464208,0.010733873185881393,-0.019653347341521542,0.045184296094533255,0.016285817497164824,-0.00338561756906957,1.337209445414102
0.07612126721342607,0.5287113399247487,0.07677744068669881,0.06272153402148156,0.057998266118964824,0.04488036666950482,0.040291210138782854,1.364361704238411
0.05683729839454355,0.5538678226036274,0.055851878399174215,0.034224470071250866,0.08884722315148381,0.04477082328906562,0.0220450847271381,1.335166733629463
0.037804124789519354,0.5563994957653842,0.029876226085178044,0.033335182842541576,0.06054056786810659,0.040618301250128004,0.016499170429163573,1.2877366844494398
0.017863925290280278,0.5107891723343848,0.0172528715063867,-0.0024967877341490544,0.027546386825054316,0.022236690331039616,-0.005418173471138463,1.331194669787334
0.06991186627952961,0.5403840473261131,0.08521864248785709,0.08655142869614463,0.08627047446229895,0.05304915457612737,0.05001115481411396,1.3578588589231766
0.0676450297470349,0.5323213008747476,0.06648411576540957,0.08120211385304428,0.0672500948282413,0.06038017832741466,0.03229555198449168,1.3580729020691868
0.04912448321334539,0.5169926661255166,0.03705059782702817,0.0388334565051723,0.05689102952249747,0.04015196239548867,0.004717598597228921,1.394903775255822
0.04346445928547834,0.5420088635169361,0.022159973839416005,0.029125074285948963,0.03379164054454573,0.02984852078320879,-0.01388560258653824,1.3449393706397024
0.09713160241592163,0.5312969278678689,0.10570757014141915,0.10338999581049037,0.0753645200854879,0.061467850309270496,0.05749329618302385,1.3734471722957888
0.0902481580573874,0.5048102003190463,0.09737745355567724,0.09683929683751522,0.08099643587606283,0.06478508566606146,0.04990603488365404,1.3223536288087225
0.046068815674910744,0.5445904542175976,0.050664429125616146,0.06578153099325336,0.06787403786969781,0.04167922329536835,0.014157168117899388,1.3611926788011828
0.019083070183598665,0.5361628319045901,0.02062832894656674,0.041890076718720776,0.05646383851105836,0.02776979932778394,-0.02259781413352691,1.3518160651403142
0.08215238116508626,0.5898690371858332,0.10546784291783491,0.10651666742921578,0.07858750740677169,0.08956182258601886,0.03167764445428078,1.3370553374029683
0.07543610174052942,0.5087904559350561,0.06367239835921472,0.10756530566834506,0.0712344745926042,0.0566000393094457,0.04143875104646562,1.383320438108921
0.04816892981183453,0.5514676826822845,0.030837334647701928,0.06485251098681807,0.04997508717675621,0.03479348793007934,-0.004050853090715677,1.3659807578006564
0.007426819245442644,0.5455203275149917,0.030049567441127342,0.030990246005315865,0.03040442861998473,0.017101318206270453,-0.029280199496077037,1.377175765841713
0.06846259396038584,0.5795191351996948,0.07624069664621298,0.10417679451382995,0.07732521104641256,0.051933639096335096,0.029033491594315255,1.4077042489358689
0.049075533728533224,0.5210223518257832,0.057426248758228486,0.09215262367903777,0.06642759713605852,0.050587335405831,0.013710795035694204,1.3625655316746688
0.02980832301967443,0.5237132322046205,0.032583247358631356,0.047670051061758194,0.039496272807040336,0.022477861963852142,0.011270725188687405,1.3957936874477923
0.00479436167218424,0.5197568995214883,0.00479428970213774,0.0046926084490672365,0.02834313399003695,-0.014189225091579884,-0.03699666041474003,1.3720663990233306
0.0767968923208578,0.507531484880058,0.07013050720844967,0.09684237988244956,0.05693583646520924,0.054682009268200535,0.00738821846072321,1.394056736120819
0.05346815405588347,0.49900325908955956,0.0572491644408087,0.07820210385544774,0.03992660156901042,0.04151545720168149,-0.007871656853278522,1.3751278834490015
0.018821110731988402,0.5105861702038148,0.02512216496809258,0.02783179748467609,0.04119281131017155,0.01655331455354922,-0.028670113868168028,1.446835636652046
0.001137425630299611,0.5005055203974665,-0.02075221186427863,0.0072979611161259035,0.017795931644514908,-0.007622445875337778,-0.05509048710072065,1.2698716126626488
0.0635137027549422,0.5058812450199706,0.07779957816989388,0.07996558434233784,0.05154986907964403,0.03534519383209907,0.0016189875283557531,1.3413070651123398
0.039902855475506815,0.5153230924380733,0.0630549945422812,0.07160492871836988,0.04138034229258562,0.016785346101344547,-0.01898571656304365,1.341042926656327
0.01948549955740285,0.5341390168256044,0.01752730840675467,0.0011700715988267388,0.03387467761022752,0.005168614286916424,-0.03772107394486628,1.4408804194034754
-0.008714312593357221,0.5364812734280737,-0.018794627197179663,-0.010515400773025539,0.0010976424355665947,-0.04442891410935386,-0.07206875016319758,1.3511715070092767
0.04149750821440253,0.5758255561851592,0.04084933090674605,0.06659329056643479,0.03751558484710002,-0.0012354233183103698,-0.031879303691174296,1.38903189335931
0.03182525703380098,0.5054801300631644,0.037125594558982025,0.0433708825589444,0.02346583692277105,-0.0036033707909277177,-0.04089434990469555,1.3658480814992715
0.02206324973979695,0.5081466574127489,0.0018365097751529224,0.010493465065016758,0.008412079603853585,-0.023797708822128977,-0.05392032685420737,1.297041982004667
-0.011868591091722835,0.4959765819374789,-0.018907225301056246,0.0051786728636581975,-0.0025003215044998115,-0.03801671424582127,-0.08622238363107189,1.338497389171231
0.047142815815541715,0.5262168744178289,0.046318835404788705,0.04541209514212228,0.042785511984270094,0.005193420946758197,-0.029135930821626806,1.399154001574234
0.034032595599310496,0.47978341554772086,0.028492812974505986,0.04185796187160329,0.021398746318991333,-0.024820956539712724,-0.04809142468801587,1.370422356682105
0.00803264722894232,0.5073751542238102,-0.0050266659274735845,-9.225581153296195E-4,0.002541068629530523,-0.02990082860181838,-0.07878252452448638,1.3559754736294805
0.0037116656374833984,0.5227796046720126,-0.0060197023624786496,0.00335843364465045,-0.012316148307114113,-0.0386711610130502,-0.09271732465397386,1.3502641117143754
0.051927742252563636,0.5537157813373134,0.05007092427642067,0.05685790816063547,0.04034905243330912,-0.004240466518445387,-0.042724952197691506,1.3522333551557546
0.03857940252207237,0.5514407332149996,0.027125671747495198,0.02592556757428167,0.025004984852481177,-0.010144585210413547,-0.04512151114281487,1.3470527819347056
0.015833588314495654,0.4997067432554723,-0.009283014229460212,0.009107247189897505,0.015830074159309173,-0.030992733106487015,-0.08020880151197686,1.3702366700178743
0.013217805427730872,0.4875624629550429,0.01883468390340629,0.0304322980696188,0.015265580161443058,-0.019291232877117193,-0.06389992530749586,1.2833463568614738
0.06213191929044872,0.5069322660127177,0.05850056357447916,0.08239883098252078,0.04906200960195923,0.014769905450971569,-0.028492328205862984,1.367063278494916
0.039255140114158114,0.5409307009545021,0.03438652173609136,0.052908569127671355,0.04065054752813785,0.003429978292328426,-0.04920308372360503,1.3018170692301
0.001648701591690097,0.5051341093320518,0.02059601613007521,-0.006103706487038493,0.023506352764949508,-0.012160278603102682,-0.05019867035183378,1.3642055177679355
0.02672049135858241,0.5047599609322074,0.02891398243631847,0.032099509550595554,0.021293952930093018,-3.137711553562933E-4,-0.0508866698816646,1.3478184236952873
0.06250422318074197,0.5467982221131078,0.051672370687635284,0.07730776191155812,0.04637639923870535,0.011052529347585492,-0.022588002703733834,1.4213936768141047
0.021839443199403133,0.5369904039932124,0.038195690069731725,0.06252589552497148,0.0474353992673129,0.019587568401303764,-0.03273698243850083,1.318064697276353
0.017959486892123375,0.5430561419139648,0.0065147056819689,0.019283110282611864,0.01291738270171535,0.0013962551815199721,-0.05081716816440976,1.3783230649445215
0.0322078886354278,0.5129867096312449,0.02881216248615991,0.06001226708974195,0.04119886697751234,0.0115146979672748,-0.02848474852098988,1.3543209833548702
0.0655658705084476,0.5273451914647398,0.06283378179294204,0.07871215359872728,0.058624747384942576,0.034077059787121645,-0.010380245953918673,1.377033929872474
0.0419764984949417,0.5142037507637232,0.03917108249802763,0.0547595997581336,0.0616134586142178,0.039428319764189285,-0.008122650628432137,1.3891541697953276
0.017332568943509336,0.4820652413900883,-0.001028965680676722,0.01882391425493618,0.04779443585666433,-0.006062859278812439,-0.0326157801067289,1.356310375304032
0.02519993368470299,0.5117851480030329,0.05169873314681885,0.06932739984381876,0.042071674079026906,0.01628548168236194,-0.015510437402218566,1.2931088672408013
0.05701386358228707,0.526620905421211,0.0691287746499543,0.0840464938001421,0.05250736220065277,0.04865293898451895,0.01598042584024811,1.302124954054193
0.05473753031913529,0.531526086731294,0.0728273445616814,0.0649697204113162,0.08176288569432129,0.04036822153262957,-0.007858705071553678,1.334481107548784
0.015499456839239844,0.5556268907037114,1.4218914615742932E-4,0.014945079059633175,0.037997140416643004,0.002778692118030147,-0.03749900681298933,1.333282404466654
0.020576900581256476,0.5157160554391211,0.01681477430690079,0.050584270511305165,0.03550669977265046,0.005210920194793978,-0.0453901212843575,1.390841597097157
0.06621146407751521,0.5201662230768983,0.05343233990840847,0.07266241588710506,0.06106612875652765,0.0320140428650424,-0.0034545775480833638,1.3103380466433165
0.042029256549528465,0.5229988194548231,0.03781274815734994,0.06413162017626949,0.03801504605991204,0.026010112992682775,-0.0010991279601488273,1.4048992362388557
0.002582454646233885,0.5100505611963474,0.004281788651031566,0.018956919033075243,0.037818336500829705,-0.007477972723409614,-0.04790526889075023,1.3248107104477096
0.033779074027618684,0.4966358700079974,0.03612150455269584,0.05568702932930083,0.047174136525582985,0.015416189678310582,-0.013098259144146852,1.3439757555251568
0.03850228459330009,0.5181347618328551,0.044578730067017104,0.06992513688403654,0.058789610231655125,0.02681574039512264,-0.0012994290071715547,1.3766065068002682
0.014858933242300962,0.5460095903605414,0.03896344789346684,0.03833874395206814,0.04999485178689323,0.03053275512046552,-0.011264887189036905,1.3230117207369998
-0.0014773593454250225,0.5330952822945775,-0.017736144181761684,-0.004078959177591561,0.021637659586728333,-0.02128734366379361,-0.05676400754021869,1.3556338400550418
0.02441071262473722,0.5424247163995538,0.025002006428735016,0.042200539530838965,0.035122922324913354,0.022355099550239056,-0.02291647828220405,1.3865343232098144
0.047491233667093416,0.5158268684836752,0.04401592836362732,0.055919304222354874,0.0407218711462309,0.02130146282249875,0.0025522291256276468,1.3965786846977137
0.02811516376423598,0.5264941866032141,0.022159749479478266,0.023842870843663065,0.050547233640008106,0.009675011496113052,-0.02900420752126588,1.3236154810240268
-0.005578414053531468,0.5121283262131249,-0.028365703091937422,-0.024931840184716253,0.019348286331647237,-0.020879008228857354,-0.05491611920694738,1.3355361446727365
0.019316922478277754,0.5139648674480416,0.031794832573571574,0.04634134275423101,0.04265524470000096,0.008636225770202236,-0.030836886293688234,1.3986153900411855
0.031989148356564905,0.5485222387751234,0.031759487431540424,0.04363631411516492,0.03897063858857104,0.015381560579469442,-0.017773189927556495,1.3974693002635454
0.022540934098373197,0.5546232280283384,0.015970427773234295,0.040140866875589994,0.024848170490715905,3.895921374187217E-4,-0.0361528845287391,1.3579867798844407
-0.03444473255027089,0.509657378222593,-0.03074226671682275,-0.03272134869652358,0.015055985314478073,-0.03928087591839153,-0.07593155493117512,1.3587948160082763
0.016211900623114596,0.5494630615886863,0.00846031427348315,0.02834512262857823,0.025273376139772805,-0.008672718901494016,-0.05363760276365154,1.3972273019021684
0.030700803042707888,0.5028874318211364,0.024854113595486227,0.02567500225676379,0.023522128400048317,-0.0030245100432522857,-0.04616295220677268,1.434531718687073
0.0046837891961212215,0.46912192001035535,-0.0076396279689619475,0.01214808875265583,0.021036991374492015,-0.019228620377826165,-0.05798653323807004,1.3610980637447532
-0.036311606734890554,0.5250597419014152,-0.050181148062537324,-0.057183203284971326,-0.0027666329141644293,-0.05398463119173965,-0.0904519877438883,1.3938955564777307
0.02522409802007481,0.5095242011416911,0.02178700302796112,0.02516300501545001,0.022052807113616974,-0.005072042138363619,-0.044406308289586374,1.3793440852431396
0.016619736868770017,0.4840994443680585,-0.0017173097929464812,-0.0057011904607037365,0.021433271958347103,-0.013150725683148767,-0.05768556398396134,1.322757220487371
-0.023896949205338233,0.5086494250430558,-0.01307813761137457,-0.029175838912422446,0.014592709327914325,-0.028660949230629368,-0.053367634541319084,1.3524171431417766
-0.04937293296547103,0.4943727736756265,-0.06940679822894727,-0.05089948221712927,-0.014724147332973043,-0.07007342505270249,-0.09703990900775207,1.3682316208612364
0.02707630931150763,0.497691264499066,0.020433297729673117,0.018989120235114343,0.018682580248259608,-0.010243378297776206,-0.043158112848106084,1.3465001107092849
0.025505844760722526,0.531994373308602,0.0041930698204971474,0.011155826688138758,0.0173005635194861,-0.017465141335247188,-0.0728154325921701,1.3837912566144355
-0.01310673459419298,0.5352833431370381,-0.03489571817178986,-0.035179056393345946,0.011500512087446565,-0.037748124420043744,-0.0739867138572395,1.4660608403499085
-0.03320314691312983,0.5359498670643854,-0.05011362147027723,-0.06676069351731123,-0.00824859927956786,-0.0417586569949245,-0.08920717796654361,1.3269902296809912
0.017141384469456677,0.5461748097763606,0.020331714945313557,0.020242080153787163,0.028720192993088308,-0.024949960013056584,-0.02875044299380658,1.4297708641706628
-0.0013916299333223336,0.513035487607287,0.002693659441869413,-0.012531238599058143,0.02484429575858958,-0.018142248471558247,-0.06306373446366298,1.3754011725843107
-0.003988934811179111,0.4764086344701329,-0.024772251776747824,-0.03986977681215687,0.012762658680405266,-0.03225689125237488,-0.07974578193859799,1.360813877433771
0.008920734285145233,0.5225173618402842,-0.013278618064902888,-0.02126348787640769,0.005855315674233757,-0.048036015875997116,-0.0803631368938221,1.393219795247194
0.022097932238356485,0.5570347052965804,0.025620268218390658,0.01022005043242937,0.0277275232497361,-0.005180551049381707,-0.03155675511253808,1.3926773671812007
0.006412174932671847,0.46897405600385406,-0.009140716869249733,-0.0032924278525328396,0.025363320107400552,-0.023786214800017656,-0.03569058045536307,1.4104793009499976
-0.020518604573744843,0.5021478423721847,-0.05105011049784982,-0.05823307077421991,0.005461353537756966,-0.03591491648554331,-0.09136612353850335,1.3759939728537802
0.0375690411068429,0.521433153846975,0.02376919408479432,0.030791204237011,0.032284786097223565,0.009311414182296852,-0.025671309562782067,1.4185510132716201
0.03871816511235394,0.5373620134411108,0.009677786198610455,0.023537640234892465,0.0496773701168051,0.0306272487194784,-0.0190715421914793,1.354714517484375
0.0187255742973139,0.5584648466620454,-8.018251514460746E-4,-0.02023048686937148,0.03361643562827826,0.0011128168995461136,-0.016744456596466926,1.4189094497358203
0.004237879770992213,0.5262640074938801,-0.018732181174463004,-0.03439819831912036,0.028228803866132236,0.0016495202107173169,-0.05610877712568194,1.389877551507579
0.05043623713576868,0.572182869459094,0.03364684113652619,0.03667350886084147,0.06657830276421442,0.03269163158824982,7.86816310980615E-4,1.4347656790759216
0.04357922230663683,0.5407987181647153,0.039205780990995046,0.022649042521088934,0.07476178861098949,0.04103504269106377,0.01818870244954111,1.4039701044705912
0.021188741296954777,0.5571552915610472,0.010523330955474574,0.012979101687257117,0.05710189727711164,0.01945400793464219,-0.013257025318097828,1.3898440745403493
-0.0067119799079762,0.5278254070660552,-0.025261682260440652,-0.0016916320090780634,0.03846392786591787,0.01442288855091277,-0.012431640041445976,1.3922285676346051
0.05119986164240075,0.520460336300778,0.06132032045405898,0.05416475904716684,0.06380516260453312,0.06415033203804583,0.02675469665508453,1.4279781698041154
0.032737171537937475,0.5049176737054368,0.024264742964211463,0.03879661234751313,0.07170785190136333,0.04484434897494998,0.01260293161735343,1.3658022979702735
0.015795411624931602,0.468325888603371,0.0113465073142892,-0.010942732724453223,0.04266070191978878,0.04086455247884491,0.01786053281464356,1.3519320018148824
-6.422025030516531E-4,0.4828884192040279,-0.01112774223233312,-0.023735127854696295,0.032742282039000196,0.03369421947069187,0.007921859780321824,1.4021102214114094
0.04617515385599864,0.49813793709521026,0.05521480376804322,0.05000773021420319,0.09964846819320146,0.07685790361153481,0.06245371734575047,1.3547517313656194
0.0330102392016388,0.48935951287375334,0.021637298165494465,0.030345785807156946,0.08149850334304265,0.06211631467956972,0.05698598761880237,1.3871418312198993
0.02028163682971865,0.5086511374677278,-0.013612299577428894,-0.006967141191676687,0.05122097780272801,0.058394055619443476,0.019088885808921586,1.428235438785476
0.02305903804597943,0.5017849701289688,7.616830659191102E-4,0.0122010095080803,0.04767287620228122,0.03937944830243048,0.00319430990711989,1.3857556661281936
0.04601105463416282,0.47651883350454677,0.04710400200506575,0.05418890753181598,0.0645917872443764,0.0795557999898059,0.057647545337907294,1.3614902050912934
0.03256819903034728,0.5084224250005736,0.0419771385995447,0.029281178444474823,0.08086002035613352,0.06676992620120493,0.04670163839317596,1.3746285243113
0.002139115193824197,0.511569814288904,-0.01275625719779015,-1.0396349911254934E-4,0.05715496845525018,0.044746575024667515,0.015583657738086102,1.3231029683315638
0.013416437133133527,0.4325799874608041,0.01342326741241826,0.03428387000399346,0.05244644257280396,0.06204552589952974,0.0209968947040366,1.4187308282765254
0.04217714782524699,0.43482712495222264,0.04156419938390235,0.051834462453245814,0.07584175063928848,0.08237716970483003,0.054381897713161445,1.265374850802904
0.017951649340980428,0.4620247059355228,0.04560710666652443,0.026995441733224924,0.07747235085514435,0.07952691070081866,0.032266787890532334,1.3833622371809158
-0.01612194470215659,0.4846765577802338,-0.020164844691054465,-0.016765077984397567,0.04877771964793941,0.03529061588963617,-0.013716653402868059,1.3643596925040191
0.017344647238977242,0.5218248244794493,0.01579676891109657,0.020733220270687424,0.05429410463103791,0.04496361471704406,0.017169043729930444,1.3955761302362537
0.03405900173268537,0.47401704462303174,0.02878937533741957,0.04999443455215098,0.08357343484020037,0.07696303757832083,0.011865065103794597,1.3753033472816103
0.026874096995348346,0.46339141966708663,0.011562694914232738,0.029511968626950248,0.06878867963028491,0.052288664383064,0.018265098644582662,1.3458366765292962
-0.015548798150926786,0.45443763053423225,-0.03090165657986981,-0.02730573854038764,0.04686106679913104,0.03502263522100549,-0.02129485369402222,1.378756821211767
0.014477867325531184,0.4315086384023388,0.01998815317057796,0.03904775221464062,0.05113992381969755,0.04376385418866042,0.01117504300014902,1.371737573796219
0.01899167160733096,0.4501341448347834,0.028232789997106014,0.03660275699876771,0.06919276409194619,0.04830315323333771,0.0139402824468506,1.3408476952305424
-0.0077950346614573535,0.4594976051257566,-0.002369323378614375,0.02035401746624842,0.04636285854936031,0.04323645272984871,-0.006542909523854771,1.3769103792291826
-0.04764451368100551,0.47585201759975804,-0.046942740439937396,-0.040068447820493396,0.0380070533248896,-0.011331273075798143,-0.03783491174799747,1.321995556584735
0.023791882781782632,0.4710382755442266,0.029267627565950364,0.056293598514227806,0.06071083506273994,0.055148576817122825,-0.0020272373682466037,1.3886090365263757
0.03749987865074709,0.436002479812282,0.032287638369893575,0.036919875599529015,0.05618071534100358,0.037358453481148725,-0.0035000164846869723,1.326977617654881
-5.603518445220426E-4,0.4794002829032884,0.006911688987098931,0.011798165088094755,0.04023896412754875,0.020533960024493574,-0.011192321154031617,1.2968066353064498
-0.03229054084081688,0.426299155076315,-0.03355745160387908,-0.026495896517804676,0.027158625906478648,-0.010410081007939614,-0.057042002841273046,1.314663017816933
0.04072734135718015,0.45729514319472514,0.04758582578597271,0.06257979012184539,0.058457468423560414,0.03952378389523485,0.019632671550153316,1.4288731257667362
0.0332352191417616,0.4689510048965163,0.04003569857766734,0.024525683574733337,0.06089254349123147,0.0444661926060451,0.002083139572010286,1.404398473452741
0.0012808760519815827,0.4464427112573445,0.01428666847585415,-0.004786156956981198,0.03195630767655861,0.02126164673149138,-0.01336627807075426,1.2854178887838368
-0.01601454836991687,0.4745573888732543,-0.012585576343257169,-0.044655288545279115,0.019515614183250537,-0.004990868811570364,-0.040564887711960707,1.3811618085568997
0.03428026456971128,0.4472817370149183,0.05001604761367268,0.056885758302829104,0.0524500461468292,0.045163421930935796,0.0013950337592094667,1.356223798366828
0.031044735362194435,0.43627559267174343,0.037546693355314444,0.01939910902786468,0.046552948680022625,0.032312568157070544,-0.00419375277031374,1.3552760641013646
0.0010380641898991077,0.42540398842991045,-0.007629557549425894,-0.023366223228496054,0.03354909562708834,0.00619743407346221,-0.02965009915199363,1.3476631833816135
-0.008982800167963873,0.46881588495645726,-0.001561383670447452,-0.005418448731409542,0.02357657216503853,0.0028838043124154605,-0.02580724038526457,1.3275971126432489
0.04142532662033404,0.4355465562664291,0.04420279084009521,0.019874601943967396,0.04609411538574654,0.03927843808979797,0.022026181365596822,1.3488847017300463
0.03607519619097102,0.4748165891833106,0.02234699199059236,0.028327375993832327,0.03837153321326619,0.038999448955894626,0.013894961899754822,1.3792079171522238
-0.0015564117553028972,0.47523902128470125,-0.003197248276080837,-0.02122812356540995,0.02506284451091909,0.008260635545496298,-0.019951575171920068,1.3304233298652288
0.025113737659387316,0.43287097545350983,0.04200791798126978,0.01882340539769339,0.05267670157923154,0.01631747289184114,-0.011674212037307782,1.3282795362644932
0.05788551616671757,0.43104674835944945,0.049955787023338596,0.04315483743550625,0.042060526305938796,0.03993866070049607,0.024674530452602365,1.2588087573506495
0.035938680659627915,0.47820044721480354,0.02544898205168175,0.03249518949088064,0.04803047750611596,0.03987472093728215,0.02646456029171558,1.3299683507698419
-0.01409682352328291,0.43964355290807305,-0.018865787713993203,-0.01891779903819621,0.018553548443825143,-5.254280909082965E-4,-0.01684605885121682,1.3671480524992985
0.03182895445068321,0.4274878146942864,0.03452727930261032,0.025844555183945087,0.05386685044023543,0.02480068688411103,0.021621145656758496,1.395010937218364
0.03465160057593197,0.47928997982057564,0.0473822311008733,0.04095665696220567,0.056042323093638914,0.06209848109110344,0.027225795960405207,1.3361565783573488
0.023941260900104643,0.4654577663013862,0.019853833671480667,0.018855050850151885,0.04269529795199881,0.03946139746307978,0.020639514640310656,1.420903640294788
-0.02750819111965478,0.4796773989339495,-0.02741635911148952,-0.04548968726512712,0.034501725604561405,0.009742366805670293,-0.01586189803833086,1.3611809570248492
0.041693933915582584,0.4480769764275308,0.03601059597088803,0.023924710877417023,0.06133501974835092,0.0461665764540937,0.017020738942027144,1.3692479920549536
0.026988280635091212,0.45175224070180964,0.03216649459286427,0.03432928320964829,0.056326798061229755,0.04081268083151052,0.013688235650874278,1.3790825041286947
0.02637008113978886,0.4148960844714176,0.012152258850162294,0.011125917389250213,0.042331655456199505,0.030658347292498746,0.013717159164163759,1.3630264821042612
-0.02002448008742797,0.4262955403986281,-0.030689725580064987,-0.0261022349893079,0.020739920325276773,-0.0035019065876065072,-0.026678202984195935,1.3686518892197053
0.061644544864825415,0.40719462470135176,0.05495152523763812,0.03884742178568386,0.05123071184588146,0.03485405072683311,0.012086815424257458,1.3962454290994608
0.041551330831158854,0.47064870376629486,0.033510346692007614,0.03850414706305418,0.053254585455569395,0.05444894009874881,0.0367527277811415,1.336932175586519
2.0230026228122477E-4,0.4606295180625151,-1.9632191629584875E-4,0.005876070144093554,0.044352016914969844,0.02741813451056095,0.0042610215035703185,1.2927467526635743
-0.02230829619105075,0.43124144375343976,-0.044316416549629735,-0.05215678182306867,0.01863696304854779,-0.008561803167961015,-0.04484601296010539,1.352662381221822
0.03932964319467143,0.44575422129225506,0.0529799684950873,0.05811308236571603,0.06987431376361315,0.0479291000861417,0.025060305689879728,1.3510908031997793
0.04654166193447711,0.47530734719970424,0.03880856448941536,0.05085289189436503,0.0692315464014574,0.04177890227876862,0.025794233261008073,1.3837139721500644
0.012319735536881277,0.4971139726943011,0.010505913485055246,0.01816308028752738,0.058569940120190074,0.027736328256512625,0.006356563262329052,1.3895451954764075
-0.030012559851776935,0.44475373148144526,-0.036472212989979894,-0.03986398123613976,0.004559723248788833,-0.004577117211649088,-0.03867287947924283,1.3493030959935406
0.037756813320144154,0.4137657655516977,0.04382194961845015,0.06850289649558075,0.07347157379120905,0.03487359772563111,0.005257894010930463,1.420154551510734
0.03203566578070919,0.4058144053759039,0.027005784034761265,0.0289620442556393,0.060521463199219284,0.04432693410953094,0.010091660093377931,1.393451514239896
0.008842124160197808,0.43996800918865664,-0.010335741320595832,0.002685001601069234,0.023991401375557556,0.03746204789788547,-0.009265129448726792,1.3711992310187264
-0.0420142242562871,0.4331676962108051,-0.05720643750211314,-0.04760933648878046,0.024834520587465086,-0.014548258357762897,-0.06041031462272445,1.381611044046701
0.04004940782756904,0.45890702859395055,0.04300009909372022,0.04676268109960168,0.04722122683794094,0.041794666498327575,-0.005536726215807325,1.3802949071367743
0.01492453350437824,0.4657887678781325,0.017341247913580105,0.022398895128540482,0.04343637034556594,0.014534711774190554,-0.017844976866709075,1.3932873023520596
-0.008681509703501305,0.4376546586268161,-0.013620012781601248,0.011457794833144058,0.031429185237423676,-0.009299040187429101,-0.026135230528651826,1.3654349842284417
-0.022406710573254163,0.44432028028341114,-0.034189968429507306,6.382099255281402E-4,0.00621023273269746,-0.017928085978007675,-0.06405227678055946,1.302745461854328
0.04294874186168865,0.4460122323668406,0.035236005247645384,0.04690778046356858,0.03618994320625999,0.00584782886388656,-0.007276687779681111,1.410188211312089
0.004825237984212983,0.4695116260291217,0.023335485916477158,0.02552481243709516,0.036893503044346916,0.003478240885160493,-0.03712854559192291,1.2998156774430472
-0.012533463166812645,0.42874607131000175,-0.04905399567658619,-0.03282060296744891,0.007827549488997377,-0.016032765655206085,-0.06383842311899711,1.3655021197292543
-0.01958025570829774,0.4497360336842449,-0.02149135954419586,-0.036532233741873456,0.008288455864121526,-0.029433512127631713,-0.0781967258737748,1.3320670841432303
0.038053834978647144,0.4529287395171911,0.027544073457295034,0.03819200509742173,0.027510146301816567,0.012015170899666807,-0.041832675230221064,1.4172380287908586
0.02088784065940349,0.4169804977993775,0.014376451668043137,0.017202986458134988,0.028744051695839684,8.469817961342121E-4,-0.050291522235121705,1.3681539880292872
-0.013148796602549521,0.40326541522120035,-0.0323103562174634,-0.03155542444658894,0.0025559417838845527,-0.029640439939564972,-0.08612271866762458,1.3544458439842988
0.01799925055712707,0.4790368185177402,0.023235978476805193,0.02280309423284739,0.013573605853040245,-0.015499343152179474,-0.06703332263345316,1.3487984103005046
0.03849349667497558,0.4340162237587264,0.031700137953268454,0.04306480792069019,0.011985979613672565,0.009686605343929702,-0.035986247778880945,1.403464001643535
0.034682376934061634,0.45861746882969423,0.020818806025130435,0.022206015813373753,0.024350212415037233,0.01970856875309366,-0.04891704646889806,1.3896261490262631
-0.014348923951078797,0.43529292040944856,-0.0190027388419592,-0.02400447634674444,0.021828636466340916,-0.023627301770256917,-0.10024556925279648,1.3377999043449464
0.016621550218253095,0.43233592428252776,0.011988596060351589,0.02136145962039647,0.020933998699723705,-0.007753954407058345,-0.04966324326042151,1.38840244124999
0.03631147745717052,0.4480963173392358,0.037650778715099635,0.057643842330882766,0.011220693486905568,0.0030326998898911077,-0.036284849172263954,1.376754667081234
0.018492612169973048,0.4524613872087848,0.015141497387101728,0.004463416769899658,0.01744052159116942,0.003688815768156342,-0.04517927147544153,1.3753911161064896
-0.02119045369517103,0.3815469512597427,-0.020519222922495976,-0.033386337175526325,1.5379148791490134E-4,-0.02514879103878051,-0.08354512964163421,1.2545792688740995
0.03382667470939446,0.4318391594960031,0.04067665472069558,0.047619725229517185,0.030867855133375133,0.007131283526213765,-0.0377494731633683,1.331989723780281
0.024938220233219392,0.40899649374078195,0.01282973032427308,0.026526392375681156,0.028065436795889666,0.005351959807046277,-0.05601571444672904,1.3250539067418
0.006776684405795213,0.4463028994106236,-0.013230212536958915,-0.008775112235730772,0.013335464685336687,-0.004876992874919067,-0.049742131355270294,1.3224288760396372
-0.007231525772460679,0.48410676396874985,-0.02400292958298896,-0.022485476292814617,0.006799890427892862,-0.02673952751209279,-0.07894691506338643,1.3109872762524148
0.04343946681677743,0.44596809715173463,0.02791621005024278,0.04774986497417429,0.036895995476026684,-0.004783164734339938,-0.03236907047069279,1.3251874376123713
0.014686966078015644,0.4468830688814613,0.014189883971604894,0.020497240725415276,0.019939126601352535,-0.012320176755609825,-0.03759752039277195,1.2911138927331591
-0.016329013583876298,0.3965730829150959,-0.034458459957792315,-0.027206969283754226,-0.012931222364875625,-0.037002247722943075,-0.06556345605395639,1.2032902932979648
0.013271931707416211,0.4336414755145443,0.012892641585018079,0.012640340765447287,-0.010019903914471894,-0.02555475549088794,-0.04687182328280525,1.1632424270006991
0.015053012185302077,0.41705640819833467,0.016668580354832763,0.029083044457572364,-0.002344276049840404,5.795563139957719E-4,-0.04198717090833951,1.2197415203325765
-0.0016231548118249568,0.4477086682750385,-0.010333549729357846,-0.0039037261150945478,-0.016252135291600772,-0.01287908488827341,-0.06925593748548169,1.182385693040877
-0.03908527689218024,0.40736193538163545,-0.05764160733860799,-0.02100018334412308,-0.024552746834808757,-0.06200968839300695,-0.1055515751391495,1.205374480634601
0.0113745113515111,0.4276209737423938,0.016767177121273805,0.0219030715252402,-0.008383422300537166,-0.019011039842968598,-0.042896836421460166,1.209341487272386
-0.002763759495484143,0.4188292831940259,-0.01278150146788705,-0.006484594010579105,-0.009691667278069716,-0.04062370870858387,-0.05988160877862227,1.2351849675463267
-0.041973809524774496,0.46800589667939774,-0.05273208366651255,-0.03961317376695763,-0.022254780297783026,-0.05553790916381168,-0.08657654350191188,1.2037986830104082
-0.016466764018174256,0.41136055271658173,-0.018026569593118123,-1.4594566468694563E-6,-0.027601248404314008,-0.05105134822864274,-0.08536161717213217,1.2295580596989968
-0.005638249614644509,0.4771947314569959,0.004498958472388466,0.006207353999414607,-0.013654494068404762,-0.029874117037183495,-0.06987789231368574,1.2244724963699252
-0.006886260913656143,0.46924429156469094,-0.01431434357078135,-0.02407645266965095,-0.004461208048696189,-0.03961168696708076,-0.08482028778249838,1.1773088861944652
-0.06209055635527531,0.467500655809397,-0.0788799632000884,-0.0872017759066618,-0.03628647918163295,-0.0695860801403767,-0.11776366242951385,1.1497902067945225
0.019193424054220313,0.43631943545623125,0.019825486835534836,0.027710602665617288,0.011557512207774661,-0.03159450527333267,-0.07426353749255195,1.1928052797384843
0.010576332600732137,0.4352256671893987,-0.0058739155824293916,0.01625278521839889,0.0013915138435535138,-0.039121366205809985,-0.07748331888344728,1.2184416665772095
-0.00956784866059019,0.47542989581053624,-0.033981460948264555,-0.04874582527854982,-0.03255403475251733,-0.06165105913973665,-0.08111213330395531,1.1067368776054305
-0.035035957538548185,0.4555291913318137,-0.04170227103009865,-0.044110962151665066,-0.03230440730011878,-0.05383930679297178,-0.10050595104648544,1.1277341367939626
0.0357405883870336,0.450540536134605,0.03472054559072771,0.01292188817714176,0.0047810355614945396,-0.014146170935085274,-0.0430539609277587,1.2362268318954963
0.004514014654374539,0.4817582382592795,-0.015165240919606715,-0.004318165065367782,-0.008395961158041245,-0.04070844075554897,-0.055831336687062035,1.2095625015461289
-0.03854389720193378,0.4391678250220863,-0.06219728714906198,-0.07621680941554394,-0.03775264850077863,-0.06363959994565604,-0.09512174351559478,1.2186931728942714
-0.021300890031368196,0.47799138987778456,-0.029545254140845502,-0.01277372998364621,-0.023754589902157664,-0.05494169507343693,-0.08309325589213294,1.255649279274959
0.019587890254561535,0.42323890336552317,0.007130425023059313,-5.242077455992877E-4,-0.003141132850784234,-0.024150139216371054,-0.04625514776846453,1.181285145488317
0.008001647778994744,0.4333366363719896,-0.007835518447408964,-0.01896159712977747,-0.02747848712543875,-0.04334163965561241,-0.07654181913682473,1.266287133968508
-0.05055470483514886,0.46243363080752564,-0.09136509320143878,-0.08224889830920458,-0.03408822529464353,-0.08598260623297238,-0.11752848188103239,1.2019179809413008
-0.018004374679588615,0.4120357278023163,-0.025366886064894418,-0.02512544352874822,-0.028024725135622854,-0.061017142193695514,-0.08978934200444146,1.2244245405837122
0.005536841412715843,0.4407329593532423,-0.016410187372874196,-0.016643611008757747,-0.015044620712904693,-0.046805621153928854,-0.06721023458855821,1.2760048922490186
-0.009303021374257838,0.4292290877163066,-0.027843169074789138,-0.045881122725748284,-0.01881170760629194,-0.04945652252960597,-0.08120256528359043,1.191694772053512
-0.040914573006417716,0.433828606222383,-0.09663895655310595,-0.09587829818958299,-0.043488609145346545,-0.06696850355567194,-0.10210665986373156,1.194528070244914
-0.008664037974059527,0.43108113958566036,-0.039452500792672915,-0.05110232385607711,-0.03674178541704982,-0.06543095827975885,-0.06987768163662418,1.193991766604761
0.002065995784676662,0.46357674633381996,-0.014766994971146911,-0.04547299611220667,-0.012409684473753247,-0.04423639778977775,-0.05667639214906596,1.1773213472036799
-0.014425989555257424,0.4469006258205121,-0.03541419018641509,-0.05761328796304524,-0.02402349506745278,-0.04420852442601173,-0.06647114684507958,1.1806707680230315
-0.06448396878737395,0.44128985559682765,-0.09365803135405779,-0.11211687897517633,-0.04834551378000788,-0.08485254422384905,-0.11023724701333928,1.2389515767017885
-0.026101481425746784,0.4029695845071895,-0.026794751395091486,-0.04191744406991293,-0.023090804883237274,-0.06004470455325874,-0.06649259672648912,1.2058909189441567
-0.004222170863561359,0.4660475007932421,-0.03180656277249414,-0.03217965563130951,-0.014298597748385005,-0.039013546115226665,-0.0519757640224172,1.1854339211427316
-0.01306746286090123,0.4481637744417913,-0.04070136128055186,-0.029959431479472654,-0.038539091764054845,-0.06392960689852553,-0.05674653804345993,1.3117467443207143
-0.05866252077395183,0.46635664680236383,-0.09394555154574637,-0.10069058249931814,-0.04812793779031492,-0.08004264506245923,-0.09838317272225215,1.1653538653365592
-0.008536018108179734,0.4139623216334852,-0.033107660334406874,-0.043654432304976044,-0.030231602788189354,-0.0619210672159507,-0.09341059502768691,1.2140999847975622
-0.008139361179252881,0.45286512550662605,-0.02034299506723731,-0.03928828782648989,-0.016658382575238773,-0.046533433805118235,-0.0698477771691478,1.203881863082383
-0.006300461467202551,0.4293016197831253,-0.022065844845951088,-0.03444188196376427,-0.0150088349563662,-0.03337076987196986,-0.07266293095766055,1.1266854729897184
-0.04766023077450045,0.44270906376073543,-0.088632163934073,-0.11565334423846323,-0.05418412406290736,-0.082817326807284,-0.1210718437980668,1.2396579616484131
-0.016339048511347945,0.4350118140746304,-0.02691387585051286,-0.02641992231672855,-0.04669606734571943,-0.05908668617869429,-0.08365243202348564,1.2695412791211467
0.006073443182617649,0.43853361529490326,-0.008120908678869212,-0.021601381441028803,-0.03055370126007536,-0.04717502543846123,-0.051771736654817005,1.2148144147927622
-0.019986885822225704,0.4181656187479206,-0.04141645552962129,-0.04083066928613341,-0.024592827466854945,-0.041720969098338063,-0.06818583268044641,1.2309029664046856
-0.05899305831586255,0.38513395333910944,-0.08058627605153962,-0.1111005691619936,-0.04787038962667475,-0.08950312115490469,-0.1272053277332698,1.199810792756968
-0.006589955963556504,0.4242870367450817,-0.005541748292543651,-0.01952207091578735,-0.0183985505338584,-0.06005175044946039,-0.09358064884762882,1.2682027591045346
-5.820514656527732E-4,0.41944636432031585,-0.01384483574753639,-0.0029387548286870452,-0.015394074537668683,-0.04661555017012043,-0.07249422237682873,1.2734481449938797
-0.012634785336976831,0.47558381688799406,-0.026054576295167033,-0.038104151861684005,-0.015854766258991404,-0.06077722054257894,-0.06975423814841201,1.2918586685868145
-0.05250693273601669,0.4500247376154632,-0.09371109173072435,-0.09913560585914877,-0.03545610344722866,-0.08866314734956907,-0.1212645921917116,1.2096395219885334
0.024433179427441273,0.45276396999449486,0.012149145488278742,-0.0013167650277538007,-0.011978837413507155,-0.05671115399815927,-0.08195367369057419,1.2993465071327783
0.014964711681094651,0.4577479608140227,0.003278832196243448,0.004413930626690686,-0.024759892700040288,-0.037313749692104436,-0.05408309497170757,1.208776431280724
0.014175990163820118,0.41512351388473917,-0.019294148807664304,-0.016644855594490277,-0.008075190099818967,-0.04558663820251386,-0.07066181118560148,1.2048892255775001
-0.039948547654325046,0.37247447545018125,-0.0684559408285524,-0.07172313935092058,-0.020942235808177563,-0.08506262294903513,-0.130182420256166,1.2359505107448598
0.03681420353775323,0.4256534993928862,0.0372315714917446,0.02909435940207756,-2.7876366711061915E-4,-0.04789295367485823,-0.08442112337609221,1.185085579795551
0.014722461568023969,0.3915363561799221,0.020710420544870774,0.013897083383174946,0.013140744271926004,-0.044057009474847454,-0.07579554597973875,1.1980944492190981
-8.160611054799257E-4,0.47144974587977456,0.0066141756157926225,-0.010165274498803984,0.002162474483446404,-0.05565449079062089,-0.09404915316284655,1.1958015211121398
-0.031913778170320935,0.43818347519838696,-0.04045180410706172,-0.04090571541836163,-0.017933669701271696,-0.08602071340592203,-0.12286556120510539,1.250326073135877
0.05115395136825918,0.38362015516825826,0.0562033761164219,0.05037959196824373,0.016058222706600265,-0.0353494364376906,-0.0702377855644562,1.2601091959297355
0.029654330035597903,0.41831616796183996,0.027702233601310695,0.048461833626208504,0.018419508100566286,-0.04491605435755073,-0.07265763685923879,1.2054901448904407
0.016305181043529075,0.4158626364727718,0.015879546555446874,0.023014965849009656,0.013697121962765256,-0.05008550791238511,-0.09256281085344116,1.2725361511484774
0.006199484634479326,0.42183817201509594,-0.02178716119890711,-9.98933276820026E-4,-0.0067862139576763784,-0.07507140461855305,-0.1088640619156797,1.2859524941751503
0.0446648570555376,0.4072902767008027,0.09104357557927899,0.07687783438286165,0.04328914720253632,-0.02231031970143652,-0.0725351353280879,1.2823788972038408
0.05074115866976409,0.4074570470333546,0.04689771211528273,0.0610187337762136,0.017651852278690868,-0.03333290662563302,-0.06697450799173031,1.1978955669507458
0.03632494708588049,0.43346018925805296,0.01426321452571228,0.041501998595268215,0.03398967475900089,-0.03129650109668662,-0.09510410579707562,1.2239980325416733
0.0061205634970207725,0.4276804745764881,0.011106131991010107,0.010584795531860815,0.0048176930415552485,-0.0694288908791154,-0.11288813191932474,1.2192004315839862
0.06843749593783836,0.4109200986015206,0.08036383289398731,0.09317898144730428,0.04907484650810875,-0.01590608850273206,-0.06698854153607486,1.2677554155714321
0.0577507513476524,0.43971972201769965,0.0578779489405939,0.0764048094010119,0.03200536797928008,-0.03238703425602501,-0.0778353475024364,1.2473502228726034
0.023740370642362493,0.41095656131664704,0.04428243836065779,0.047769486799835205,0.04002822586152586,-0.032765363509856864,-0.09146202508325679,1.249540633088137
0.014709343579968004,0.40818077652308854,0.02366221021918418,0.02961147586489701,0.01563926229456699,-0.05381142449624819,-0.12295882734824078,1.208264875604403
0.06958747384446408,0.4814681576934564,0.08935569180677808,0.09945817754073219,0.04906447158560522,-0.01792299033263244,-0.05898650827438088,1.272675561956709
0.06403248516628987,0.4188094109393305,0.06627109835961649,0.06543489633676751,0.03746712104498882,-0.02549444144023829,-0.07848118064457868,1.2939820407118194
0.04374528014027052,0.44805432426596864,0.04888578918978734,0.05593762828487098,0.03491182431900764,-0.03570061801165931,-0.10279494753731774,1.1802114170657798
-0.004321644203908902,0.4137158484616512,0.010399091343416171,0.021533028069513883,0.00645886514063726,-0.06564704731800663,-0.13022933825272093,1.1939924267259618
0.06997700953075804,0.44748431252526216,0.0798064741406378,0.10434211948977051,0.05645555445987534,-0.009235099830607814,-0.07386879010397635,1.237363686880405
0.05378504425478743,0.4205351302847532,0.059598193051673444,0.09154087339569042,0.024947688317511985,-0.012308210388922922,-0.1012560344582716,1.2184252110644205
0.0341621350344997,0.4446432529979766,0.030997112221011727,0.038100174290464195,0.033529652908226945,-0.03583869731090863,-0.09025096583178568,1.2400939557917614
-0.00541616796387314,0.4550926025873901,-5.519979614828321E-4,-0.007981577256910621,0.0019270783335555784,-0.07076697599498377,-0.1320142570920422,1.2273560195388735
0.0708588646064522,0.4232930969990988,0.07267256349119337,0.08384103485880355,0.03994439367797903,-0.015635304697820155,-0.07867220233172015,1.2573111313573804
0.05935976890309042,0.3985684291498212,0.062196594385753166,0.07880506234661908,0.04267680417257165,-0.029264767713754785,-0.08174013859754542,1.2568986905398336
0.02489874619268051,0.422400473320382,0.012766460522104162,0.037678717065331435,0.017311513280384418,-0.04473847927386946,-0.11393897008874536,1.1999847930735605
-0.02651739486041482,0.41577526780140506,-0.013929959308105292,-0.011360714255335056,-0.013166958000767937,-0.06654306682590726,-0.1461484670011508,1.2454772460225398
0.06616497623134178,0.43643688801636776,0.060075694793967724,0.08321873387751691,0.02845742966170651,-0.024754397375626524,-0.09399562665793151,1.2988592122054923
0.05367562780460637,0.39704763288487915,0.04436641239260741,0.06011199693204206,0.05654116054553748,-0.0494573231630469,-0.09396093491142593,1.2892774354514491
0.01711586503640034,0.44895273065119906,0.01758966169099592,0.025210212577434266,0.01749545122535057,-0.0445220002531257,-0.11624917306829866,1.220735809663098
-0.02717815883663852,0.4462035688435131,-0.034860986630810845,-0.057037345998727916,-0.008075711116658167,-0.09939499139754768,-0.15152689745602818,1.2346133650285298
0.057449163168359164,0.4101904473095915,0.06381025337909217,0.06186555962352405,0.026327319033116466,-0.047428846507653194,-0.10017233069225864,1.187471907339421
0.03935390740558115,0.4032554216035288,0.03929832399736327,0.04679276624325528,0.02596512808283445,-0.040580448443753483,-0.12517306184709018,1.2625064875699648
0.018560945771031085,0.4347005232032206,0.005746452709638961,0.012599053203796009,0.02362048220884629,-0.046802266920832065,-0.12176650515421863,1.2662548551744885
-0.036727547564808574,0.4026780240393383,-0.05051482751899666,-0.05227042577674367,-0.02876422937381721,-0.0911096148474407,-0.18446674859403314,1.1796810375767264
0.04206112229087791,0.41957244067075355,0.05079700076179367,0.04989489848215141,0.011938135116816037,-0.04854841820007258,-0.1175076923054353,1.234160096995486
0.044159574446997675,0.4384724045480262,0.04355610536149199,0.03288319451288068,0.017130893755450998,-0.038340275175915935,-0.10575453436977146,1.205995369288356
0.025602408883910566,0.3893083396776146,0.02799118155310945,0.013328052493798793,0.005679194686619862,-0.05136617866628752,-0.12216938583721368,1.2127721741524746
-0.03729163960947971,0.39275137626698853,-0.04519682897667549,-0.048437430766602,-0.03171557875074541,-0.08524469887992375,-0.1727417541512897,1.234280828110378
0.03819658480976871,0.4271755157607422,0.05852946013158117,0.04840169321948623,0.0038105350467322616,-0.04807084414288109,-0.12429954552370676,1.2198387526855168
0.03950075467873402,0.470029764079852,0.056654103913474196,0.06387035043512836,0.03096240376735385,-0.03681290404434538,-0.1055240858516938,1.212435363061552
0.04924243966725432,0.41332631651600293,0.03206177634166305,0.028046187533318594,0.008557543860366812,-0.047056649190383784,-0.11076230463641024,1.2296605266859073
-0.0069213587454912875,0.38438390044230486,-0.017365171328210003,-0.02939854277336811,0.004028901416676822,-0.06945892769935441,-0.1435426246960881,1.202424806789698
0.052772606563320106,0.42875397965907014,0.0616594716264318,0.08631028190521936,0.038761340431465535,-0.03531072615209374,-0.08505152281434908,1.2434477112332243
0.074273153793125,0.4192264642024893,0.08494319676798781,0.0849132760882911,0.032221457734224884,-0.01978005072631378,-0.07135009753012518,1.173350647507303
0.05902889969875543,0.41963477622648254,0.0710026110875549,0.07572695629240142,0.030619046000834753,-0.0226648514953492,-0.08386517678650769,1.2849981407552549
0.025310775885281012,0.4321972720989097,0.012091886314850668,0.026322214448245423,0.004153652505216945,-0.05591738073256168,-0.11893610607278016,1.179363805661898
0.08418047941808438,0.42724580777444376,0.09985853985879517,0.09958346688105621,0.0461464718613268,-0.011883185514038615,-0.07349201230150065,1.256782790562984
0.09716506369119356,0.4444458355563235,0.10711850794182198,0.1166396884620133,0.05122227033145061,-0.0022296456860166664,-0.0436814088963627,1.234124775352056
0.0848633805557889,0.4399400626186032,0.10788542751600282,0.10846897059647619,0.0385302762293147,0.017970180885393275,-0.05330875874595645,1.2851308104485923
0.044261608550305545,0.42400105802902177,0.04098325988287994,0.043998391334773256,0.03263036648212867,-0.026139929122177295,-0.09999921554616471,1.211820375371947
0.0795836524017486,0.48581173923733423,0.09522650465119042,0.10128841707375077,0.05425516057370467,6.636551311329352E-4,-0.06427076609949793,1.2393501215813103
0.09770285632901084,0.4376291644426858,0.11379944432144466,0.12598275830467517,0.07302326915701346,0.02935378355133628,-0.03463577049138898,1.1736813716695351
0.09384979378633992,0.4616718995262867,0.1060952411046655,0.13152297507994606,0.06436378188870756,0.015249127703203908,-0.039224065856022124,1.2672712111466597
0.044104484657780677,0.48298470006653893,0.06637654969450206,0.06265649239646486,0.029536655443365617,-0.012445134634560422,-0.08307642907707213,1.2231636096184604
0.06347873497337048,0.4223624829642537,0.07248261628550846,0.09240463850709033,0.04465544969253791,-0.0067672218177469295,-0.07532169720647719,1.2772342540271024
0.09935906803797216,0.42575001077357755,0.10100970987065402,0.13114472913426803,0.06174069584032938,0.02923482844537285,-0.010900700280569905,1.2673687964921638
0.08176943275858992,0.47900910795888657,0.10919529313747663,0.1398719915739983,0.06077450503038076,0.015964739945110936,-0.033337870614226814,1.2486952513993952
0.04988757177464485,0.46780008449781846,0.05099351760533959,0.06950922495983701,0.025276266688300658,-0.021274901128789585,-0.07360172410156962,1.263276935045088
0.029905173587646713,0.44661494319142114,0.06154288253761896,0.06128192312255159,0.008618976181587785,-0.016838589923122302,-0.07875639257433563,1.2607370460823963
0.1125201924406849,0.45171157646589033,0.11860478220813753,0.1588751748061711,0.059430107291275756,0.034623257906848774,-0.023865465194660082,1.2339871330344003
0.09248139869775207,0.4685420806717091,0.12298884253387742,0.13560050429134396,0.06287156171527739,0.02878131759982345,-0.03457651507936702,1.2823147442858935
0.05226618828026831,0.43557112125264796,0.06637044132470611,0.09577840395422119,0.03665999369215572,-0.004057877135980267,-0.07467284631115567,1.2875998949901049
0.02171808680297909,0.47017323749789314,0.04774963612155546,0.07634753265650931,0.009442764253617356,-0.01826797690539503,-0.08984184716895482,1.2868400244980591
0.1080481358415592,0.4505870493630941,0.1517052163453448,0.17367082636926673,0.06295296953707948,0.023782309228807908,-0.0224367889096266,1.2377648151780167
0.09723389241220455,0.427402064303918,0.11072552785288749,0.15756301485937144,0.04900249922826149,0.019195328665006207,-0.022404163909934147,1.2270429186687584
0.0609803292779387,0.44705487008437966,0.0719454928073354,0.11647545898983985,0.05080765975982859,0.004690033154856685,-0.04421676516635189,1.2319658927734576
0.029774349638204172,0.4422990969029503,0.04748604226044563,0.06337741029740082,0.01796592669553788,-0.011343137001980735,-0.09992580943575283,1.1988489628168706
0.11326502194151232,0.4455973906113217,0.12390162628180272,0.17329638414792667,0.055756420514824365,0.03352166735737032,-0.02370106988364265,1.2740817694668205
0.08306822611931051,0.4448765494787378,0.12765299086559928,0.15626653183953731,0.036106692581295396,0.03038676185371168,-0.02189286651965472,1.3203818397541904
0.06101152319711133,0.42666784024771653,0.08182235820460865,0.1123588600613412,0.04857936130727316,0.007766318550838663,-0.043793690676936566,1.2358572625226563
6.789814089961227E-5,0.36810418300520176,0.02399535162775829,0.056685303558742135,0.00420431357026414,-0.022026397594080472,-0.08297208224182849,1.2040624016717507
0.10004822137627574,0.379542615257244,0.12193641734006792,0.16655139378721923,0.04422326376392274,0.03516850370205486,-0.03781365905620373,1.258686903326272
0.07824962298457035,0.38320368119141096,0.10006799592063398,0.1502689785385738,0.05121994380951864,0.003265879897698483,-0.03498368202267643,1.1775524319481863
0.059880968530752185,0.34548266106204506,0.07163561789296431,0.11879751336075123,0.033390989402748546,0.006547520569318103,-0.041634093678429324,1.2374984185098599
0.01831364455034695,0.375721524577228,0.03324632489358873,0.04519037110984351,0.01157434699891308,-0.02996157669216887,-0.07279077106727495,1.2085487281881033
0.09405704068481588,0.4449165682002797,0.14255198424240517,0.15170330490950376,0.051842960366009806,0.031228818942966308,-0.03186681871350065,1.220076131362916
0.08149120164055738,0.4048634113896667,0.1175401953404794,0.1530663024305048,0.05641214794950732,0.028659428304863968,-0.029633908181327127,1.1783833085768716
0.05353145229435346,0.40000045570400883,0.09064514119927941,0.13118701296954546,0.03669920596927458,0.0047117179197891075,-0.04518141651881793,1.2566515623822374
0.011895204335846189,0.4625717442112884,0.03892509826477316,0.08525735470839936,0.019361265721993606,-0.010132177180588463,-0.07962785473292061,1.197009565356701
0.1148878101747209,0.4818218246429704,0.15684795506388619,0.21393280683284593,0.05864026573929727,0.04993480641017907,-0.009299108572574398,1.2577726293510683
0.10081631214764403,0.43913298922758104,0.12605295881172812,0.1920565124240718,0.06524542938832287,0.054641960873316256,-0.008759734083721387,1.2029372396051652
0.07982350779910075,0.4320616420406424,0.10563305886483765,0.15430956233521514,0.06132682738096868,0.027247885392275975,-0.020711679889380333,1.2976009388360374
0.04863654550421884,0.36729149655582183,0.06841282725618375,0.08805733845556314,0.0315270597392214,0.009084434977896596,-0.05186632461289262,1.2119802600038059
0.12804853145977563,0.4006996614062906,0.15607476461460992,0.1925935882170316,0.08670991604415691,0.07000408646067215,0.0186097279967027,1.18326692084432
0.10850029974821886,0.4241448733702726,0.15202627175079178,0.17002053590906704,0.09453715679824096,0.05559906541332965,0.011999323721116827,1.2901986899569218
0.08920446288735856,0.4351736220015061,0.10996864149403239,0.1339080027268452,0.06434047858976173,0.04593076019665608,0.01670822843611626,1.2818335313911557
0.03431318933320873,0.3675356856507224,0.06604948823915034,0.10473274181402034,0.030588217082863696,0.005197192822121957,-0.038875041980687794,1.208198254215136
0.10543978245639006,0.4276514859350736,0.14594986772928473,0.20034804067504544,0.07882809035274137,0.06400016650441936,0.021386063137468103,1.256946908008416
0.09732902009900031,0.4148840638226051,0.1474349982295344,0.1913011285422936,0.06744891847089712,0.07515763293876715,0.04766844831795603,1.2220284462920776
0.06630415563250935,0.4264802097791726,0.12162663350215844,0.16121755410747193,0.051347377374945345,0.051775302066727154,0.0134628940469408,1.2737302785806264
0.03472241924418306,0.4233540078507045,0.0888662874574478,0.10452224696502707,0.05029590782638335,0.018718644144933187,-0.021654687730164462,1.2985395950388077
0.11261565054681576,0.3955342836397545,0.15297514790103625,0.20132900076179006,0.08080376917371102,0.07447923611321429,0.027676708173525473,1.348146843739596
0.10231321367759745,0.38403765841357107,0.16562342437492206,0.18607751430807,0.09263179768552357,0.06505234575408293,0.042961424044097,1.3165903582472984
0.04988625541417899,0.3664455379740262,0.10599035616277852,0.149425649689857,0.06618671526765467,0.05728663334528746,0.008067332568926515,1.2833327460877568
0.04317371750110737,0.38193436796243574,0.09326682980483443,0.11263462910301268,0.055956638054768165,0.025061683800003374,-0.02043647001529408,1.2538297881328484
0.11694805494688064,0.47954371485941566,0.182491655927898,0.20322479099204774,0.11139042043457498,0.10110217953209201,0.05089898285074959,1.290620382360751
0.09397711490634161,0.44879428722670467,0.14072206934746334,0.18702902270556135,0.10127905397999282,0.08176677174431095,0.0367812617416154,1.2481194297431037
0.05834999671640406,0.48698930564441295,0.11034549547402923,0.15148219760600973,0.07360772505605916,0.05396314470129214,0.025484501419396403,1.2950220957950804
0.06341623787501113,0.43031329917138084,0.1218081215798699,0.16766146871339693,0.0657599381971242,0.05557733841273953,0.019457283195934365,1.2881970086058232
0.11522125212233195,0.4775580811127581,0.18077526266343444,0.22930265172159126,0.10209192056946993,0.09337419280908359,0.057445739456737435,1.2773574191679955
0.08434445956464995,0.44278531596753934,0.14631855468523366,0.21000248882045855,0.08715410053026368,0.08388194588788317,0.05800359867445626,1.2740302167269444
0.05257932458048581,0.49051943042993756,0.09627235415952407,0.15493242232675897,0.055484554557200985,0.04354593553648995,0.035823179003840355,1.3167388427868172
0.05689847738027604,0.44402990621451277,0.09774767148171874,0.1544184190755309,0.06242930628128007,0.03629718491283346,-0.0033421342192539853,1.2276751041723195
0.0984345055223093,0.48523441689330693,0.1555688493329513,0.201696062768309,0.08827181681836048,0.0653846862596767,0.059881095172332886,1.4310694528736543
0.09535208562122369,0.515505294505055,0.1410036127105355,0.2011376887152766,0.06505094303482468,0.0700989920455034,0.03218387077723964,1.4350013896165486
0.03327388052852975,0.4657014309637472,0.08545186690408998,0.12889363272755236,0.0690574446953355,0.04349408415109166,0.021914354959167333,1.4462712643163047
0.06631805088548198,0.49606117095631747,0.12679862902901065,0.19239543172124182,0.06044803030982345,0.06252487393024876,0.025532947102987834,1.3939110085579398
0.07614745758473462,0.4650716624850178,0.14367374267556404,0.19046723470715485,0.09651327778532136,0.06251127317141282,0.0442775031513699,1.3475684516781434
0.06311245790288446,0.515335395427763,0.11296936504841301,0.17113027602983083,0.05770707921122285,0.048836237745972795,0.03511563311210429,1.412342290376561
0.012849840540922041,0.5160933222776304,0.07013002561169043,0.1017392078387719,0.03517175630675569,0.021226329156202144,-0.008748230729230033,1.3805088074819503
0.08713795871094733,0.5195060242336121,0.1481846584438339,0.20308104015334222,0.06688169823874794,0.04944502150191332,0.03504220780667923,1.4051983035941742
0.08151819985096198,0.5162958411731107,0.1484616320736449,0.19110898516129607,0.08539443025649018,0.06711053127561926,0.0442139765501939,1.4032681698413425
0.06610730839063649,0.4842438710150103,0.12916116376967945,0.16394881579978632,0.06804593665077126,0.0469198297299335,0.0325907414436113,1.4068209004593009
0.020372583095014295,0.4908196564905584,0.05838974187270767,0.1191958296207163,0.05119558201162307,0.01269757464932535,-0.015223387557650854,1.3967646322352048
0.10740927998677595,0.5066184847800678,0.15493540010161805,0.2236861769147634,0.09283992353713323,0.06853678568531624,0.06646473564464767,1.4660509788731926
0.08817752215344934,0.5449168899637215,0.14912982495006666,0.20602356391006327,0.08639875617429851,0.07046962694964459,0.05031991063161085,1.3745858988797952
0.06130355406710099,0.4699695925094606,0.11648868388304294,0.15691753260337654,0.07709849797806187,0.05134284299083798,0.03466250043477664,1.4056396904637773
0.035360567873118316,0.5169796027364131,0.09264608275057502,0.14367428287521397,0.04876776178201401,0.04757239930379563,0.007313095056805636,1.4149851192499114
0.11008768355306112,0.5093626968795494,0.17535603018641985,0.22280254807678795,0.08461882662850302,0.07985905262073258,0.061829271104259474,1.399164109954855
0.10799685877989745,0.5390811146724319,0.1417430095646502,0.18911930988769582,0.0993306311666742,0.08326902583916779,0.06750862196921673,1.4464672305991342
0.05244042287544521,0.5103511535174994,0.10724722766811215,0.14132505202136178,0.07974661988580393,0.07188865881860451,0.04818083303832662,1.3555301239962438
0.0490144853797191,0.4954571471873846,0.11199503453970136,0.1508925287938794,0.06718211832799627,0.055722698855522994,0.03334945395079106,1.4187004489603916
0.09040622562669695,0.508188582637878,0.15358752504596446,0.2157458388137276,0.08294840771637588,0.09045926620475575,0.09482591843525154,1.3730075945356057
0.09496392019232916,0.49865175870211564,0.14814579228555197,0.17939981459022733,0.09801365652327282,0.08079691934877165,0.0683776939185555,1.4758572054346992
0.05141861776606619,0.5454579506783839,0.10082473853441914,0.13609164850931266,0.07365152731801557,0.055749680722183295,0.04578790499957123,1.373186306214871
0.07924981548906146,0.5459490547251137,0.12770576700452196,0.1785401707903681,0.08689830945369904,0.08406370257598156,0.052357289012469936,1.3752701647359542
0.10641577804199508,0.5375500689584799,0.1619432919445368,0.1954448574355014,0.11918213678386413,0.1129379395342013,0.08410545586470941,1.3733017013264281
0.09448194930004786,0.5332736615613919,0.11896149243574812,0.18758934070649622,0.08880681063581046,0.09403144909397992,0.07617354984711924,1.4022895960486748
0.019211369731591533,0.47983816515274275,0.07586357569360593,0.11304019438274734,0.07254269639614461,0.06337573387591307,0.06011896191256439,1.4049019551197506
0.09443898851821113,0.5040467444375663,0.15239858321759894,0.19863539222614732,0.11381946164617882,0.08375734267675584,0.08857280323584713,1.4250387603288752
0.10044425232230221,0.5470162349033549,0.16651775345184108,0.2172477230477062,0.11948776028321706,0.11282058420981252,0.122881104140627,1.476749221144388
0.08524890839778283,0.5540281253443198,0.15032017702336772,0.19448117140211205,0.12560906829152324,0.12502612444192737,0.1031602588015469,1.4261026204053513
0.041424510715045194,0.5270568761087512,0.11611284050649405,0.13915040994044864,0.11096459278388829,0.08981095569082315,0.059120864021643904,1.3369081720944187
0.1024409641566177,0.5019503521851277,0.17728891625986665,0.2300275586493001,0.11459936794571626,0.1364748081609701,0.11843195427796407,1.3645907058070503
0.10196389201090637,0.5352764009023987,0.1873742406001629,0.22073660229318443,0.13694458965008544,0.14499750165050757,0.12187131972460719,1.3908443897165756
0.0735992371565806,0.480004842651322,0.12548383580450062,0.19305712555090535,0.130080464738051,0.12094779582790001,0.10743177502705505,1.5100050901286879
0.03711703455272349,0.5010164185551403,0.08377808965484529,0.1356222790442103,0.10008012656647573,0.09274897338551782,0.08639926876543241,1.4047017463348004
0.11401404031027393,0.5308758295316923,0.19320567343147654,0.24445186022356497,0.1326618612221402,0.12697616057488775,0.13030278545905596,1.4488783795908966
0.09427299473454709,0.5371777563079085,0.16609484702711488,0.20305751558309493,0.13373144075604443,0.1447960295294375,0.14402304042816486,1.4112578728852825
0.07070973090441492,0.5464727946433753,0.1193141289453525,0.19596090552243747,0.12146071680798338,0.12992610472893137,0.12200969927080393,1.4487704854136296
0.03693149803622645,0.5138014904288403,0.10196422393450773,0.15322487416741926,0.09627924855642617,0.09859333886858661,0.07788376782185959,1.4214801715485048
0.10657518954101336,0.5582838519214784,0.17844188253478,0.2200842492148399,0.13463042808734457,0.14098592443153762,0.1505979824775289,1.372135862252377
0.08800448253051588,0.5394816345342988,0.15439270356664353,0.2057020309672539,0.12817926663516127,0.13470952957194363,0.11902149030921108,1.4464102556164633
0.047247668508597004,0.5153141687578955,0.11039908616479532,0.15697229893735767,0.10320277772335056,0.11626015860626898,0.10881041306868827,1.4162573906928269
0.051667460530767505,0.5155968503536795,0.12528157287564712,0.15604451409501907,0.09995556712210281,0.10601149418258533,0.09873980994241868,1.4179952947724124
0.10510687423147336,0.5494427669212639,0.17715075414662662,0.21639914890419024,0.13657394625881317,0.16681455742822737,0.14980795373134997,1.4141616805872763
0.08563883181567838,0.49468912143908417,0.1629734287811694,0.1900656159253405,0.12261024135536173,0.14447254971088122,0.11694043228525121,1.4547205716627545
0.04577756661266596,0.49615244354493154,0.08477427747369028,0.12954313986588312,0.10350852760961947,0.12179233060999099,0.10979392437654202,1.425714814813867
0.08311224786990862,0.5161582208018892,0.13792866072585108,0.19990639076138067,0.1160830191341059,0.12656184578755916,0.12576268955825595,1.4147152847618847
0.10375494032318053,0.5518041452475737,0.18126625889882728,0.22352886400444857,0.12886055900233198,0.15280617173598676,0.16896339360227713,1.4211999538501365
0.10560241912271284,0.5545151308399936,0.17073490841774386,0.2091601577294979,0.12819065721475223,0.16084818856320524,0.15011131711623413,1.343870672686182
0.04459386243713357,0.48844965451034733,0.09980429945232437,0.1311040023006311,0.11749300029430383,0.11825052365538756,0.10977963673173112,1.4523799789273062
0.10805616677382104,0.5120834236210429,0.17448178434860806,0.2199948560767057,0.13269464513180693,0.14461177304632328,0.15349546746472442,1.406522404773418
0.10652120496817703,0.5163100041347503,0.1779495190934648,0.23087274020030132,0.12548832789988468,0.14726726069516308,0.1707020762293674,1.4908132320606382
0.08820201881455397,0.5005191570162183,0.16469873425051682,0.19930633837215503,0.11833870170901648,0.15944922120273114,0.16232809730721798,1.4507111124241194
0.055000261266715186,0.5050241760074916,0.11871450425248177,0.14221814112052023,0.09531653274692592,0.11761045069702221,0.12090268195948668,1.4774534800397923
0.12194395715098227,0.5139450973538066,0.2025542067923198,0.22784649329821083,0.1317501147857739,0.15424386538604884,0.16540704447310653,1.3776557496443433
0.1262946222898668,0.5409205818240916,0.18256856058096782,0.22135201931051954,0.13505515843395974,0.1631188420119821,0.1849130816049868,1.4789790981190136
0.09179951442023912,0.5294498293566617,0.16711829558200597,0.1874254699046412,0.11979679778069546,0.14441481734703374,0.1590613192808066,1.4256195536989085
0.06767758334001729,0.5029900063316032,0.11891792206441278,0.15133430868595327,0.10163682621010532,0.13020214568081745,0.13335709912948776,1.42165951307542
0.13495335843121092,0.5252793471616896,0.1884382215798231,0.24760127730037512,0.15360380413451635,0.1550482820863481,0.16723543926453677,1.4388760943004792
0.11210469089961676,0.5377054765598949,0.19197792970619437,0.22106619461527224,0.14532473039253743,0.1676510042692973,0.1520571762969332,1.4269608900214246
0.10570058928886812,0.5041866220832663,0.15118194547748143,0.18283599149634927,0.12625803714956482,0.1378175976422914,0.15100689431070208,1.392044026810972
0.09343989228141418,0.4951446701521654,0.12613847112586826,0.16861881474275767,0.10454870829422329,0.12371194273734933,0.1239455858722932,1.362070382434207
0.13679959460411717,0.5097032079421205,0.21433026085982956,0.2355148087923271,0.14616462233406555,0.1595678220999934,0.16380007697840118,1.4546915977294441
0.11939950619048038,0.5297571612247233,0.17182408246578942,0.20477931732937057,0.11880103501985464,0.14708636787639548,0.15068570912516058,1.4084809299695498
0.0842131232754124,0.5727524293868591,0.14286844096745024,0.1598941089597416,0.09600522223269232,0.11829602950796363,0.12777240472925852,1.4811558825087
0.06687226505135367,0.5147556679151752,0.14376516842285816,0.16176853623823473,0.10244271423836493,0.11169223386503004,0.10825139620061144,1.4417504363592062
0.12241733650757483,0.4914219357787762,0.19109786644560472,0.22427838250834842,0.13147211125667954,0.14410229037088168,0.15008774199328767,1.4047356711014731
0.10286502214170334,0.504296063855115,0.1710594016397901,0.22659138813235113,0.12090869910979656,0.12787223700624553,0.13036995517583544,1.4212728262785865
0.0659188101277207,0.503132807007475,0.12603981409108458,0.1538196999049656,0.11278963396266412,0.10320598868921452,0.08520206444923235,1.449007046204776
0.09354843231915244,0.5109112844113938,0.15386629351183564,0.19366992511620423,0.1116323829741315,0.11295961218579223,0.09716291611422222,1.4533923459074727
0.11686541920791134,0.46660320633781416,0.1701313378183812,0.20878394203494446,0.11066451405164363,0.12555172181820717,0.127733836952205,1.4190105071481351
0.10181344877391471,0.46798462741284624,0.16455042232108993,0.19524818021944848,0.09847243242977166,0.12231953595790358,0.10720963710876055,1.4136246194273518
0.041748718826222525,0.5113447269588131,0.1081288123740456,0.1383089979930569,0.08371927450577706,0.09035520814845144,0.06969726883818518,1.4674059477859913
0.12596467704679934,0.5028369682452992,0.1799452543961532,0.21024564918622357,0.11598298616966358,0.10649820647326243,0.09970807913714626,1.460617438683494
0.11492610691871143,0.4862205808088438,0.19586206737038142,0.22430897982644066,0.12457229475373001,0.1288680329030734,0.11185971392380577,1.45409962378681
0.10790498513071609,0.5104598439097064,0.1654740439382169,0.20025946599963704,0.12667201568067066,0.10381771624093251,0.08213897131898294,1.4402127184253186
0.060229075718188446,0.5496618407998317,0.1268075854350092,0.13937420223054048,0.11653710999223846,0.0848653680063165,0.04162758727414959,1.4305343577625833
0.14177766790608856,0.5097940029691038,0.20345539241252053,0.24798279711334711,0.13320206533833887,0.12279186596514195,0.09523672815362956,1.4576514245515648
0.1306304809259751,0.4766170487340139,0.20731438891280773,0.23520665871838717,0.13836151612352107,0.11764179392872569,0.10541942816395294,1.4491697556840124
0.0980989335342621,0.5126988090753443,0.17334477611505306,0.18258148892552328,0.12870612791268166,0.10762994978405868,0.08106088815494485,1.4012062392694011
0.05901886569219046,0.503153571707666,0.1168825063079509,0.1562988789783418,0.08160744735625236,0.06580502214554174,0.06123892740887485,1.3944391698961516
0.1391240011548081,0.49266010568395735,0.22787186822479522,0.2422641712878062,0.12751049784644358,0.11258364632685408,0.11018277909171978,1.447920464258268
0.12037780141492757,0.5212402785646502,0.21742128154575488,0.21398217449818505,0.14208327167587564,0.12190462422055659,0.09213793194894795,1.4336691782072484
0.08989621572542084,0.541340110812896,0.1669804867037888,0.18863107508473756,0.11620466031908067,0.08060168236676864,0.07544039659322586,1.4203610901699175
0.054894318842747376,0.4970014435923582,0.13502636795777695,0.16969449969893724,0.12145933759785668,0.06585143935775045,0.047411410300623506,1.4150205773672906
0.13812225838200468,0.5130307049623726,0.2119420581038803,0.24083749030160195,0.14184549844870709,0.11292107265102866,0.09452291851942213,1.5141844258892483
0.11481342160895949,0.5492708637586573,0.20170560306561275,0.20291461656008333,0.1359876639661035,0.10165730509357933,0.08352505631400463,1.4085377960978986
0.07613325139338309,0.4953545847868685,0.1307274664867378,0.1591458232719042,0.09039021065440084,0.07735750717786372,0.058429655701765434,1.4154815089080286
0.09492644608447226,0.5063692569410367,0.16934341049942075,0.1814141460466706,0.1130410993681572,0.06496214881643626,0.07177625793013262,1.5152784876382435
0.14409279306277348,0.49236670935148424,0.21517098378606303,0.24383348393832074,0.13306299493401225,0.11984579523556442,0.11106144382395154,1.4487040914070082
0.13362925753083377,0.5379535553642212,0.20380526151246944,0.21670739232911518,0.13365390854949669,0.10571142642596171,0.08751840214016186,1.4547939320523713
0.07717716569869966,0.47922241366115426,0.11721030544332166,0.14954459317418028,0.11631633156851585,0.08929649758148231,0.05508803743134081,1.422791214274657
0.12504977845747764,0.5620399918749367,0.20130651277519337,0.21887599740922176,0.12890466031026035,0.10102675042896993,0.07373881184835658,1.447808264124054
0.1496994333231181,0.46479474225123313,0.2486077844985965,0.24576374776650145,0.13688510162541362,0.12009484932007418,0.10266786631534787,1.4916551476335798
0.13277779157855918,0.500264153011253,0.20060575373762957,0.22017050705491412,0.1294825827251497,0.10471557855919567,0.08490473303909006,1.3785849409064577
0.07486785434426996,0.5202902536686631,0.15360411119618195,0.160982822810365,0.09154187716124586,0.06834920208440473,0.05673835037710043,1.4294617254198956
0.14448672019751171,0.5251744542164294,0.20921542500141607,0.24572842862602515,0.14574532779733076,0.12676924313147683,0.09107502641363092,1.4566504611839075
0.14687576485204062,0.5028060436608037,0.23909771081865136,0.25948511338186875,0.14175326098268354,0.12568130345664108,0.11380444258267176,1.4587961510985228
0.1299212154787028,0.4837906193857389,0.2003971783658106,0.23278853660939489,0.14196720567301724,0.12222916013329367,0.10179024043481921,1.3864502745460563
0.08385338185928587,0.5129271456142626,0.14935324522495005,0.14954930587810775,0.10213007894827103,0.08921573028089543,0.058493208592324944,1.489087687554644
0.15026015277084623,0.5173573736131404,0.22925633032149853,0.2575764465435956,0.12495748289294176,0.1156068164387913,0.102621271944091,1.4918768046908883
0.15331592203382333,0.5411405802047462,0.21652670706340732,0.23850781145988612,0.15603636408949284,0.11715218943754781,0.1104863787149219,1.4789375692674185
0.11814946784268887,0.5554204225375654,0.18324264371636959,0.21446133914336754,0.12836189196359263,0.11334884679988039,0.10832514714527144,1.4673797210921675
0.08261614021398242,0.5181563101708104,0.13502829801841856,0.1618416237905566,0.10543864278353939,0.08605298475840116,0.0639144375704703,1.4806638890240431
0.16649559614849416,0.5526640389516018,0.23393865089919993,0.271888539650513,0.12315437443259242,0.12803132022742458,0.10799431846442357,1.430752470998422
0.1231676632966183,0.5199697772821935,0.20744970017733969,0.2246994556683444,0.1170744123041161,0.11981875092618118,0.10600732116670812,1.4750816399473081
0.08654686630921979,0.5367675383425237,0.1552211668424832,0.1756165058744147,0.12497337570019029,0.09379446672534836,0.060018304755945544,1.4860020926638342
0.08533899339038524,0.5019675146489445,0.14721978577906797,0.16094940419231457,0.107321168470003,0.07604776821860143,0.03293576743773913,1.4253870692531705
0.1446641673039655,0.4939766745087734,0.22367703182288073,0.24464830794002915,0.14840775277808743,0.11906202128670428,0.10665347018545773,1.4664491336377061
0.13046618677939142,0.5916356863844049,0.20570285427016885,0.2279716591955974,0.1131147902600731,0.11515071619436056,0.09914063306562644,1.4237489673143549
0.08355896356106184,0.5339884273031918,0.1558984352632234,0.1435103388482679,0.11053899114452172,0.083045580164412,0.06491020402680146,1.4268290146460456
0.09021223226812673,0.5453962325563334,0.18304966568950135,0.19002260232267892,0.10219439317273316,0.08578323828700751,0.05696515003929844,1.4466460585392573
0.14955670478055186,0.5543577481427846,0.21779232327576994,0.23897113424171673,0.1360297776311868,0.121752842155296,0.09547466511448359,1.469764053235116
0.12165109670164113,0.5203236331087929,0.201538133066494,0.2053823035876888,0.1250385517460973,0.0996408025141218,0.08855608792709761,1.4401542568167645
0.06055748321667625,0.5624105928590913,0.13310181056455261,0.14327127073313692,0.10970326229705887,0.07479112248429264,0.04765691567083024,1.4202398186746308
0.11824781317878104,0.5436492611847993,0.18975215011024188,0.2071675937132969,0.10895118038176116,0.08930858742601723,0.06804444398285824,1.4939585733107936
0.12762724765767727,0.546793417851688,0.217735693084324,0.22085004372617803,0.12356452895920816,0.0907256557483613,0.10053397670949411,1.5267176174081558
0.11337674897566768,0.5459932674119606,0.1817793297645477,0.2119591428934837,0.12537184821485195,0.09148956199016338,0.0692075846339412,1.5194712200186555
0.06618178102759975,0.4871728208452503,0.13211425382876624,0.13186311620295899,0.0843425369900987,0.06420549811696281,0.04689982245460101,1.3859227204734355
0.1341354410554432,0.5598663860116192,0.21618257401135832,0.23361935455439348,0.11304084209273366,0.1016474940203815,0.0944381328459302,1.3969824688946222
0.12622404713937055,0.5356838793889347,0.19401510211932596,0.21585819003657086,0.10714370979327502,0.0938083728123851,0.08735691653407734,1.3915325818206061
0.10451607985389023,0.5253968331626228,0.1628565360347751,0.16678833167010026,0.10360864076979273,0.08463481920159419,0.06677825921280094,1.467192299877794
0.0732589738783328,0.5595286831111568,0.13288706697846286,0.1606529521285767,0.07694390236441712,0.05732651134745816,0.04403847806471699,1.4307065768331098
0.14482844713271778,0.5503536691204209,0.23220027744617933,0.23586145050330687,0.12733372087886857,0.12281595015891764,0.11092791273076934,1.451740446246947
0.1404578296689389,0.5442100266890446,0.1878509922256924,0.2246859952913386,0.11930149215950654,0.10139489005242006,0.09460984062807319,1.4198420547423194
0.100607227698421,0.5127253721732208,0.17300079821894193,0.19023840338576276,0.10691045615106419,0.09133612474066533,0.08049696879547068,1.424184931592207
0.11655756555494191,0.5496005296758052,0.20631401549248132,0.2073094695058424,0.11957159784854302,0.09225434512786222,0.08127377720140734,1.4044520095944666
0.1494319990464569,0.5451981981332922,0.25077325448653187,0.2553191007775724,0.1376180532754594,0.14543921118610884,0.13061679088105646,1.4557165146618765
0.1511916269071642,0.5106527197096796,0.22186935234950095,0.2516357873029025,0.13038013090614903,0.13683336300327917,0.13318834761326057,1.4093574835652705
0.09795987664475495,0.5422012781996028,0.17128618016220756,0.17182712014734533,0.12725764920668858,0.10608941664097774,0.08078057875483302,1.3836634248490038
0.1437630277528581,0.536426945610549,0.22884663699413477,0.25379998268407195,0.1511807111440987,0.13300664820348604,0.12406513796527406,1.4341859592591346
0.15446796744116573,0.5580578191187933,0.23610557203734805,0.26254189342305784,0.15141353268434551,0.14920101710466732,0.1432447256710175,1.490079251425033
0.13763090455905974,0.5483088197717133,0.21007079337371787,0.244848838106923,0.1606649540530186,0.15126973262793791,0.13018364447216263,1.439995214673817
0.0944664698348734,0.5417564911900453,0.17104134232053003,0.19736538103879106,0.12342670620154425,0.10720160220908646,0.10425282388699193,1.417160259981883
0.16356251423266147,0.5643815138403562,0.27220016293239563,0.3012763213805455,0.1786196977804803,0.17161533639451265,0.16133547632134113,1.4944155595451463
0.15193158536819035,0.5493340297841594,0.24166970846515728,0.27023984802858375,0.16381085487081032,0.16651163893358853,0.16519305802726664,1.3754997259821045
0.12203809963860651,0.5143584369340501,0.2297198203594021,0.21730219330307252,0.15213459043133454,0.15441677266582746,0.14013638469704282,1.4715879503706835
0.10956570680893353,0.5366992022155248,0.21667055559179438,0.24010331374987062,0.14203188127032162,0.13730515570100793,0.13142223415373488,1.4428772207018514
0.17599860184057214,0.560435493708526,0.2705749535683307,0.28572180673740594,0.18557917715472066,0.1942770226006789,0.19861365283738164,1.4298954345108132
0.15239607548189735,0.560446710103488,0.2608190279648472,0.2827644068357045,0.17019374437127008,0.18252946487036234,0.17525498251752988,1.4644469870570307
0.12218237558286482,0.5313538388499568,0.2018913208649238,0.21633308103605597,0.15559003115737707,0.1629266198642448,0.14277263293389952,1.458497398598958
0.1510120129140363,0.532116205684088,0.2641428210820049,0.2854839270574122,0.18721130247558682,0.19626182491764893,0.16787349858632752,1.441473822508638
0.16957890661178426,0.5571069469190331,0.2876652234455647,0.31788245150065986,0.19343888577749926,0.20702338204201814,0.18511150087653105,1.454981828830615
0.152719221748586,0.5432729574165667,0.2526092517870672,0.2874421801361556,0.19450165223084098,0.18209307632015778,0.19949492816314376,1.4977973381876617
0.10243759078482423,0.5315528013444853,0.2007700517216429,0.2204410939846263,0.14700642135226707,0.16480077836542983,0.14061453840963214,1.4235809974360387
0.171520640645305,0.5917335678226047,0.2689537759581396,0.32924543395127026,0.1734789268384313,0.18362351979976527,0.2004983159898145,1.4596383286586454
0.17447081937104844,0.5819592260912233,0.28539905098655144,0.3051192412772941,0.18241561866946587,0.1988087655123295,0.2055789125300035,1.4431660037416094
0.13400971016970092,0.5144054725454043,0.22057070105318669,0.2645117767334927,0.17113855354216606,0.18470285477040618,0.18050481356128426,1.3781241703950353
0.10676155858421445,0.561535608011451,0.21301412950341742,0.25484632030804344,0.1647786340080093,0.1686480507739947,0.15943609708775183,1.4525932347182786
0.18425982413180278,0.5198175017803038,0.2987274161354577,0.34220500839416645,0.1779914624017662,0.2333607404430392,0.21563307733126874,1.4362825138286537
0.15813113570924292,0.5338722547786443,0.2683350868354165,0.3056421684610001,0.18729258426017922,0.21145938501087214,0.20054886342993564,1.4033953695314814
0.11994001002125167,0.5347882806697257,0.23632835312252773,0.266170047734865,0.16844243999410993,0.18585615166117278,0.18889504254164602,1.4513931275045875
0.14659426503033945,0.5762461457334112,0.2669856751546787,0.2966264264898597,0.16425401788805544,0.1872745200691136,0.1855160965316013,1.348138597886203
0.17067843901059324,0.5680939110216086,0.29999856545238357,0.34637965579335217,0.19083545144895664,0.21436682003824858,0.23043512076893044,1.4139098258701968
0.16902997206300402,0.5934083512813704,0.28736136828177333,0.32976872545602093,0.1705308617941926,0.21180743059080184,0.20859490124603158,1.3956251114508678
0.12861990807280815,0.5363529267677871,0.2199449242317176,0.2573394231379041,0.15763885299903818,0.1747575526614827,0.19469732867099934,1.381435774468113
0.17886407268810836,0.5390209067667586,0.2981601337911814,0.3381311587776938,0.17931975708871517,0.20331014400385866,0.23008508057074886,1.4814843425438982
0.1633147677067365,0.5317465023910881,0.2845143819006151,0.3342932217445021,0.19417420172081012,0.20762774547265359,0.23519135563024832,1.442944978315948
0.1444070771177741,0.5583737406539827,0.27045424701979065,0.3081374307667022,0.17952276991663815,0.20027434605416453,0.20849635082108944,1.3693941506481937
0.1103182255599118,0.5771667660691946,0.20025725198559535,0.2490795115832927,0.13241460365209565,0.17047968724823118,0.15487533934835676,1.4168558133110105
0.19862940124119438,0.5563183944223631,0.3030684213151205,0.32958401442813695,0.17262398688870273,0.20980568804406943,0.22068131795363644,1.3748367648897033
0.17440945396159782,0.5895364889899467,0.2704716055550428,0.29282282750788025,0.17661494823580623,0.1942324590071033,0.19159390126526762,1.41448010392862
0.13307480920935738,0.608672987410265,0.22713170832811322,0.2702076066564462,0.15317181630352775,0.19813946964400525,0.18520869795802875,1.4271204631633416
0.1256822821230063,0.5858623512028371,0.23541906212967084,0.2760433036198552,0.14399902140963575,0.1647880336867456,0.16630310282807997,1.4511916061610046
0.1627601688411624,0.5256475412066054,0.2911438900416978,0.31426087756134885,0.173910666909427,0.20203333615149427,0.21013303788224738,1.4494268863436794
0.16342360085512236,0.5684611191202342,0.257456466503749,0.3085780715829334,0.1615123854171769,0.18679364958999037,0.18525140973281204,1.4760056661148855
0.11848493554311847,0.5379789474192265,0.20603055490050118,0.23054116230105545,0.1346270737668717,0.16145173765438578,0.1696835061873995,1.5181311154231285
0.15670492250260673,0.5756890113295902,0.2637504183167154,0.31333458931272246,0.1496243386137906,0.157861459114459,0.20587440676883928,1.49887541625577
0.1748316795578531,0.6024918638201389,0.28227063712761574,0.3323784666042303,0.16883829268550177,0.19377625450894362,0.20601909011652877,1.3979978937596909
0.15529541223995738,0.5856870085548934,0.2429694599314525,0.2895643730786015,0.16398956232201528,0.17887816347565966,0.18250983515184943,1.4782177963078553
0.10952199720850808,0.5876531125547931,0.20391061157360832,0.24543974487995615,0.1347034205656776,0.1376251938765662,0.1541724425963589,1.4118031581216628
0.18745244613059248,0.5849872570872999,0.2992644217075065,0.3519843411992468,0.1834794338009544,0.188216996636783,0.1897949142826102,1.4805248177183374
0.16816357184579275,0.5820017164115158,0.2689103215597965,0.30604906435944274,0.17001382884115068,0.1933898310142934,0.17833406195363377,1.4427988598183363
0.13821262351305544,0.5536299139345755,0.24386543498992555,0.2639611414178716,0.15742219991207493,0.1630633666183301,0.1476610326294061,1.4222764306159337
0.1243490032166974,0.5913037904152,0.22426186316613406,0.26079719488944664,0.12624702428244722,0.13781065150899738,0.14950360719904413,1.375657754655776
0.1738883361714017,0.5553841401629706,0.2848832619739065,0.3121105986396158,0.15892924605740255,0.19175781669493,0.19764883286837906,1.435531561667481
0.16452792003535766,0.5666366100295823,0.2777940174164232,0.29238518033675487,0.16478556624231266,0.16054733672565574,0.16847837984008354,1.4311539835424028
0.11905685542919717,0.5702157782349978,0.21867370358498095,0.2559369305470573,0.14844815313119852,0.1490518104784165,0.1331533514531435,1.4519278146382006
0.16737240701334624,0.55002343590673,0.28547901622503813,0.32350806364938745,0.14932560691129693,0.16498577287201774,0.17457417344365628,1.4536438944355263
0.1775345646624174,0.5488888628426511,0.27978393490199366,0.30538780450739483,0.17618056933485643,0.178984982555415,0.17506360579617922,1.4806282768544543
0.15403900326804099,0.5778038120152436,0.24976094727647571,0.28108737523654825,0.16044589439373363,0.1751302301141257,0.16843507966037313,1.4473563654353447
0.12442064176910947,0.5819672714957952,0.22949303075731528,0.26320266523805574,0.1427564546417546,0.14813236859801618,0.13930963073200828,1.4434337137229052
0.18955936946629362,0.5520395563375716,0.3200437174249909,0.36533435217593885,0.18107979742540628,0.2030715460675282,0.21160253007613647,1.4226988514182872
0.2015314231569129,0.5238853609465008,0.30315225832655823,0.34924695752367124,0.1897635597040998,0.19947094436018437,0.19768912258362198,1.3725000844347048
0.16076431246592113,0.5462692529203648,0.26746983740352653,0.29997950491322783,0.1720122895553537,0.1845025814027691,0.17005827933859938,1.4781812738746172
0.14879041751555683,0.5990375873958679,0.2544823701602252,0.30585568057950674,0.1699201003627251,0.17641908021333425,0.16799571649020242,1.4126117327851022
0.20827951577421538,0.5729481995527637,0.30150441041073706,0.3420494136267482,0.16953515438830655,0.2000886052985513,0.21009498665022933,1.5034673133887637
0.19342227293709008,0.5342739306329165,0.29530338689764035,0.3478386124030832,0.18293833868573361,0.18778718151193424,0.2067944655203557,1.4598938485961952
0.14810912352502018,0.5677299446054093,0.23946564146813054,0.3011997938443165,0.17751700874935633,0.16871637359717467,0.16970223822045857,1.4290918452968302
0.17359787282444275,0.5469409630306646,0.27709553211985233,0.3260786787211378,0.16772545772921127,0.1870399417415959,0.1936475588142848,1.4694896373697341
0.18281565288261367,0.5831629938579819,0.286424314950811,0.3525262187721018,0.18881064127268762,0.19411873653220332,0.1999737726710497,1.4665371376597618
0.17080162933275186,0.5825099308635904,0.2737611816192258,0.3231612375620298,0.19834777823350858,0.19720324012177806,0.17225667845348225,1.4353277038524053
0.12276781176020873,0.5641202682740406,0.2300845673557826,0.2896463202195908,0.14712943884138338,0.15279995655505477,0.15715490239565347,1.4508216459695704
0.20233988619559612,0.5874042419184328,0.2932767417214476,0.3484857678143998,0.19756897562676573,0.1989565584479406,0.20178628388874778,1.4402521901045702
0.1799712907950061,0.5412947499326365,0.29259027109371283,0.33138073398901846,0.20531446875661105,0.20764907364776616,0.19533425707025756,1.4648591619454119
0.1650870337101091,0.5735137735521856,0.2668721852183322,0.2912416668724724,0.1558774939786699,0.1728695499098585,0.17168024523370043,1.4949289764423113
0.1417379342904389,0.5789654620145153,0.23012122791726855,0.2604246211898338,0.16054659317398587,0.15708336389383604,0.1363494678921682,1.4185793748827247
0.1988349481100863,0.5459519348159861,0.2942616954607448,0.36171695378170515,0.16749877612507472,0.21086940572760898,0.20003393581118725,1.4882875555987496
0.16455737690612426,0.5356215717993357,0.2877229568303332,0.334725459584988,0.17930324852253846,0.18920992466692316,0.1866482317246187,1.4427019160422447
0.13368506442227487,0.5420269773107437,0.22614980365032783,0.2676606979597986,0.15881802385338603,0.16304347630903981,0.16446282075582397,1.4419484430399927
0.13115034771635187,0.543529138113686,0.23183035675191194,0.24443030570062868,0.15184785164512893,0.1365131604724024,0.12620985548634295,1.394770564093266
0.16659338507344693,0.5986002225945525,0.28630318945577166,0.29934211406735667,0.17317749281911088,0.17536311354411893,0.18054508517757256,1.465587719930246
0.16063597469239266,0.554700154187978,0.2642625516800051,0.27990945360260694,0.14706765807162575,0.16878811564485796,0.16835544548971318,1.4144819798509038
0.11359325580680228,0.5971299552433441,0.20689552369637312,0.22973017950378072,0.1261082904622717,0.13828454108540428,0.11089007071499474,1.4736942122936867
0.12042005438386004,0.549150770433379,0.2583150510081795,0.28057563004124614,0.16304027390308526,0.1237040514004849,0.13459235031707073,1.443152758147336
0.16236839069370113,0.5620088769998716,0.26826831685581226,0.2803133805432011,0.14705787993871358,0.14750861640287657,0.14511855886005826,1.4573939444381427
0.13451790061045785,0.5813934197853613,0.2310670593184719,0.2557759517395557,0.12765107246840907,0.13716663320105082,0.1211706367735483,1.485177564314863
0.09540717513532966,0.5670773121917959,0.1630820464648326,0.2051441173654053,0.11141229439493634,0.10534638161860985,0.09088089407595205,1.4639879609319435
0.1615758596298991,0.5979479297195469,0.25302535398586806,0.29114920695571367,0.13878593843902629,0.13633036207851917,0.1424695302171919,1.4068121802272708
0.15815077250488802,0.5858973885595425,0.2377938441914804,0.2817390962303081,0.13398120745811862,0.15240699517332687,0.1253458045818547,1.508419628506914
0.10680105148537401,0.5706520510168298,0.21945239889932944,0.23713866863975314,0.11440875745412753,0.11485057179057544,0.11328290844081117,1.4422279396035025
0.09076202253669635,0.5799329783937199,0.1670657191438345,0.20826222639941647,0.11538870973477781,0.08273255950285995,0.07271822311274882,1.4752233981772753
0.1507562480950705,0.5534848705470379,0.25932777750150393,0.2901562534635241,0.13744842141894936,0.13874122107876483,0.1367038968177641,1.49070655239806
0.14029537183209337,0.5780400277057248,0.21066230932152308,0.24715713401646647,0.13082700327865643,0.11853342479475457,0.09281734235988852,1.466614991126722
0.09078524749168561,0.5934216977554683,0.1761437439214466,0.20216761036415004,0.10878880864885428,0.08717990378440484,0.06924674922990369,1.4514512246123294
0.082247911997219,0.5639778782758903,0.18950027321476953,0.2170932537682677,0.09177185060174879,0.07328405500795585,0.06379807865543038,1.4965254917094744
0.1311247862809874,0.5671018071657867,0.23722445663156416,0.2602885946302872,0.12539765692137492,0.10717291583594733,0.10028441277305304,1.4646308508332773
0.11468004583286222,0.53762347051541,0.20410523254422283,0.23273146785357657,0.13771406667176983,0.10168491469316768,0.08977312676435988,1.4530368692390252
0.0568192779303586,0.5738258811509617,0.14318960527588445,0.1574406092437869,0.08652634491315139,0.05625787355675937,0.038686109691448395,1.5542542245805056
0.13770420712118817,0.5937840688224116,0.22402211056601323,0.2530006608535593,0.13085862219648894,0.10455593072215605,0.08717821743910326,1.5364947870909926
0.12303511593334238,0.5913097671924564,0.20664735790698852,0.22726979022433405,0.13821667407096408,0.10478404004683677,0.07871822062194678,1.4116946795984813
0.08831756976893826,0.5423423694062028,0.18676684892653722,0.1863239564550989,0.09419366496903676,0.08799127402102558,0.06258860617136147,1.498538251866784
0.0796327239060526,0.5269915166252751,0.15449146597303762,0.17710274964957104,0.09034659761934179,0.05408189371791031,0.04948917092252851,1.4643166092804336
0.14138840449648743,0.5412379352807988,0.2581854617035014,0.26663723510585663,0.1372731226816871,0.10476688215673724,0.10669741478273936,1.4780740083831847
0.14092136483853399,0.5789125518347299,0.22303404404097854,0.2551137906313221,0.1429313146094732,0.11843105243293818,0.08044881651055902,1.488152663152048
0.07794920475102357,0.5262331747772816,0.16995502241079116,0.20881006407354138,0.12216293207504429,0.09286632849445912,0.04128513010489926,1.4334342747569966
0.11382601544114121,0.4990632937117562,0.20172390682111077,0.2298769151556945,0.11049815434325738,0.08872807323632448,0.06484175766916035,1.43690724339808
0.1492888067092421,0.5034612239475728,0.21825372017615952,0.26370392684118554,0.14451081770787938,0.12569043745117228,0.11431189981899104,1.4505959614594066
0.11757097203433751,0.544313891590569,0.20353388079853782,0.24076069321252702,0.13206359813846325,0.11771326579140999,0.09775429088163846,1.3950404058297043
0.08559092448962878,0.493307936184216,0.1503942095474547,0.18780885976635572,0.1253635961376961,0.07560441496726543,0.049352039506755714,1.4340236733098255
0.1480539131065929,0.5425859054299704,0.25230914154815337,0.2880688841721923,0.15674573554464302,0.11942508306794106,0.11546440959524494,1.4504650411200184
0.13291686605698264,0.5735320561460089,0.23703632416172832,0.27113398688913265,0.16060142968575103,0.1266084711781816,0.13309989474586192,1.424212073187101
0.10809110328363301,0.5237481556911731,0.20201450649009692,0.22473059284625854,0.15280588839443238,0.12374082319052464,0.09508589667317956,1.4275240311371034
0.11389575348711456,0.5315763153357166,0.22062434626673713,0.23524253730448133,0.14051311119587673,0.10865789699674637,0.09627564048683797,1.4026681162206684
0.15599966638343624,0.549754980675209,0.2814606745776567,0.29766844852181257,0.18815760474689555,0.14822881941266874,0.15395146601364537,1.452319224984559
0.15221748148228298,0.5167760327695624,0.25203787259209803,0.2823643959193363,0.17519073880308977,0.16080975682587828,0.15752966286429174,1.4342689278129266
0.1062667258187628,0.4510849041748526,0.21127121408847077,0.2279315072734113,0.16812721211189632,0.14321286914035997,0.09579661583171944,1.4223882341841028
0.1690553191837629,0.4869903874118392,0.3024049515339962,0.3204826328285524,0.1791496606290839,0.16925065968633934,0.1680706417013168,1.4682747688930466
0.18464776660839022,0.5032634399189719,0.32306166292844374,0.31166491794712037,0.18840087890027515,0.20408886781163782,0.19909900309323988,1.4282838298238734
0.173800632975792,0.5150756108098171,0.28260879917076087,0.29700415734502444,0.21732189484885342,0.17346436354097594,0.185190176707471,1.4094154099799074
0.13837171501574122,0.5477074968540299,0.23446125826507602,0.28204444767765524,0.16624633914925854,0.18368181074090964,0.1456042349336079,1.4811327185278864
0.20427374863912218,0.5599067113356918,0.34987772967099157,0.3649629865301865,0.22332554974508506,0.22993447454871094,0.22112517060231313,1.4699370454119791
0.1938551495601409,0.5592545972725697,0.32087178303547037,0.3451520187869061,0.2266904885094053,0.22944864172159032,0.23525858819721404,1.4055906645949632
0.1769153513671629,0.5403209553950039,0.27139147655922485,0.31244065067943655,0.23647837517996506,0.20886710309992346,0.2048669610183282,1.3781695767075848
0.14551080163052538,0.5231290567157868,0.28599718038017474,0.2998621475412244,0.19680858004176113,0.20081192629738406,0.1839299265642262,1.4611949354316078
0.20811512289533635,0.5433547387588973,0.35863753455871483,0.37942184762056,0.2495788128288033,0.2467451533056676,0.25365593044888907,1.486721339796932
0.20614969241755002,0.5105757893202736,0.3291745657227787,0.3560228330498949,0.2573090077669819,0.2558931857587909,0.24727698969513412,1.3985159637062607
0.17676131814024418,0.5356533462904062,0.2772946132089082,0.30507142761225486,0.21337747536470894,0.22554842373768838,0.2231615122716889,1.4923378946060557
0.19641144885053546,0.5658291851138832,0.3335401044551304,0.36919213849137217,0.2571004292078623,0.2520153964956727,0.250368524514624,1.4787101296384866
0.21367830761917517,0.5938453592114945,0.36576079905839765,0.38766378734117235,0.2631783719411581,0.28695472105386616,0.27766145512067314,1.4725044910344132
0.17913849686042846,0.5244649483239769,0.3539016784715538,0.3647301139790444,0.25376801152662737,0.28065396411231436,0.28375558023232783,1.5106348925926876
0.1702793662168538,0.541498419534677,0.3085946945726621,0.3056154479998667,0.2327414683374061,0.2601145984380767,0.2436320561493856,1.4770087929015148
0.22368518808652482,0.49612210886130437,0.36438946009513984,0.4018072282912066,0.25448269455084815,0.2980475844503914,0.29511781481417837,1.4394106089366885
0.22469185752297627,0.5549162632101091,0.3708707641114693,0.4222464770991235,0.2822488172589531,0.3178266182135672,0.3136854656924296,1.397860552191194
0.20046727565038688,0.5514339206344565,0.3421517536677241,0.40466688756959573,0.2882143305408385,0.3060407853217238,0.2968092502025237,1.4189149624202604
0.15479553235932547,0.5712692478471285,0.2948502788360487,0.34380972748131894,0.2577242980597262,0.27998018128525265,0.26934215023724495,1.4626511995677012
0.22682315484477888,0.47830160301774605,0.3860514207309649,0.45827417359723205,0.30034987402727403,0.33390030326814557,0.3368398115102214,1.4388014337722153
0.21490800483344188,0.5244862988503197,0.381648144844897,0.43212734997333324,0.3005887816460069,0.33377849404377885,0.3376625639214467,1.4542616263545436
0.18144874691418877,0.5331649357100764,0.34854081830586137,0.37854620474031836,0.30106419070009444,0.31598339877779746,0.31221091540090734,1.4854079670497844
0.16284119544945133,0.5237882264431482,0.3142642243807117,0.33931152244141743,0.25657832334392366,0.2887090192932229,0.2590875964508631,1.4562569600969812
0.21711039067542665,0.5037105345127594,0.39989582947468666,0.43178800467108275,0.28898725908067746,0.3486409983342902,0.3366765843096281,1.478823707591523
0.2101797786990285,0.48672907143688077,0.3590052862997954,0.4335307630407185,0.28442413106909137,0.33218246681092817,0.3363907392819333,1.484953241287319
0.1813844690139256,0.5108258247937246,0.3094034614990456,0.36414307143685276,0.27405187595776315,0.3048229725890279,0.3038018956974235,1.4649681410442514
0.15757637865875637,0.4791234432829438,0.3335754770993801,0.3658116694568713,0.25832813691795725,0.2861431190259067,0.2741190975521664,1.4134267934726374
0.2202680222749133,0.5288499843742438,0.39338194174012214,0.43181181045790773,0.28726195124901804,0.34062078735596385,0.35099366434094914,1.4533964982536598
0.20308086855148738,0.5275442966822586,0.36450414860624125,0.3956848946535036,0.27170545606561086,0.33393002908835695,0.32820309234239076,1.3964650819556295
0.1519668004842841,0.5240100675786834,0.30660533274467094,0.3288598307054493,0.2490435497746536,0.29734438124757806,0.2845224108877361,1.4550837008847088
0.1890204249802901,0.5056026728572341,0.33377045086580376,0.36788784358212867,0.2580463108601261,0.2834231108667936,0.3088724832246298,1.42962984540945
0.22944691705336506,0.49839683924184625,0.386300267030569,0.4105586863373098,0.2770192863267502,0.3377344476567836,0.33877814990757377,1.455936724195925
0.21474756046494553,0.5058784381322962,0.3515690234042023,0.3848861247711577,0.28647088884073024,0.32014943496488213,0.32854245420544226,1.4771451327789864
0.14169931731637564,0.5105483026453372,0.2921361242425987,0.31963201067965746,0.2583790332372215,0.27128527298564165,0.27134495421032656,1.4513219796699794
0.19835326371604542,0.49517718322984083,0.36761915684360913,0.39526253416164453,0.2568676253821879,0.2998206520208092,0.2981358989280692,1.4347346131426377
0.2128476283053062,0.5162604987385917,0.36390576228680116,0.40636407201351876,0.26780003780118294,0.3167541741550023,0.3361938792651189,1.4803127346733032
0.2016856552697385,0.4563507981600957,0.3437301722604976,0.37560081464780104,0.2695134748563355,0.3174212956761426,0.2959521588288092,1.4493196348709454
0.13744354066498535,0.52008471004361,0.2705621657671548,0.29825015360705354,0.23244294343588986,0.26575005241189653,0.2396735000850611,1.432204457574088
0.2079665524217167,0.48182367062712245,0.3595264532296064,0.40150317972079275,0.27464237282383014,0.30441691358044287,0.3031694817091613,1.4169592182730764
0.20289158583696199,0.5406566109143909,0.359117120975626,0.3900849352306198,0.261693994069152,0.31184343950554194,0.29784682988908345,1.378580191431938
0.19295786774291876,0.4887455074322927,0.35636997810708493,0.3628965379032245,0.25083056802577336,0.30695847333979276,0.31119458451209725,1.3959866519130897
0.14476283224626504,0.45525188719290866,0.2966422552584443,0.3211890077950219,0.21567775752924345,0.2692522440252184,0.24822252541159484,1.3419465330778562
0.23729006939956865,0.5328503244581736,0.39707136367691703,0.4186905672414313,0.26745887153953696,0.3192770006331686,0.3104531629773163,1.472010439824005
0.2214382001690143,0.4523846770749402,0.36590802222789903,0.3934270245350417,0.268548182242837,0.3093130430911017,0.2981285392527523,1.4339447846974702
0.20128384731800544,0.5003213027751087,0.3294527575404878,0.3570845326877591,0.24497463029787125,0.2914979471010894,0.2907975474681843,1.4160324635305754
0.16528361703147837,0.516616402355311,0.32533556780972417,0.3475333320007052,0.24474925879959333,0.2729118145903399,0.2512458475337054,1.4073502546423453
0.24980850856033054,0.47214571087852925,0.4221125212764856,0.43819506736739916,0.26946727947057847,0.3268236666674039,0.32335876855986145,1.4174964747847636
0.22799266285031397,0.48774111125460434,0.40105683054575075,0.4346791844439915,0.29038908984843603,0.30805815468524134,0.30031375916803765,1.390298945379255
0.19559247281407213,0.4960870890231013,0.34304796127401654,0.3882328875370061,0.2670613253697287,0.29697405910113117,0.26231153837408344,1.457662214482724
0.19769420160732798,0.4878128538169107,0.35317561265249786,0.37811730282353073,0.257046717538031,0.2887295693921631,0.3030410201702186,1.4529620682528248
0.26289574028544116,0.4765147252978816,0.4228652771989615,0.4606526207108488,0.27376311178609547,0.34306395027065406,0.3461015948611117,1.4470457811427568
0.23903568897477068,0.49603859791800325,0.38078343948483767,0.42309977352549805,0.27753830953328407,0.31451105885569886,0.32786059453919847,1.410919399827278
0.18120917278338752,0.5097097491241133,0.3283008081865807,0.3482544617005409,0.26594427826698724,0.3048270996415682,0.2940121362026383,1.403344873476513
0.18622228015474734,0.4286352948962379,0.35931319052162897,0.3906309576210836,0.25497867232393534,0.3003995226170153,0.299149705767151,1.4475734963756504
0.24746698676504802,0.5212961160203747,0.39849411688758707,0.45219005216896324,0.29566183819846387,0.3419394491061185,0.3319256715172272,1.5087931325413553
0.23326721065407402,0.4774014718474033,0.36725693794848285,0.4316607634874659,0.2869801559548235,0.32435477369598353,0.3268881792567118,1.382687599758021
0.17775903948883592,0.5307196550111873,0.32357487145279223,0.352803567789744,0.2445831641030582,0.3043767940824,0.2871414485315723,1.3588332650324637
0.22196930070589188,0.5012328685515909,0.39316621962119064,0.42428423137464827,0.26930763158989995,0.3088539843756601,0.31561815900010765,1.5544181816220861
0.2434505122304414,0.5223596303477008,0.39762315973477613,0.4423163695984417,0.27884624473283975,0.340465973230307,0.3367526407018151,1.4168706964848148
0.23207124519315755,0.5692262910713178,0.3584903895508257,0.41589890017694303,0.2798841863223167,0.32411373916331837,0.3263214479716537,1.4744315248642557
0.1603386500548476,0.5150396517862376,0.29491023927008875,0.35175234968557906,0.25396517430988846,0.2961051084006642,0.2746816922397984,1.3597456179286036
0.22870962558210467,0.5028439530682961,0.39266600775540933,0.43924473282092663,0.2896492731125569,0.3280474028427185,0.31054241342909067,1.4320136035645419
0.22694645291326548,0.5165228982449288,0.4073312057637714,0.4421253535936464,0.2905223102298819,0.35648491611351824,0.3447307240123936,1.3872047080543792
