0.013382597012117418,0.004137446992444915,-0.013266945847446447,-0.015318862673609648,-0.00471026425856393,-0.00800937456214912,-0.009818306124345836,-0.007354920924703721
0.010814782381215879,0.008327870161209916,-0.014476044309631302,-0.010121022292914231,0.001078070258315219,-0.006572776472514953,-0.009853382116156922,-0.005009560620053176
0.014677153431976349,0.005498061993208049,-0.009870239679070754,-0.0040027970105382385,-0.0016114567677894354,-0.00598228935292772,-0.009215974232816906,-0.01351308120316833
0.007606733308137482,-0.007177499880968961,-0.0012310629136353052,-5.897996466400842E-4,0.0030606424090053076,-0.008483145999033536,-0.008590777820202431,-0.018500023380142016
0.008654677916373045,-0.005259233306797182,-0.0038486508632173226,0.0022843845524389847,-0.0017512775928211406,-0.00800987839597964,-0.010230857813150801,-0.004624812874628379
0.009851456746909975,-0.008537098105655685,-0.00572659839774391,0.006442343013932849,-0.0048178450688217056,-0.009353933067248585,-0.004330543945633171,-0.03112047313892929
0.004092706592615214,-0.01246663824831305,0.002043937403588102,0.008403529984656237,-7.622154925876852E-4,-0.006136805173782281,-0.001337853263585736,-0.022052830611565332
0.006458213037985368,-0.023938987311128798,0.002901401159569943,0.012466333471113901,0.004853999533835818,0.001899306003793292,0.004245577450136053,-0.020435815670269936
0.009773701840314885,-0.031509581720242735,-5.972857044758082E-4,0.020132913631342713,0.004839804323356047,0.0019133684806613824,0.014784851367631864,-0.03638818324010107
0.021579180161881074,0.007606428968672903,0.014004427106983781,0.03692589685747875,0.0061530541947335034,0.01922259732955554,0.027399799987695074,0.002943584949076321
0.019845097337465274,0.014541024922203029,0.019704654038979003,0.04567470443831294,0.007393567304604315,0.01995050641156928,0.020525899456692524,0.015062682074802677
0.025423540958639922,0.021134444550343762,0.015895821851449863,0.051876874387114136,0.009927048342331761,0.0200108461941654,0.02243739632362125,0.012448649814029315
0.02734708929311891,0.023040131738574155,0.023889727775003693,0.06150016333021215,0.012679547817100305,0.019010488804381904,0.026711076131887893,0.011167622548350948
0.025999214938259126,0.022335235596989557,0.030186768476192692,0.0654384148745221,0.016828535268553886,0.020735198541156043,0.030416990672488212,0.014731756819516743
0.035921263424280196,0.03986630805962859,0.03966605802887883,0.0798801980973288,0.013996783371914482,0.027771833543163822,0.03351440242987916,0.0244177975825525
0.03674056398573049,0.046231701049963506,0.03955777895322668,0.08918527778589144,0.018011112434319375,0.02720646061858168,0.03383944001846045,0.028414876306065005
0.040200836597488424,0.047610459962541485,0.04199275671643462,0.09801856666161485,0.019031438434381213,0.02528140797481023,0.03384986147925905,0.029244628045631507
0.041380537427903985,0.047896545992075504,0.043976111083051765,0.10337323480691707,0.01735441850600818,0.027068780970214038,0.03308506514526772,0.023967817754849744
0.04963116119668708,0.060229345401391764,0.04761462879618539,0.11531975043468731,0.019871513864947964,0.02964102664453368,0.03431522343916152,0.03042113560566579
0.04730592006575465,0.06982392684778668,0.059230976407186955,0.11287996671600335,0.0263537192753294,0.030123352941436265,0.028078149983074587,0.02709493410390462
0.05246286327716664,0.06760407428852705,0.05718693322307196,0.1175514374917356,0.021319135470128578,0.024412200109649042,0.027455129411243652,0.028447767059987385
0.0505974138457153,0.06679801279877158,0.05404040371041465,0.11411321695318238,0.01946103458935872,0.022373468716827195,0.028464984593479948,0.020575493496792188
0.057281814802399494,0.06385831625707578,0.06829806183202931,0.12124937965166285,0.02660640782700671,0.029416784146624003,0.03303246066456493,0.03111516584835754
0.056215606492782844,0.07402264458982212,0.0615845061475974,0.11273478739337987,0.02452928752802328,0.02354555042074638,0.026944413147966403,0.02393753776006468
0.05420806325249926,0.0687358874532194,0.05854737397508982,0.11014972310416232,0.026115425511268105,0.023709729417373426,0.027234024672196197,0.021291338395818683
0.05407781220918447,0.06048484873837882,0.05611594316139049,0.10826001185317258,0.026087622700802122,0.025149205239254634,0.025096443196776595,0.016131355102409508
0.05881508118423723,0.055839223252636974,0.05101439657423313,0.10577030287975836,0.02694081904893348,0.024865092234411152,0.03146591284438857,0.014077365489040514
0.05728579774492957,0.05754685815147385,0.06152252821713483,0.10950012510051058,0.032513059252045264,0.03272811350769593,0.03645403758193049,0.020647932625198328
0.05868665478577683,0.07752519769970186,0.05369031994263185,0.10821073491940898,0.023611525418089356,0.03737347412183429,0.037675866994831386,0.030200419564777124
0.05893324872411979,0.07169512815892597,0.06884290185992216,0.10655914877899882,0.034701445689693355,0.03639929107270344,0.03807935411302379,0.0344979895873863
0.057740675262052475,0.07417060575251941,0.04918989252976164,0.10241693061034761,0.034282184518957454,0.03525889376316046,0.04032800267184982,0.030430262096879778
0.05845294646444582,0.07168821195371144,0.04254158914560162,0.09417218651874762,0.035398248914324464,0.04115148009720862,0.04308526502482627,0.03387719815340273
0.06574585038211855,0.07412181388968102,0.0507530458412195,0.09992100013716898,0.03794214252248034,0.039704416778587534,0.04763857933844002,0.04792373258144382
0.06095913564158978,0.0665065605753746,0.053921804605806825,0.0973117705617496,0.039451561912759364,0.04437999551481166,0.04911154792535999,0.04601392421088844
0.05486679055510485,0.07172697861322956,0.04585674712209159,0.09402750621819077,0.039523470826338385,0.04156158476302362,0.04605752532307782,0.04899963329005693
0.05240816515556298,0.07345897599427902,0.039188275995338855,0.08634665554705934,0.03907186216864792,0.044652488334194926,0.04473241576059344,0.03879575571241077
0.059953888226024446,0.06772800432725733,0.04368958604187506,0.08466661300744832,0.037078250039542036,0.045087869423841465,0.0462132658589654,0.049080040591201704
0.05865812749718736,0.068811322700169,0.04244735690398435,0.08227159616288128,0.04548593619098172,0.04558945020299895,0.05079404880834852,0.05254382854158523
0.05822896607724647,0.06790482848438076,0.0406579927621176,0.07242339207696298,0.03988062636943666,0.04398020646121765,0.04388427211622853,0.05507909672611415
0.05309561603031467,0.054667538793209874,0.03316547402544309,0.07239788005162413,0.03870207544822046,0.04123400387487971,0.04586168836287687,0.048470885762076574
0.05154101661714176,0.054304081442608114,0.037134000048998375,0.05926398129385,0.042216942180447276,0.04424017377200523,0.051197436359706666,0.04512138313188929
0.05594305967578329,0.05964960859738685,0.03773187297617149,0.06200838317893374,0.044883052985068596,0.04947256943263024,0.055640053002286374,0.05226134051017415
0.05344134011357326,0.06047039023439479,0.027122516766302267,0.05887616294842089,0.03954465095238946,0.04566025975725892,0.04876862136717273,0.05977917377516348
0.05178186664512071,0.0578876922939928,0.02787162094130122,0.04689689312542523,0.043342199594167324,0.04210688760215494,0.04781270413270099,0.05693964297361434
0.04361643073202168,0.04514118501259027,0.018099336462137627,0.04387860190737934,0.03349561579381512,0.0389955737999744,0.04291987042919187,0.04913421288148278
0.042227759411307235,0.05062958399909074,0.021929665983383792,0.03613427976542125,0.039922132894666014,0.03937720714641215,0.04614211622125451,0.04456780006798729
0.04679608583362522,0.054109851687721755,0.023912291588885713,0.044382133768286695,0.04478674042708975,0.04162684322813208,0.04383660236536336,0.051688421222152746
0.044395493555061435,0.050426528118234525,0.01576026119070847,0.04402406514984104,0.03740846278190034,0.039776166379689296,0.0453412054409123,0.05360138426882351
0.03405531761809865,0.04622988331890042,0.014236576833400882,0.033407095776067174,0.030089804749608096,0.038243601518794,0.03302466433975969,0.049457976286977706
0.04198274104245812,0.03974719348250857,0.022825367027916342,0.027027077787244863,0.031624182137655166,0.03169811494183195,0.03117143110992586,0.046477981166430586
0.033972628881846746,0.042124906312997014,0.008330993177428464,0.02265140524303467,0.028047805024396723,0.027140805436049853,0.030029993007012486,0.03836859557490106
0.040962894190845825,0.04294658835440684,0.013966768443028913,0.023357198269329596,0.030910909880142803,0.031871308595128864,0.033081924104070445,0.050156673727989695
0.03324080658749044,0.04725886728671883,-0.004701453891020393,0.02014151109286869,0.03072862786717473,0.028637835368229926,0.024954639539864733,0.051760958227403876
0.03657693737870368,0.03508187841778367,0.0017899636375089767,0.009114583013010517,0.026033165938213646,0.02210331562566275,0.013464231706876259,0.04934058324237254
0.030650483337903996,0.02914554951149477,0.0072076347086837,0.007802968370032197,0.025466588837682994,0.014596337123706483,0.015637545422500836,0.03893840136204422
0.033313549895186825,0.029501912167112277,-0.007663352036755477,0.0022035140770149428,0.021193107229775753,0.008149161529444005,0.010676118101274846,0.03877736422715278
0.029200082147920803,0.01742123672175343,-0.0068487078570894115,9.84368325440263E-5,0.008805016719053907,0.008001847279421841,0.010301179645979947,0.03838599567774115
0.020547002481174834,0.018597252837395165,-4.5342494102761007E-4,-1.3084212645945114E-4,0.011251665311432148,0.004164229383568942,-4.081884438202606E-4,0.03669088079419197
0.018412101115050008,0.006579830667524786,-0.004424001373814191,-0.005266487164764482,0.007938188408253593,-5.714212625062796E-4,0.002795912596015675,0.05121388519442842
0.017533107580877227,-0.010780225488207331,0.00272419635435588,-0.0022761680254052593,0.011210045745035303,0.002127393926413085,-4.1872263773258696E-4,0.05388445447790738
0.015752824184477366,-0.015198822333479784,-0.0032741759598705384,-7.407133418420218E-4,0.004911325184984725,8.290212289177777E-6,0.005410962521867099,0.022996830521059296
0.0259421474748943,0.014936813409419946,0.00127738974936394,0.011083203079178936,0.0084482937941417,0.008067693642519533,0.013020373242800311,0.04276750100626213
0.022556103810774972,0.027630115157263515,-2.858059674536343E-4,0.012181896852102529,0.010846031767800796,0.012719293807590524,0.013520916604216228,0.055976998441728716
0.029166164321532233,0.01926148130782897,0.0024552765591350644,0.018467512300914403,0.0057239494167684694,0.008609900154827889,0.01379017284294871,0.05052737326354985
0.024793487234708186,0.020399939443525455,0.005824835723557323,0.022641592714524896,0.014114292052390195,0.010275088019822446,0.013170445025107927,0.04823867146421683
0.023832729650030558,0.025579732291371234,0.0031980295290965984,0.025573469538058422,0.007173018861795355,0.015230198268958026,0.013970219099137446,0.04415988151974567
0.0268397992101019,0.028759788474572973,0.0066649531103653865,0.030566846291559147,0.011511187299483696,0.016678797448465676,0.015131566693156271,0.05227711915854062
0.02708439116531328,0.037641142130321416,0.011347555003597324,0.040064621015445015,0.01137627922530149,0.018542385846736245,0.014903073459847786,0.06152683079368257
0.034255544806958374,0.03018008069953214,0.013119155665374197,0.0403748747956837,0.015373405722758486,0.008504449447637988,0.013536470472213196,0.05740004715478357
0.031301054182363244,0.02744539910737021,0.01570278347410552,0.03234270380932435,0.007116905619911314,0.011610800655456133,0.007743937837056189,0.043254417154188846
0.033307417511086276,0.034851240926317514,0.01134435815626043,0.03160090548680594,0.012109883833665451,0.013122899089729004,0.008396272800234703,0.04709825486796311
0.03037775532653576,0.03387579719591247,0.0016799572921618931,0.031993079234699774,0.011709716528560251,0.010166291071128986,0.006236261557242594,0.051703706968760636
0.029320135315300613,0.031219358822725942,0.008922324263184084,0.03291105603130509,0.01371781837532569,0.011586786453480399,0.010004112933008302,0.039056768021258924
0.03282109591094991,0.012677208007237551,0.01929566124563312,0.030136536425339755,0.012523464829725175,0.014528003387358665,0.018021918552005696,0.018899424550295387
0.024939707804517455,0.0062842231854078785,0.011764740196520986,0.046794190103257104,0.015961762261775193,0.01896351203722997,0.025459861042233075,0.015760228576878334
0.03603721381451336,0.036787767775224106,0.01941449815397259,0.06028387922648297,0.019944682416515706,0.028414719625807935,0.03860236688985538,0.04335138785189091
0.04687240415069425,0.05668245902244921,0.02696155136655227,0.06361587853324556,0.023614340064324744,0.03368563881341591,0.03736757337793551,0.06082564025204242
0.043362843080865354,0.04507345612220406,0.037524023896595565,0.0680636059226346,0.027537469198484262,0.033115059749150744,0.04181358879217675,0.062341433228924464
0.043894938342710646,0.045756226398134967,0.04050156197895321,0.0716376967380926,0.0261064102762221,0.040374210475557504,0.044054230966812206,0.04427651746957036
0.04918590306220359,0.04820566516976396,0.0323431269139511,0.07502738448076832,0.02551535642359937,0.046060076948511885,0.047140102485488826,0.05208155843206862
0.056807225149833274,0.06231159668337922,0.04615709328598031,0.09283891578113809,0.033416809767139885,0.04977769907057464,0.0597821788329191,0.06587279332254449
0.05352044973888253,0.07368362972732842,0.04846305556842547,0.0911529347320047,0.03709928965301923,0.05241304598505236,0.057537220602614875,0.07166108343061417
0.05878576058949587,0.07257262721493807,0.05271936446136658,0.09796507864932721,0.03651831023910686,0.049874546110493,0.055168900093785826,0.06582423392928453
0.06438133239041195,0.06824423953591928,0.05542896998350469,0.09437204908481554,0.03935899127538105,0.04916772041181526,0.05359622831297955,0.05098688018903609
0.06568104432723229,0.07647923780648555,0.04080950105544068,0.09872292950881424,0.04118843564594308,0.05270000839952581,0.05648730120252947,0.057492840738821265
0.06624364550808337,0.09005175334635375,0.054266672884986156,0.10416410398991878,0.044901707886505486,0.05206250179827264,0.05260893813050822,0.07970697751513645
0.06717296675837231,0.09286719553236589,0.052867226346294455,0.10099561587638974,0.045705050617253086,0.052917180118543024,0.04994825780913214,0.07706301500817506
0.06637352432087457,0.08711089509196056,0.05109154571939007,0.10517430068168315,0.0433594233496258,0.053741233854072576,0.04932189225124357,0.06222087510915871
0.06540262360491007,0.08514873093894386,0.05495074026125394,0.09788862534048905,0.04616851602071182,0.05029362702041023,0.05248009277829858,0.05785339041290888
0.07255627385216827,0.09703310813488422,0.05014586451426589,0.10363084558832722,0.04925598668173319,0.05769167625358668,0.059220941642984706,0.07386819436680954
0.07287737677953018,0.10451720475398235,0.0549952872030411,0.10565960114366406,0.05108283684204599,0.05495517941543581,0.05319492913298079,0.08536358554834421
0.0791633041888354,0.10650908390196669,0.05353990958121485,0.10626102033440298,0.052525935578188125,0.0582732348178834,0.050557767205985926,0.08836573740039336
0.07600510040764714,0.10019189674539813,0.05770873283706974,0.10463372131421354,0.055053948904425457,0.05335881898250612,0.05343822339546352,0.06602456941285402
0.07656277597155581,0.08638641961916975,0.051360969913479194,0.10071599655088354,0.05074313852797878,0.0541055341683839,0.05832879864449077,0.0637800402843044
0.07890923605577663,0.10598527693581744,0.05418703307672507,0.11017157401965166,0.054186463124568936,0.06072717453072998,0.0625153245028248,0.07798350440406926
0.07769173455841821,0.11073485168765382,0.06310933728738828,0.10700224970018965,0.0524648657488071,0.058895465272019436,0.05615189623108176,0.09140721727506859
0.08024567603972432,0.1029266075726978,0.05974495394412926,0.10867062168953637,0.05366143025189205,0.05770339802642215,0.05857016286764651,0.07916685026356943
0.08023555735887333,0.0952873877498921,0.06897664765906354,0.10107197627268712,0.053158065752113945,0.05595070716367211,0.05783517650361111,0.06987205976289557
0.07508600499965902,0.08846217321025489,0.058048544953276056,0.1055954009092063,0.05011353974749438,0.05649914950461383,0.05619881163195565,0.0677680890504477
0.07683481007622278,0.09637415301038303,0.061424453029147376,0.10219399985458119,0.0523025064449427,0.058895193600874494,0.06715813658225334,0.07803187513088136
0.07518497965344038,0.10797757420174439,0.05439480803786221,0.1083447447733801,0.050485318390133496,0.05655453522946551,0.05988951877017933,0.09103516423933193
0.07445015833155483,0.09319660278935242,0.0541994073590356,0.0951330482667009,0.05497822397290988,0.05805064456633352,0.05948349759331771,0.08554713352645309
0.06979925788325345,0.09452765066724743,0.05068213576184098,0.09322015107958354,0.04806796680879154,0.05422711810427398,0.05283927409162424,0.08326462086343897
0.06834706174354521,0.08079162144750884,0.0525078680464979,0.09018602108416485,0.05136993085246277,0.05403345317226582,0.05524573614728501,0.059106456945943665
0.06511937488867887,0.09089777058392909,0.05115635379528487,0.08915641086231293,0.046561364127614406,0.05732173010732962,0.061149816980597765,0.06495726827720362
0.06934635825622121,0.09808149217726528,0.04698583905474221,0.09141904453836744,0.04823411254435618,0.0579293295039433,0.056214466053800295,0.08954605237651386
0.07393484852651803,0.09257843854495722,0.038897966760263976,0.0894203497080027,0.047478667824743484,0.052424534702640094,0.05450408464911033,0.07999574053308989
0.06990560734041293,0.08691210933097789,0.04614699527430149,0.08671888309665805,0.04944993645363087,0.04797287164773972,0.05312799996699661,0.05677496195865265
0.0690558183649272,0.0845614811390045,0.04883545979407971,0.08504501276151612,0.041775521223027134,0.050426025594251765,0.05327030145041479,0.047274225031827
0.06547919617260961,0.08488138056795105,0.04799965032271172,0.09007513852410871,0.045648187119388964,0.05259649907552875,0.05925234939299325,0.05687748103402315
0.0696353473072026,0.09362332742304015,0.04724911305381767,0.08674605342988383,0.048449937160455175,0.054313051369122685,0.05932103003486606,0.07400843162943407
0.06841273596352235,0.08657184181492099,0.04691000161213106,0.08190666662979051,0.042135731888942436,0.05058844547324549,0.06048939238507277,0.04614253689720163
0.06217498413418516,0.07923487413884424,0.04590500743716775,0.07987969505478293,0.04092631274243043,0.05046865046417065,0.0585008977696843,0.0376869101417911
0.0567031022030028,0.07024019115778576,0.03672480016572305,0.06804942270734167,0.038171312485497794,0.050976810945243665,0.05515727577115018,0.03239667663773291
0.062487636017354665,0.07144332355585728,0.041677356152741006,0.06588752385433277,0.04472516152936234,0.05204463215532586,0.058092251875715546,0.03746181523217621
0.05518992615168825,0.08442834662335502,0.03600735235284337,0.06829226334424282,0.04296091952233177,0.051738803773135,0.05932455659479648,0.03695194752589314
0.052351321320930705,0.07990603343387434,0.03892157676194379,0.06549514333389743,0.040999961712807995,0.05111512487298508,0.059434322036477374,0.033945846217734665
0.05442835535414142,0.06902419044522606,0.03721720168119066,0.06303538308856978,0.04255898218387701,0.04314507842798491,0.05503180954110553,0.023975620014012145
0.0511085647029839,0.07045549509124725,0.03647116049400171,0.062227768787410424,0.04231487502794763,0.04693083285230466,0.050904682383148825,0.022028434638068625
0.06024309865419088,0.08043089412190642,0.027523437740538788,0.06404104098573161,0.042033260630453755,0.04914833702175737,0.05674910028708599,0.03735702448859481
0.051730504181919046,0.08079431390241691,0.02361987608386557,0.0615685367205805,0.042196776252307534,0.04252305224432893,0.053028413692121586,0.033357873857873525
0.05254969862929218,0.077831670375303,0.02259053044171751,0.056145231477207506,0.03366540302154269,0.04386836476421496,0.051199037616397367,0.02789322948792248
0.050598214893004555,0.0689748916143681,0.023138996070494293,0.05806934272519,0.035224444516737896,0.04008840269722438,0.046255224772899145,0.027302025529812788
0.05468695952055968,0.07618990866193943,0.03364836730576701,0.059547235262504106,0.03937665711108872,0.046942926623104606,0.04806723770847856,0.033474750925005056
0.05388375365248625,0.08252341809997987,0.021711085504300027,0.05854680382640691,0.03649884216522698,0.04100132429607911,0.04711541391217106,0.03679695791776613
0.05417829089214138,0.07447672855627754,0.016543524620930238,0.05830605967707276,0.032772173379372334,0.03805415035798089,0.03635136900158079,0.036980840567472986
0.050385081518817404,0.07135308372830941,0.021633025515887323,0.05541195284958963,0.029174366774613204,0.03672300322149564,0.038563253140201974,0.030868550689443525
0.05182130832093291,0.0848248459088835,0.0223668445114669,0.05926202185140954,0.03162793501203747,0.03737589558636354,0.03524681792351515,0.031061888413607706
0.05200709468179068,0.07008935779995133,0.020511680585893248,0.04986830251397776,0.02224831463779634,0.02763013270520587,0.02831153054037226,0.022276618436208595
0.0477364420118585,0.06311145823250837,0.020099977185272053,0.0467131755435501,0.02720730967472619,0.02488469862299154,0.02612692241255218,0.01579458794852948
0.04649329010309475,0.05675485452743002,0.017946729925541305,0.04431593670721998,0.02020908856442955,0.02220982781956769,0.023286005231247145,0.007517220210466374
0.04042609235231147,0.053012116866678394,0.022858609875247134,0.04044563680763858,0.017432142819618433,0.020641855986493488,0.025745310646679346,0.005404995080805151
0.044410327924217625,0.04819762704928799,0.020089880428019683,0.04584015686406997,0.017688524763912836,0.022451884863959635,0.024697576104184372,-0.006068812134085458
0.05053387517580161,0.07059448802764863,0.029010414913276272,0.04811863136870352,0.02031156287566915,0.02599984310003951,0.027218272319121883,0.01835592245824176
0.05081506788552452,0.07136046873004451,0.022490398113225424,0.04591550914099318,0.012691738631384933,0.0209466230590815,0.026298276793731572,0.022262922607370797
0.05308997868453983,0.07005764190627896,0.02965567051026118,0.04653551603921915,0.014878736582762009,0.021861485877391416,0.017046271275166298,0.017430271490312132
0.043910146413132144,0.0726292902392251,0.021029793995676796,0.047775361475886964,0.014289901152006285,0.01563721711155569,0.018510040834925915,0.010081408259322439
0.04553813840285171,0.07204635915060004,0.01580731635761094,0.04732443924243227,0.016842199059536083,0.018626255601443344,0.021373870131516457,0.010682131838994162
0.04942710633121552,0.07774249960562819,0.02421778286398124,0.05770857476454808,0.016014871815639504,0.020797316916139567,0.01982404672716283,0.01760095655877738
0.05048123200386782,0.06692632949215237,0.028526135664167094,0.046903645595408716,0.014189557493103374,0.01693402288968639,0.01865398302547083,0.0066147807036243894
0.05180876341415348,0.06534604957764267,0.023082435327009893,0.04849213452779957,0.009235737863026705,0.014918023437456159,0.018286057089589174,0.005117477512025719
0.050662546748032146,0.0700309824270146,0.01837082824331443,0.04880694082405145,0.010206150059689546,0.015266469967474683,0.012519496552994622,0.0020796812773687203
0.05624494146297607,0.07327380481700257,0.023231555559690822,0.05495329228358851,0.014122495428778609,0.018385854778450606,0.017176059798482402,0.021084647244220295
0.05837746730094547,0.07745370797376892,0.03302185666674752,0.05112647466491798,0.005408180987731526,0.014217251881511263,0.014354650900683307,0.022452214495330552
0.06030918064690721,0.0704664865054884,0.02962087841838624,0.0526133998141044,0.007355916441034294,0.009895656052059497,0.011304822605625526,0.011332522761254819
0.053184004958714594,0.07916377445414968,0.017806792950975113,0.04941743775169063,0.007735907080352783,0.008831538392683856,0.0034819829162232633,0.0047234584167812526
0.05802120949616984,0.07682800024901879,0.03128590190908784,0.05407455202749568,0.010087761234000492,0.011707628917135941,0.004310554160832318,0.011085273026608103
0.05993482247130923,0.08499430091068967,0.031067875254006585,0.05231582481814182,0.010873655514289845,0.006745871160485162,0.0014083835270815538,0.01586082738908053
0.05779372049776227,0.07626910453347278,0.03581541189828197,0.05257733140065902,0.013901156156339477,0.00534316032231879,8.464680853592629E-4,0.002436415585443222
0.06293727089423186,0.07721749745208582,0.029106909182092196,0.04906979902904136,0.012285078172562124,0.0017675579424130993,-0.005354722092502463,0.004365764314750453
0.0574944023732111,0.07633426136512739,0.018210713240383668,0.049001323871590105,0.011343286280951848,2.3690801920599533E-4,-0.002053261610585707,-2.914025949324385E-4
0.05963557587087327,0.09692974469514734,0.027369625485522863,0.050366583788852094,0.010270701006792648,0.002845263154273545,0.003399454081950587,0.030266345825764016
0.06373325957763502,0.0918995281305021,0.02482166424981453,0.051216539591967265,0.0024788574260763804,-0.001613473900703316,-0.010040115481231059,0.017857316931917454
0.05905275949586171,0.07671065861446502,0.026552636024899122,0.049715313630311384,0.005959490666026293,-1.7314590233442694E-4,-0.0053242521209358636,-0.0021957807452021453
0.060533474118604075,0.08199069532919392,0.03010363480225171,0.04560558006232455,0.00927649257156011,-0.006356947956753331,-0.006107856616746705,0.0019124931951928542
0.06072370566348872,0.0817788246462795,0.01539725805041633,0.04525772548119222,0.007898611606336772,-0.0027119816194228316,-0.005477718907764576,0.00958751901223909
0.05916399658534935,0.09199718870835512,0.025498552636686288,0.05122967295547594,0.013648095977567946,-0.004437683889399746,-0.008519809068051063,0.012424403384633563
0.06078301420833058,0.08531701304509998,0.017561762095127983,0.0467423882630457,0.006912603223429145,-0.002803083543269115,-0.012255524070335349,8.960280363631581E-4
0.06008489579516171,0.07909026349818844,0.02589253095809883,0.040027700517177425,0.011209941480499894,-0.005592272495171614,-0.014680061673544506,0.0026525710840270117
0.06255433209625756,0.0778390281011363,0.0278544176836862,0.03805308384869953,0.004171672748941838,-0.006896276289390941,-0.010109366736163236,0.0015942151409391364
0.06451111212149137,0.09089680968754146,0.017201048743459957,0.04024463041653182,0.005740259178029016,-0.0016783396686022949,-0.010678478005600317,0.014718641110708813
0.060550588463596185,0.08436415327466734,0.009945778132575266,0.033131881109501875,0.00388574611940143,-0.00593442146244621,-0.009616113851884132,0.013794342359222335
0.057102587109559344,0.08546976822984563,0.010385427751234912,0.03344047064160548,0.004105699987893988,-0.009076098096477615,-0.014211299781477725,0.01660499616459181
0.05419295706860583,0.0743233007528538,0.006414483996602354,0.02838072052210866,0.008245515385836615,-0.011152277018324825,-0.015155776492097596,0.006067909529655279
0.06258448015642312,0.07572641119064438,0.008532050203345586,0.027066001365178623,0.00447346988918911,-0.00396841609212047,-0.010165537973790115,0.013745194152445581
0.06062588403074688,0.0846932906520449,0.0044777865650149976,0.023992939858231744,0.002361664210751278,-0.005509904136192149,-0.010933478521286186,0.014934669134189416
0.058285314469302546,0.07766728647588123,0.012261961553028023,0.01735524139198076,0.0030657437681583816,-0.008497742926250551,-0.015425017611462243,0.011350346474903615
0.054691828273895814,0.07369618139431383,0.007256856355873655,0.014029775268068829,0.00242023664683926,-0.009025012953747573,-0.018828065178533776,0.010450018729493107
0.049200829289223556,0.061684089857931244,0.0034802347862821176,0.011607973929536655,8.402260341950152E-4,-0.00954634079610523,-0.017401199328470694,0.01039997085037169
0.053881372473349266,0.07427239085828835,0.010833033379944828,0.013970494786579222,0.0074068593214981155,-0.0067876615035045475,-0.008374127683744096,0.03183867764571658
0.05047062530745253,0.0751682644591626,0.002889044723729158,0.007995476141405842,0.010003650065034413,-0.009120835533483595,-0.013479271556624478,0.020752555384494664
0.048871836658564476,0.062372380239584614,0.0012886191607105403,0.006738310371469471,0.004479362357199536,-0.011611079275306054,-0.01389017922547569,0.008926428024417444
0.05012893683388278,0.0618359395439228,-0.0018443712129702502,0.00549135983579993,0.004386333987758526,-0.007836781928742098,-0.013849516607758013,0.006698227958559447
0.0416992584817252,0.06248480010168737,-0.009406196761665807,-0.0013520101645909967,0.004087434297502606,-0.012072654951877208,-0.008940249561109522,0.008679899521524256
0.04949342530866483,0.0735196915002291,-0.009197653916095118,0.0029955039125889506,0.0019511518440075296,-0.0051253348079305094,-0.005656925231864449,0.013002301409216939
0.05229583536571586,0.07325479203332454,-0.0071975592316114965,1.1251150455744616E-4,0.006905555017836174,-0.007304632756199854,-0.004962821426653348,0.005531136578222296
0.04906354272698537,0.06606556294538865,8.778296554521494E-4,0.0026022463518272374,0.003201221379327642,-0.006233754284274841,-0.009332600744440511,0.0011634646168271572
0.0423044921686809,0.058282860474572484,-0.007990027548575258,-0.005218500565588685,0.006834513123988617,-0.00449557191410624,-0.01200078077132367,0.005598159871124975
0.04434415049516562,0.055996518942622746,-0.009099449233471902,-1.6698388788097534E-4,0.007391644485005923,-0.0014308429140900449,-0.003959347927002611,0.009622876414274888
0.052181329365218965,0.07099875281615552,-0.010773350841817337,-0.002708560431802652,0.005210542984794601,0.0037184933129513005,7.468367521689553E-4,0.03094464155984425
0.045804360480300364,0.06117525056278035,-0.001189197897816871,-0.008260421618997205,0.003168611545105208,-0.0033100904288921,-0.004896156660597168,0.022601775929543967
0.048427578087798906,0.057692121355504125,-0.0018212294700590556,-0.012156014446209904,0.0056537850130674635,-0.0077676202489092615,-0.008226324296122975,0.009789182899844165
0.04683571542036685,0.053855626141127745,-0.010317631712584896,-0.012619799063742594,0.006024665472783132,-0.007861302156531176,-0.005304754575794136,0.010532245392159167
0.04832673241102601,0.05166107913124199,-0.010858814019416213,-0.009291604652753081,0.0029228297201856013,-0.00419253388063775,-0.0016687023205504627,0.013900393291210601
0.05525133831649019,0.05888643835490364,-0.0060255503443034115,-0.005846330987382353,0.007892563935599128,2.890037749277118E-4,-0.004917260642895201,0.013054312522261467
0.04685265011342024,0.06118879020937973,-0.005962514572953447,-0.006160792056589295,0.011126753017066919,-0.004350662675338925,-0.001767647323882862,0.013410211056196306
0.04932298849737828,0.06433629541038166,-0.009509685997232177,-0.014414128276344142,0.00909333947383918,-0.006643865443575464,-0.006285923796202219,0.012085264526288072
0.04479470557797996,0.057079368172740244,-0.016416825584404847,-0.009677751596791045,0.011124974784770711,-0.0015786321343734604,0.004195917420826716,0.010782746627971716
0.05088062122685392,0.06431382059336768,-0.004739043608110419,-0.011992533802185403,0.014930029443204755,0.006224941939950398,0.002201036596952413,0.02019450570450617
0.047918818478638166,0.059661359818596986,-0.008822443072723923,-0.01059845469188496,0.009064519713304351,0.0018293040382502226,0.0017474814445392983,0.022931558232250043
0.04587265111818139,0.057290066155305866,-0.006416415174012761,-0.009194228864394251,0.014337925833485993,0.003420697241503331,0.0024804011007980562,0.026117783713910818
0.04775656152496448,0.06317284335384733,-0.022580385535943357,-0.011814038287866752,0.010882284795768174,0.003909921702624353,-0.001127634979668094,0.03773521186380767
0.041764315150579455,0.06581615302445012,-0.02512454704429651,-0.010696599834241817,0.011221163232983363,0.0023546301634966697,0.002039247178044507,0.04061298394812926
0.05097037233161099,0.0738954619555268,-0.012944638544524727,-0.004739662399887498,0.020866077918300176,0.013202356732217186,0.013085484166049134,0.03519539300140081
0.04892069896996996,0.07164567411544963,-0.0054753715586837864,-0.004081480817313879,0.014127675566715929,0.008045155050421117,0.009745621100454441,0.03628815127701183
0.05429560349138552,0.06893276020518735,-0.007541873115689316,-0.0020033789820702143,0.019631523818434388,0.006280998187760194,0.0029277713239644074,0.03482421294431284
0.0534540479850891,0.0649554640178122,-0.010204398609039636,-0.007500229522730627,0.024809744222475377,0.00968899693723661,0.004541102646551628,0.028570557352189573
0.04690621356577569,0.06708462067337191,-0.0022889602417642653,-0.0021022287925343743,0.01768791472828373,0.010993307538504849,0.00918426070444721,0.027015830820990856
0.04852893984992328,0.047631225120395346,0.0029919994219537007,-0.004047033864176982,0.01478549294943351,0.0121614864603798,0.012811302645241688,0.023538945870276114
0.04206822265932225,0.03896916626361531,0.004383943120202578,0.0014901775144042738,0.01748703803714471,0.015227086630083262,0.020076252958079212,0.007368409388421292
0.04168617551199616,0.033703980512681406,-0.008773289998285442,3.529608726885191E-4,0.020536081926256784,0.019863124724658413,0.02840094548839552,0.0063644730139987655
0.035341455648769685,0.023431389708426675,-0.006628135939008623,0.0019052912180354908,0.02749021850263318,0.024858457157487527,0.032613613374333224,0.0026238130774321558
0.04756805872107555,0.050348070896410094,0.001645650988474798,0.018478619002692057,0.0310939223652738,0.036752061440882555,0.04710423269730077,0.03037265579988066
0.055950906017046345,0.0788434664993073,0.0044433585744939825,0.029669623212661488,0.03243670497482203,0.03915466283865402,0.0453740600935303,0.04929763497913855
0.05546737893925949,0.07786702483149513,0.014520897769211066,0.0278822353050688,0.028845399743323327,0.04529636628712658,0.04751203709409035,0.03723069539878784
0.05667199825068395,0.07821442852351676,0.0010584407512235104,0.03399078981083247,0.03630672559125359,0.04762490867537608,0.052321483112802054,0.0506182610401762
0.05415085241409643,0.08432651058007211,0.003507714770473673,0.043828825153333764,0.04052365218171592,0.05175792461363596,0.05645419526911645,0.05138940385201043
0.0624546920363195,0.09581378394840019,0.015472265632681507,0.05822918441280274,0.04550953134179199,0.0611828037079834,0.06866565261472252,0.06060626519987277
0.059776816555327884,0.0942068980886756,0.01838962845348942,0.05899785200721724,0.04016309835908395,0.05906225903461318,0.06497150748666165,0.07907382339492526
0.06829360213064434,0.09926251340523101,0.022557464325397552,0.06107893283490031,0.04133366450722247,0.05948787121558735,0.06677469904368347,0.07456616063178803
0.06452581348011928,0.09401895841289068,0.022440598695874153,0.06289094177206257,0.03877321054774884,0.05956965808738432,0.06594556231629173,0.06783248216914187
0.0714616775235913,0.10795762207815668,0.030123697262205165,0.06900245529445409,0.04541831481235911,0.058147626300318445,0.06806004785244368,0.06972525956094261
0.0821785685054221,0.11907558036821674,0.040912109525010086,0.07855720700632733,0.04821774609219262,0.06214253730288963,0.0647801507012079,0.07691709205651301
0.07779961410238717,0.10766330346706586,0.04515083096782553,0.07845649140559421,0.044669464963079886,0.05258220662258208,0.06277834605621774,0.07785804869111572
0.07819742615375704,0.11533708981293306,0.04225232598135651,0.07751736962730561,0.04268193291728303,0.052682274863318376,0.05925351772805148,0.06891439913203941
0.07917430304376678,0.11441842228087508,0.038616946305295094,0.0849768216754023,0.04637750588701936,0.053169777593228065,0.053610858240902524,0.07676641452599733
0.08642916819821835,0.12988131612856474,0.04769028557437604,0.08317974027061426,0.05396231258686974,0.05974807753543881,0.05607805535918168,0.0881092595048205
0.08196478855479775,0.13970579483473686,0.04377632938750081,0.08593383096805991,0.05231702725474561,0.050628040789360125,0.05200716931522115,0.09399502240404879
0.08554892977449614,0.12438657740001823,0.05097342598469557,0.08645374526330439,0.04584812245830573,0.052249484741450664,0.04857945658512779,0.08326506821309619
0.08304286003430647,0.11951431090040873,0.0481531551987634,0.08105022610550731,0.04825585800849396,0.045987418066245775,0.04718680623050511,0.07858541079505073
0.07542624855812931,0.1187426476647194,0.037827213359880124,0.08029218703612463,0.044699694767374794,0.04849969416243597,0.04693485842757063,0.07838582120506822
0.07317104199056229,0.11109584285052056,0.03744973676631998,0.07775044413137298,0.04458718232496925,0.04828366459054432,0.0498020073582968,0.06646815322021878
0.07449144637588802,0.10542523070972526,0.041386778367846086,0.07881708851365599,0.04741644130113002,0.05017094784964194,0.051619445512335355,0.05153717900997607
0.07348482317879448,0.08916438375632571,0.03284638380523388,0.07721262164764955,0.044918686348848796,0.05658781227778283,0.0591242289360185,0.04829707373273229
0.07088833339912899,0.10325188031024364,0.04017377054149325,0.08836699416652044,0.05005470529348476,0.06262378130812886,0.06731625352783749,0.06546114724743195
0.08921137328186078,0.13662806940230746,0.04012067374217418,0.09949429547845892,0.05820696425046779,0.06869551868455516,0.06884399681422976,0.09219983345961198
0.08504414359931212,0.13267346462228083,0.047264553641247146,0.10034057196549535,0.05384681282097694,0.06597000091842622,0.07195007390287857,0.09762025942367336
0.08519278202971811,0.12976703552481958,0.0481632524684691,0.09967715361040792,0.04872460866930138,0.0689222725984087,0.07343850126390976,0.09144944967684919
0.08457112509745963,0.12422611742414284,0.05190345428993629,0.10168732026642964,0.05183238520614916,0.06404596458596142,0.06870176330127352,0.0947618250582367
0.09297747926576286,0.13078832163746776,0.054220520779080364,0.10248516824481212,0.05605993527539847,0.07096930879767252,0.0738959427062797,0.11675954645520314
0.08795012281269393,0.14176637084816485,0.053365984090984614,0.11165397813541537,0.057953295306766045,0.06611020541570575,0.07128850323600956,0.11290509936907901
0.09167169299689974,0.1370316049962803,0.05860745460144158,0.10991442756677389,0.05499171252168926,0.061395282769620946,0.06509980596357365,0.09484830290397829
0.08534657611446379,0.12616989309718185,0.059229399587583706,0.10222155700706131,0.04725141330531554,0.05778600505665631,0.0574919858427846,0.08961999538733534
0.08907177529860745,0.12351195218498337,0.05187325687195952,0.10928170964936951,0.050908565003554375,0.05884378878346845,0.059996311327428734,0.09303222784476191
0.09406427197892431,0.14383916263770133,0.05211855521558927,0.10278237337559784,0.04886910162243362,0.05730627976699741,0.052336235018815895,0.12493423855614147
0.09196717962775974,0.13853960172388463,0.05362631464733778,0.09785171215999562,0.04732918649362535,0.049059020629349276,0.04572648136725516,0.12338588718773771
0.089125288839374,0.13771580489515145,0.038326779994413564,0.09384865916989037,0.0450455210316818,0.04504660844223765,0.04050511926017856,0.10367782051261654
0.08736185558135805,0.12479164369464799,0.0434649680143964,0.0871914302581065,0.043122038000472165,0.03707599164632484,0.0357003322172878,0.10072969358748991
0.08810033908316661,0.12806617072265888,0.0351496327102409,0.08728787851984784,0.04620513925747045,0.03978058267838188,0.04098219748746258,0.11533669988248767
0.09067082701400457,0.13818479356063593,0.053947285649616115,0.08510724430315987,0.04481276176665631,0.044534704053388344,0.03365196754372819,0.11690899022549725
0.08997243301638425,0.12849613266113416,0.04459562476124001,0.08074037751286864,0.03952272251118335,0.0401078385720035,0.02778078247750576,0.10383356468940222
0.08943928783745178,0.11930458168966734,0.0411384732190322,0.08017472711521478,0.03883596304839559,0.03385566143831997,0.028654880103936443,0.09025089740600893
0.0849216217897776,0.12521427148510797,0.03806806538571328,0.07492540521821722,0.03637299872900092,0.035957358614234936,0.027152758003099752,0.09519552547951167
0.08987561251739207,0.13801074612721637,0.037342668910468266,0.08144239070772968,0.04463344209636121,0.038750272847204996,0.03189629931779407,0.11063943503538083
0.08178904563400975,0.13256483664642935,0.04604316829372382,0.07931711806335842,0.040450534520086866,0.034430427245725696,0.02322735727473783,0.09901538965702904
0.08358529361161729,0.12604389175852976,0.04515347555195911,0.07610318700657581,0.04267645141493299,0.035485943095424834,0.026683808178078222,0.10079301038771615
0.08531184878562921,0.12669771979806474,0.04535324753140427,0.07260155579096032,0.03629955393570675,0.034468188654903816,0.0259707293102052,0.0908117075046422
0.08914717466331688,0.1298297927475751,0.048667765080293454,0.08046478384469785,0.03839487467763094,0.03957914480313558,0.03012792453607685,0.09941517128478108
0.08729265248306244,0.14055737897138668,0.04479241927026648,0.0787118708371602,0.04613873650961049,0.0375126834709267,0.030033209112244705,0.10400369017101509
0.08722284070715347,0.12621024470937922,0.05373824336824719,0.07911308394518929,0.0380711547939015,0.035417066518725615,0.025954424003599753,0.10269642055634409
0.08499332536473155,0.1254585396359727,0.045797344262574494,0.07202531139280957,0.03712414552290333,0.03990994912735408,0.026657541437746467,0.10169246985643372
0.08525792212078985,0.12059123021308363,0.04588196103696583,0.07344099054814274,0.03902858614221377,0.03608059050218842,0.026920772964542865,0.09938138857164092
0.08660178569843625,0.13562203182974225,0.04281731981349451,0.07132843157789794,0.04056506387683841,0.04232563012286682,0.033134164025487675,0.11188745526556636
0.08607641833742269,0.13635042871239314,0.04759825958368438,0.07093203143789568,0.04225075068126528,0.03846583965282931,0.0275158809124407,0.1135038695092525
0.07987216990421944,0.13145832194441354,0.0382713396182553,0.06623208318061562,0.04381226644510419,0.03213896130885745,0.026219123699777067,0.10520806590148117
0.08382080409293001,0.1266764634379361,0.03176246235324147,0.061122757199630735,0.04156884928866107,0.02893445294073061,0.022098856380549734,0.09936830348163828
0.08118603759050158,0.1186139370756434,0.0460092837313421,0.060132407920888274,0.036813114966642614,0.03368190126281963,0.027997314191448668,0.10932224019652398
0.08527432663638292,0.11498374117014475,0.04150760649631165,0.06116067242078492,0.03877106510214151,0.03594664081242973,0.023771070219496003,0.14095168747370473
0.07947292384688459,0.11578918585563973,0.05055917744351103,0.050851342124303436,0.038617168212494626,0.03089318217537895,0.02746260032601224,0.12935767096415413
0.0802565794711464,0.11542364090493698,0.03824917379832305,0.04280988362065074,0.03385718598289825,0.030457783546828886,0.023442011395140704,0.11667158078928072
0.07178287935275914,0.10350202163104001,0.04158690258559228,0.04455081996501657,0.03475862192447449,0.022510867579692152,0.02047987987730515,0.11371558357221001
0.06866359139297644,0.09137096120388902,0.039700456778203115,0.039010800853221395,0.03576090031113704,0.02225238811490379,0.019280950164972027,0.11058029459299275
0.07271021041460657,0.09908985862567345,0.04783710431029901,0.041010539914595454,0.03275188930135469,0.02787687949884497,0.02232019179900417,0.11786633623406832
0.07237930337256732,0.10297748644006556,0.04557663193445567,0.040311214721769746,0.031165968323681053,0.03131452885333894,0.020063638478050476,0.12095494298578152
0.07260748675060556,0.10128947359102634,0.04850159738594114,0.0363892102548609,0.03406170467484738,0.02603324995334169,0.016886826481728467,0.12291050380586405
0.06546587466798866,0.09056496421564113,0.036595179168846914,0.03626164195315927,0.024731444453892176,0.022516728146053433,0.012739599347768613,0.12501664441001367
0.06512966104501497,0.08283304967728287,0.03871532908234585,0.031098563281493196,0.028199577866172186,0.021955943520828008,0.016324400641619063,0.11609221699897682
0.0580492851402009,0.07007641011787866,0.039167211896836,0.02916166899705804,0.03013560377498549,0.019205240890193816,0.01355318126025231,0.10281796744347582
0.05522184825399074,0.06100746590317829,0.029059709991794438,0.029734277056169982,0.027659309984319286,0.022825324688364942,0.021381724953417575,0.09672340494623041
0.052750925628884615,0.0584489141825878,0.025501015067817392,0.03630922811661985,0.03507231086915413,0.029701483460940953,0.025559473021790905,0.09431523370434763
0.052495742390307146,0.04806527742331606,0.02658184888140457,0.03430182310805383,0.03192368694409143,0.034267074888562246,0.03471069011240194,0.08848221251731614
0.05425410699185927,0.06518165453750338,0.031011922426775543,0.04160102523513781,0.03535670842419698,0.043508760582718665,0.04227456664959753,0.0933057808300955
0.06281313606655659,0.09123115693709234,0.02843847859668652,0.048129543164934355,0.04304037599735143,0.04795530714056828,0.047138851076920334,0.10722302023990203
0.06170045074130567,0.10055612525152835,0.024106580434746092,0.05402446429489849,0.04348908774124686,0.052479557387671044,0.049601152844331524,0.11523287020571073
0.05896535849051027,0.10150696373181414,0.03306321713759398,0.05308597760504201,0.04019288384328821,0.053896176745372906,0.0481096266025484,0.11954189885266672
0.06198823509075823,0.10021815662728019,0.0313788217091195,0.05295260977838072,0.039767489932397454,0.05633719060565286,0.051840078753028825,0.11730880083601543
0.06628986437387509,0.09829896670084405,0.03175111812943599,0.06092775531441296,0.04458973965921818,0.06162706040984802,0.054193678108027624,0.11874387672187604
0.07226718118726486,0.10388351144392474,0.03778784221167218,0.0629479339270001,0.044025052729888006,0.05494482196310618,0.056176938784850625,0.11961224108429258
0.07094250534467465,0.10736363562242458,0.041618070281179094,0.062006533954796716,0.040540475619732945,0.052063681329857885,0.048096155144763564,0.11139410575198733
0.06664462756662093,0.10596270619292776,0.039630700517330704,0.057289714951942565,0.03699352435710383,0.04545423339814128,0.0437658056914968,0.11476668314959214
0.06190828246148987,0.09268699879508029,0.03897063402181035,0.056265952909167305,0.03854130560037985,0.045099968960943454,0.045817970667383114,0.10203174960649607
0.0729248660430982,0.10897819940770738,0.04526444444730256,0.06392257246830828,0.04584926785241187,0.05077620845971188,0.04791135644098011,0.11057639187304971
0.0688671099114767,0.10910903090507415,0.054157150369813986,0.0663460810609796,0.04596316000332059,0.04757794369448355,0.044040738832162266,0.10512695596011373
0.07219460298181996,0.10685004072841858,0.04477817689592069,0.05991557905771575,0.041550784817220965,0.04172726515189459,0.03870973427891037,0.09538952294266666
0.0682885114623082,0.09971961280549636,0.04336033109150942,0.056720960692184644,0.04154340922090051,0.04225441309162792,0.03432552035567742,0.09468718780867055
0.06528424332414454,0.0995798253471918,0.04720755736916758,0.06222561530636294,0.04222068738917182,0.04677123181936086,0.04256231286529635,0.10256197360295673
0.08024596702606163,0.11120990330877953,0.050063789596625274,0.06183439565200405,0.04307898183262502,0.04747561956453803,0.04636468977545699,0.11089442052860383
0.07548554831820074,0.11243784851949946,0.04846741229576324,0.05307484158013087,0.04191729112563411,0.04137510534763744,0.04021700311791734,0.1003857941414707
0.07538482722871064,0.1168052418213782,0.03542963515121868,0.06024901535576034,0.04351939362518933,0.04311229099335004,0.03850486701807641,0.10286719855690073
0.06755647760755223,0.11395617179991911,0.021051384865321994,0.054466937829747826,0.044534572255094725,0.04374092435715579,0.03512792782204676,0.08697775139656813
0.06808810049099594,0.11368182075222988,0.03429531320432001,0.0487798129634397,0.046174907333426336,0.04887704439798148,0.04107447182000016,0.10007967132456337
0.07316493670779817,0.12904247033443564,0.04258428811369572,0.057895421276051955,0.05036241271687885,0.04585262022486965,0.04226875207154484,0.09294483020111943
0.07509226051451084,0.12623269144656693,0.03702884787513129,0.06125065975195174,0.047502930595345876,0.042350269714278396,0.037486279890956244,0.09372067316688242
0.0730738366180053,0.1190941852920521,0.031074457842485696,0.06365506701214756,0.04389010867186492,0.0383836025665731,0.036123340184064226,0.09085115418998886
0.06969258514501386,0.11535311649262209,0.026575570242913394,0.060994971892255216,0.04606897506516245,0.03470712435792205,0.03756871376476994,0.09270617571863954
0.08361411615968739,0.12883334034900026,0.03913648453235472,0.06761493701283255,0.050730907051901884,0.048086531129467605,0.03880536265786105,0.10636829377085098
0.07826993977685182,0.12118455473976725,0.03993496233997388,0.06423286179068652,0.04506700069850538,0.04105238493944035,0.030999343922698416,0.09882350946224715
0.07574980609410699,0.11486459782877496,0.041624747069983446,0.06447481168487089,0.04387137489108802,0.03354314894304873,0.02460674447504842,0.1003275505482023
0.0770445219957031,0.11690575812032097,0.04085078410779749,0.06189123654390966,0.04446156060658303,0.037009685361952045,0.025415340149277762,0.09992779205596466
0.0796876016304482,0.11502865882756474,0.04568066116358127,0.060772140773724684,0.04512878796739922,0.03752897835152526,0.025550878480248968,0.08827635982391067
0.07704596144944678,0.11319651570828526,0.03729171063352096,0.06350538927028693,0.04176861911526978,0.033360961703880275,0.02132158029523446,0.07825989279413999
0.07213113418496982,0.09266700395074329,0.04280064768135016,0.06086429412040067,0.043443513169649554,0.028237740986000372,0.021603706683814578,0.07524105611585086
0.06637104678346645,0.06490655184172618,0.05064521547184826,0.06206307056799615,0.03623678165787536,0.029790696352488818,0.023557396666227377,0.07337475136975947
0.06854755812336072,0.05833006718045065,0.048022395479417085,0.0598966149552283,0.03896688749911163,0.03233167559101816,0.02631501284096579,0.04941215771534642
0.08026079588351691,0.09244558271679874,0.06137667852729449,0.0759806473559198,0.04947549218526827,0.04250215444709541,0.03861136641860262,0.07121346656531535
0.08546938872820625,0.10086064212373101,0.06850057828587053,0.08065310341782043,0.04727851862476133,0.04049918186689183,0.034708472156002694,0.09957482202476685
0.0825602984176697,0.09830038855230276,0.07270847019450039,0.0812602390148012,0.04286551646044744,0.040912638866852306,0.0280028911523852,0.11695265000569495
0.08120610126161924,0.0852389634278918,0.0739855775222462,0.08062149821170712,0.04308405973314106,0.040709425295282105,0.022078625817784345,0.10262841088706408
0.08173065147887203,0.0892192846496895,0.06713286383234475,0.08062674113180691,0.03882748830490964,0.0378797394224056,0.034232098642656625,0.0877804711903492
0.0850343218509604,0.09776587166093635,0.062469928191586505,0.08980288443512986,0.04208631377619414,0.03820318138674518,0.028243239236241915,0.10122826163010745
0.08201760505612223,0.09249955537814016,0.065821365687408,0.08879361036617228,0.03887743010847595,0.03520620087324797,0.02690153446030938,0.0972817616650628
0.08162905376388764,0.09365041744849928,0.057743744517860504,0.08714560733218625,0.0359488291348353,0.031725299651474255,0.024080819255134684,0.09612824841071689
0.07791718514056188,0.09867065642579888,0.06443656810203535,0.08939736524654517,0.041924981762091154,0.035871443160042774,0.022282840190587468,0.09888086016074712
0.08739531475823478,0.11386387890233968,0.07280877911819716,0.09484618629326245,0.043302126096818376,0.032704445702976676,0.023559127593098375,0.10599946198216303
0.08801119972139577,0.1116798891493995,0.07516544149763574,0.09607702587569132,0.04101779836783548,0.02933173439456141,0.015779691745237617,0.08436561699680627
0.0846272664885163,0.10172132781807937,0.07012296472824289,0.0968185083116394,0.03716912035079514,0.0258646745808968,0.013020857070091733,0.09236114705241705
0.08168115647719001,0.08393721222095721,0.0774375710586517,0.08994972435305515,0.04134743918665626,0.027708278255541962,0.010899414451899486,0.08450209255055259
0.09560187017059799,0.0863395831240752,0.08714961219172394,0.09142667190344156,0.04095981402659699,0.03211697940914156,0.01261558873106607,0.10322922322998357
0.09317443779385944,0.07316584507411009,0.09309069706624654,0.09529889173284795,0.03826676847053975,0.024694229709151718,0.007418070671595738,0.08933751595298159
0.09237223380480825,0.06444250209820972,0.09836555584383926,0.08848072549935954,0.039006951792261435,0.026002162658029546,0.0070950300935231905,0.09585175501368018
0.08854880247966661,0.059600846376343594,0.08472196873414864,0.08510657763874388,0.03822626460801327,0.02492030573032402,0.009096790589147844,0.1017536828915374
0.09066619538380466,0.07752275152421946,0.09415666836501022,0.08264522910767812,0.04144766455487167,0.023828166751179526,0.0076709313215026385,0.11324391382027117
0.0879827002005371,0.07050953491669862,0.08542771863853323,0.07759200626465768,0.040595377986182964,0.02118721692256655,0.005127343861035775,0.113746421183663
0.0869703608578901,0.06792819253267028,0.08617608001935814,0.07409537750305822,0.037635926352139686,0.021253852346707916,0.0016047360158306845,0.09391111707540836
0.0785589989528848,0.05441533176779966,0.07600126121205278,0.06746186691215922,0.03558297273063778,0.019118587008880954,0.0013110809614475807,0.08723377509326032
0.08773127990946102,0.08055339966177494,0.08277929879385461,0.06709960295053366,0.04486237279626525,0.022245047686176064,0.003917445431586224,0.11543497083902506
0.08433276077740319,0.07640638901827201,0.07304847942455851,0.0624052716337723,0.03765757563202861,0.01853391399356387,-0.0021822227280462944,0.10580589958281071
0.07511893419128758,0.05993766695118962,0.06679646937476927,0.055270401031517334,0.03386836518892663,0.012152760147995928,-0.006484210424322562,0.09484208112718447
0.07431036991143934,0.0490197722181316,0.0739108214450764,0.050195854895357245,0.04155376080157471,0.013664438514941719,-0.005579196839900647,0.0869616427545127
0.08222448300420483,0.06981277964026854,0.06707954724418204,0.05692678115242975,0.03981701751001235,0.02043467201618131,-0.0016992722368318574,0.12058356680513661
0.08040959727686091,0.06844424105316034,0.07153543546613851,0.04538445345784606,0.03838638204292035,0.018253479456454152,-0.010253760840132525,0.13112629823914201
0.0726137036996765,0.0720009853951637,0.06390870774091785,0.037691984424764145,0.03999877608572503,0.012878336202401456,-0.007533135113989771,0.11423901301608946
0.07428961227154532,0.05943307806689458,0.053329975938100585,0.029014052714818415,0.03326624297126855,0.012477656363071169,-0.009929708349163006,0.09313369142663629
0.06529376404567158,0.06684649787208236,0.049413244573423006,0.027622713269152627,0.03820905560504903,0.015195197949597315,-0.010882857987850663,0.08495977491873694
0.07675959261527017,0.08098938064305863,0.04883688569358096,0.03066513939057261,0.04007165650863071,0.014267021827567594,-0.0035776815621972277,0.10860525394771285
0.07182068165836154,0.08168349604541336,0.035885213500072025,0.02173292712543264,0.038815608884917224,0.012874388252023979,-0.012219046603494004,0.10755979606814572
0.07108076832734132,0.07922292796099856,0.03246960594541771,0.021091105518241355,0.03278462061193601,0.010234589801280662,-0.009963854702057552,0.08494854383795741
0.06453763927322757,0.06424961940938217,0.037893477944288816,0.0049363043038917155,0.03413851081979657,0.010694322863776827,-0.007796811253506397,0.07146478137590744
0.06283784145446744,0.08050655986561833,0.015170833398097204,0.0026814895707296155,0.03457177071735133,0.013476437580446556,0.0011901812664212308,0.08184056089989865
0.06708074266388668,0.10246594707797288,0.008680838914282339,0.003486670165048756,0.03628564229627542,0.01928212803054356,-0.0027435449207388815,0.09596526935158348
0.06329924993582112,0.10908346179480588,0.006664382706801544,0.0010303165484200469,0.03368972462427822,0.01364362950472749,-0.00861299370081687,0.09755576898592055
0.05323261858067724,0.09536540795159154,0.003932623238322863,-0.00822378775496409,0.030410214125521202,0.01311912063327966,-0.009324954040231344,0.08959709706766203
0.051361487455587794,0.08181838562504411,0.01102927443417416,-0.011329612840975462,0.033563843925966945,0.013261659233112205,-0.005444441018097827,0.07414847611199578
0.056834757175625715,0.08932202099196487,-0.0016046147060407715,-0.010725939592325335,0.031624728999608845,0.01813265234743003,0.0013144200613947896,0.07869239593878605
0.05903741827550459,0.1046407419846816,-0.006146470763756825,-0.013453415746982732,0.03126714293005561,0.019737882437162027,1.675718165640532E-4,0.10353346046456913
0.0571323520157644,0.10431506232246444,-0.004915187210164461,-0.017173518961038983,0.032088583258446664,0.024340587342743098,0.004774148621429284,0.08787845276188216
0.0525887107761624,0.08686692809980957,0.0018883143513291666,-0.020248401294716604,0.03042804811169202,0.020879306032910647,0.0019946754840405034,0.07940202521776944
0.051503525412217165,0.07621154864250235,-0.004539656789208883,-0.030830997500874143,0.031676544855493094,0.021370349404524067,0.006042398042288103,0.07837491385898472
0.052634520349835026,0.09568839978735329,-0.01461020762931987,-0.021492967494445188,0.036668522028717634,0.030954362765865405,0.011970111328256981,0.08865104496955853
0.05630825399160185,0.09535572639182312,-0.004389307725226439,-0.033440225026918624,0.03633974900110451,0.03504359325336341,0.016020823944884573,0.08441749660822483
0.05826697853363543,0.08819284799799847,-0.006507343137958287,-0.03486852224702285,0.03742910504046101,0.03266105630200756,0.018913538483151953,0.07948354809523357
0.046678637544413835,0.07822061142110472,-0.01665032982131573,-0.031022049191853196,0.038495028982488105,0.031174043446793975,0.020795070419290858,0.07286614327492646
0.04512861048407609,0.07548319629119023,-0.0183846135328985,-0.0364481889858349,0.03638538961617052,0.032910373384700924,0.02381626328364097,0.07265343341243498
0.052493786949805055,0.08360441424397896,-0.008609207929228552,-0.025833073792896132,0.03948498837545978,0.04091404057499535,0.034266763452291765,0.0862416233080825
0.05119662706414508,0.09282921809590954,-0.004898988288837147,-0.02795188258961505,0.044128379641425006,0.04564095770725092,0.03554396705605526,0.09794230916489138
0.047772533153787544,0.09047672250539346,-0.0199918595592483,-0.02835897409014257,0.03896085474519247,0.04637079190862681,0.03467737487379804,0.0924433670134977
0.04755059427697386,0.08726504288199224,-0.015266232647382576,-0.02747563260334657,0.03943169772268515,0.04775308839663151,0.03209473029000589,0.08367593568915507
0.043755557334505986,0.08050024292107831,-0.021135169799109375,-0.026442550673402846,0.03907502150669871,0.05013168178300688,0.03694559586132299,0.08110309269475915
0.0479425754071798,0.08671352122485114,-0.015904174870230613,-0.022839140409236416,0.04562541900549511,0.05286203621707193,0.04761520107262145,0.08137775815281426
0.05789685490969126,0.09723707518013316,-0.007695026877209545,-0.025503731497863422,0.047452002966507326,0.058582816336076676,0.04904824486099004,0.09085463894733743
0.05349239479631131,0.09364706060270504,-0.013244590693022773,-0.030170856080543373,0.04324951043061895,0.062177760785871214,0.04968915130628691,0.07977779014576988
0.047824151514622715,0.09202737117692061,-0.016838411908080008,-0.028432950385581492,0.039449012530505596,0.05628541704996058,0.049239060300957975,0.07628940097835049
0.04799565945424274,0.08757731735769844,-0.006396030024019421,-0.02546723302609645,0.05022678049141852,0.05754958990997652,0.05344961300214264,0.08091579939098821
0.05154130645275038,0.09576103752792818,-0.012738740393382325,-0.015825664945740687,0.048346867752233305,0.06325981441016434,0.060816014034047364,0.08178619735902079
0.05530965008101483,0.10937967210454258,-0.0021116914613500165,-0.009270556381587853,0.05076107252629588,0.06471971374519121,0.06585535128129852,0.09142998231945945
0.054075550970306085,0.09963726141171635,-0.004861035734453509,-0.011465175914288108,0.0514312406069951,0.06873146170224088,0.06393564374229913,0.08960417588876947
0.05016446433534912,0.10391241436716453,-0.0055109593130986,-0.008357637099433006,0.052281555914770336,0.06443735694225164,0.06286786428327237,0.08411512457259157
0.05205054094213223,0.0950001793706723,-0.0017297421180599076,-0.009215871713850639,0.04806335359306725,0.07040104438319374,0.0610107655150396,0.08233324798380807
0.06052054933750816,0.09826942675602691,0.006544974673951365,0.0042736558713530335,0.05451044355323568,0.07584558706672691,0.07414299678510888,0.09272401973023252
0.060938928842510245,0.11579822018560487,0.0057726599442859145,0.006052031593595349,0.05591097385351089,0.07695206215989014,0.07189748749847094,0.09274461407402641
0.0651516789181102,0.11652958959225333,0.01099282844078037,0.010077892371244512,0.055641157921343595,0.07553082491531957,0.07074422259733205,0.10004596402647975
0.060349698266762876,0.10426562867158483,0.0063441447081945485,0.0038184988222116343,0.05628083275147768,0.07588074553823665,0.07526125456915464,0.0917532162259502
0.053896536214066364,0.10018252294864806,0.008399436519183285,0.006453063717972939,0.061495005616032716,0.08188085580576482,0.07187889030282961,0.09120787901136071
0.0655623679491962,0.10887498411103513,0.00833677371310078,0.021711611033141186,0.06377122134134901,0.08731791886230175,0.0855561916659983,0.09563505985896197
0.0668796737728491,0.1186626208385885,0.02924268445078771,0.02760778529428958,0.06565961713579513,0.08929170424969367,0.08335238760456003,0.1021851534053191
0.07230038536944479,0.12374609231976504,0.015043133599302282,0.02823077476262087,0.06678906013377695,0.08645469566950154,0.08386377413380539,0.11196907170734154
0.06371281522007413,0.12288623751187558,0.012081298929890513,0.03253377101076659,0.06138215862221538,0.09423846952233524,0.0798322545585718,0.10431027293206067
0.0661376861069309,0.11888788263423075,0.009646107149906468,0.035675936304789185,0.06671122739608926,0.0931850086069197,0.08870458890407318,0.10940809427384209
0.061385518662677684,0.10999398971572988,0.013022056946195654,0.03821497788442263,0.06644381896185722,0.09167264532053222,0.08896004548934595,0.1010721385652348
0.05252988311883664,0.09787642732690295,0.013135532442674727,0.04009735886880479,0.06625487963626213,0.08888930604579984,0.08884140447585792,0.08403188644710012
0.047855242140135944,0.09043378900844616,0.006336105581133989,0.04003211655495168,0.06901717961167884,0.09591570707658019,0.09451186621066414,0.08531331208609773
0.04696945079381859,0.08318468325759441,0.012700312881420922,0.037567395176672264,0.07264920007603741,0.09840111408885936,0.09872698851514507,0.06985441401526307
0.04160798616526467,0.06754812717464342,0.01588755022411195,0.041423974798748014,0.0741172487416475,0.10715565724432521,0.10912538382964261,0.06186708859727718
0.07072466879477637,0.1292017146005151,0.027744106943459138,0.06852161047017505,0.0726027246315687,0.11765975600059522,0.11464631824292255,0.12207114249458502
0.07062852421171732,0.12983397168710323,0.02570717277761389,0.07152925872767965,0.08287187466183141,0.12088171201358912,0.11883171015009647,0.12584446980026084
0.07033629526579284,0.1455832354369422,0.02978613081345335,0.06982866793445613,0.08263448234689597,0.11930532235601708,0.11928137955624811,0.12805097014736083
0.06480371120863312,0.12758785089879282,0.0312196363620942,0.0776285432971704,0.08313385842188996,0.11934083198472174,0.12655637485657567,0.11780427589754834
0.07439289629054677,0.12099182649970695,0.04281270017810269,0.0899091037009088,0.0860483346795843,0.12516314529747977,0.1314113003683786,0.1157768764551295
0.07965476359103715,0.14438874109198846,0.0501544571048321,0.10310561930101605,0.08895028303299699,0.13249143642176303,0.1390923939107688,0.13185592541693708
0.07815392508007901,0.14769600498988344,0.047482928987460774,0.10147431439664521,0.08626710084847666,0.13048160067455325,0.14062435493725844,0.13165459039345373
0.07572688781889522,0.1474298737359495,0.04182141199778613,0.09912114205404338,0.08922972025563584,0.12900118754080755,0.1354454652225111,0.12141174991580679
0.07149896928851632,0.12753255681319725,0.04629845894984404,0.10110485605462745,0.08847063837535539,0.13000708153778648,0.1354952957207695,0.1151341515420053
0.08602513860375803,0.1485024738108069,0.050215573148898345,0.11194438887752729,0.09182472536204585,0.13616224190338022,0.1412330093399934,0.12573331664742812
0.08923027999756482,0.1609010380289439,0.04803882236717011,0.10630586314325109,0.09201279928000203,0.130217858177166,0.13440282762140382,0.12761777533964266
0.089739340120023,0.16020764277289462,0.0410674345122003,0.10144491648984438,0.09016309104668266,0.12619726319912858,0.13133712217392565,0.1344623748795322
0.0795156971157165,0.15838776588497147,0.04118382699615851,0.09811804060068718,0.09042757785543223,0.12309182302263887,0.119604204839421,0.12120960258940468
0.08326319583383819,0.14870157453801255,0.04588172060511115,0.09704895018618172,0.08665309953657842,0.12059302313411337,0.1300724310682849,0.11710697244139429
0.09207164192723113,0.1702581701543956,0.055195701746208296,0.10064880461103377,0.09116523778663956,0.12164865830671942,0.12429161680682732,0.13069145428366874
0.09367842283987901,0.17443463105880286,0.04705322340076232,0.09851619146023083,0.09009849471025255,0.11857231668855148,0.12208121668602549,0.13461775254437333
0.08669221056202214,0.17713823533145265,0.043810131731983885,0.09109173228348112,0.08462819165969686,0.11612899254131104,0.11237736028820249,0.13477072247153318
0.08773184589230022,0.16668424935213988,0.04011142681773898,0.08862121813974007,0.08689519417835817,0.11187310242009575,0.10993103983948384,0.12070597461426677
0.0931823259387391,0.16446311875937364,0.04581170961962868,0.09551423140139655,0.08835215463402736,0.1142954694039499,0.11358727795424971,0.11751760145517386
0.09460812302967647,0.1753419370053441,0.052765085622722176,0.08963384844271316,0.08583630317861635,0.11384675426926927,0.10799578977212324,0.1278516684668046
0.08694518825043938,0.18286674858706184,0.03918647617679551,0.08676721304769729,0.085572306616535,0.10598689633250095,0.10457125946898053,0.12991418412857084
0.09086717963218867,0.17393834197981597,0.03588722764039999,0.08245502496810075,0.07928829533416457,0.10133140481902077,0.10203419887730067,0.12135271376209888
0.08729855699266387,0.1639412455536803,0.04424007677481199,0.08543422476118123,0.08460000110627579,0.09907275189059217,0.09555991674848814,0.11255999689216241
0.09764142383853824,0.16616928150391433,0.05014920521666717,0.08665985451037146,0.08413664382702024,0.10124001994151707,0.09485822678929616,0.12229836067870947
0.09915272128665648,0.16973029079853008,0.04457599809865946,0.07789544511404016,0.08028783975454366,0.0949708566988902,0.08906289729684114,0.1175787829907217
0.08783592411031431,0.1759989266930234,0.030805395160752515,0.07203237643774917,0.07951770238643045,0.09236491153615677,0.08161642353059056,0.11473323304453568
0.0856722564240747,0.16794447554258057,0.0220312624327787,0.06656697034710246,0.07416209720506778,0.0892324415308765,0.07931468918873294,0.11606949423263008
0.08510971634448294,0.1553348030384611,0.02564507696352877,0.07387475303885255,0.07371876665986717,0.08447726604108417,0.07760018316790405,0.10271704709818646
0.08933180320362007,0.1687745474762531,0.0355513680413148,0.07238952574008556,0.07273455217512124,0.09015023392702992,0.08073526428655181,0.11665204318908981
0.09447086082623499,0.17315050335323168,0.031391569560146035,0.06355433661202879,0.07339147374694102,0.0819287121243976,0.07698718126068033,0.11202988192161499
0.08346439005148656,0.1711126083894814,0.02336683365327134,0.05714623773747655,0.07105109626436118,0.07917220015255022,0.06734441398526284,0.12862908618176172
0.07314719033087749,0.15686313733637394,0.01984369839383425,0.051947843671110376,0.06840080708855548,0.07440045452653217,0.06472688441694435,0.1110706728859557
0.07908304329715789,0.1485758056499735,0.024696132734864186,0.049249172162921885,0.06609096744702808,0.07347094071461813,0.06670332858484954,0.09855464554413718
0.08591332371672897,0.1701248872205216,0.02583727711713087,0.056111181821953966,0.06450329193357728,0.07241762051214248,0.06498984999700633,0.11284984147118604
0.08090226049512014,0.16750967227314653,0.013585676611237031,0.041307613971478356,0.06141739205191831,0.06944332281419424,0.05878491119219993,0.1206804297660456
0.07549844282771508,0.16404040725908145,0.008704766149300663,0.03998903841845846,0.06064553306865682,0.06676402370624367,0.0603516058632864,0.11793568127480475
0.07735574864763213,0.15517645244865852,0.018305806686076648,0.03517682884174736,0.06424185288174075,0.06368877812525697,0.056083274010769804,0.10304872207857117
0.06974027815578447,0.13734273984452489,0.011298586003526626,0.036282149214547366,0.058476563944901354,0.059389040622931044,0.05788259229424003,0.08675490288815298
0.07644474604715916,0.14667687369258178,0.016848355804619432,0.04235686561484015,0.05873890458679321,0.0676914500294573,0.06007126984313329,0.10699318835051187
0.08079263305957454,0.16106761765906022,0.017628621562089043,0.04526010222065095,0.05719680829537925,0.06394206667179246,0.05551456071176502,0.10651289595975055
0.08167606179637493,0.15456504296985063,0.010533274486602039,0.03501654865909352,0.05677475832814533,0.057624364056488776,0.05190204059064352,0.10737813312250608
0.06196917294119385,0.14676850140362982,0.0043547592731648065,0.026218080009749574,0.05571476536827958,0.05205187148134813,0.051046996692926734,0.10155014010833667
0.0636283549958998,0.13040392756132926,0.0053127079484206466,0.02611704006513674,0.05437852560359546,0.056730490081641036,0.048580481272000396,0.08799918405479745
0.07320159845638745,0.14929230472447444,0.012405531675020254,0.028671283589811046,0.05801693016685689,0.06045806950961559,0.054197390741668544,0.10594416712694511
0.07367073429050149,0.15888963052351476,0.011163981043915128,0.025885872232011206,0.05312819684487505,0.059363855569213135,0.04759636244341497,0.11628619077386657
0.07213447178976747,0.1516345069569976,0.002932875203278283,0.021269271380646902,0.0517108093713095,0.05303711165194103,0.04709098889931251,0.10907102446657972
0.06899475648539939,0.13418303862195993,-0.0032387248105543946,0.021848729956142572,0.05191438555110578,0.05248921974549412,0.04581371052587691,0.09503123828849315
0.06352024842262366,0.12829698283914934,0.004130693506297546,0.013727509749407993,0.0483523346808669,0.05325572508238976,0.043352027625195674,0.08348059064930055
0.06121765940616679,0.12542148179091486,-0.012429651321606271,0.015032117375312525,0.0496514468636509,0.05232917802335048,0.046579504704131254,0.0873826087044397
0.05307504317029928,0.1124419777262101,-0.008989452402859791,0.010546196285912364,0.04776627198929692,0.05496582347767296,0.04723101998796739,0.07339338923060837
0.04791376059756031,0.09653717256997849,0.001166954590265397,0.007881774708743778,0.05192531061365158,0.05090881666731048,0.048691614323269745,0.0584412139742357
0.04589431061331974,0.08146407141876819,-0.009387254809329637,0.015114757749129954,0.05112697922231208,0.057422089538697894,0.053442663910632446,0.05004757747447606
0.045597294837984075,0.08620417876167867,-0.0056294276258323445,0.0158167301127631,0.054557666393743716,0.060390232607873,0.06785427294892575,0.04834933689029767
0.07239271837669889,0.14672584850798395,0.010563958619208579,0.04025574202892858,0.05854894826516036,0.07593633244340482,0.0783687626221439,0.10284260695448694
0.06939388568136172,0.14847099937995087,0.008494950740868866,0.044890980974380414,0.06104134900022212,0.07588911160138424,0.08040906804160244,0.10429354318151039
0.07061490347559307,0.14417406195078025,0.012470421760857938,0.050472539064878905,0.05856982595745167,0.07697612681715599,0.07576097933905933,0.09662194317814116
0.06369069520310316,0.1326130204271337,0.01626180880696219,0.053036099426913445,0.060831444906784785,0.07180855673423295,0.0786780589631122,0.09331316748504641
0.06719094165155418,0.13523148979118652,0.018232774008023183,0.05690099608610157,0.0655656577785704,0.07736035273391248,0.08308650175435664,0.10081026812248824
0.0825841601738481,0.16016835143784178,0.016316784637518306,0.06805629204222673,0.05985982629665807,0.07885362165755358,0.08609947919764771,0.12071372770850457
0.07712368657373304,0.1599623178700492,0.02055554170709456,0.06084486156181825,0.06555777767693795,0.07883931798966624,0.07709188827942215,0.10588463012848293
0.07143776541849892,0.1516613570696742,0.03239763463229873,0.06379445519041198,0.06060521981982869,0.07413241087489178,0.07586525401061035,0.09670394813310201
0.06878022939388323,0.149465483062571,0.021488257276993085,0.05899859468064571,0.057504222887541215,0.0715476985789195,0.07302376986377206,0.09033257119132326
0.07609306253476303,0.14850783922463826,0.01695412917325801,0.06174321816150521,0.0637137147396674,0.07393726572688047,0.07344797022673549,0.0946255368547572
0.08489010474433292,0.1690835011089345,0.022665414818310827,0.06725661571854925,0.0655997027968968,0.07513661870387489,0.07335511172165508,0.10958312252265967
0.08034289370967362,0.16719111818653581,0.03827674752501406,0.0648102641810541,0.06589452937798947,0.06838845789467163,0.06403469560576064,0.09847442457005566
0.0843583854985591,0.16029995063572602,0.025608303795847904,0.06211501232571628,0.06062534217164783,0.06147781018540547,0.0620468693802714,0.08722556265301848
0.08054376202780933,0.1517035627525689,0.02128417427664714,0.05599670075624964,0.061981472064866046,0.06015936840912738,0.05597741975249222,0.08779182781747116
0.08280119327596341,0.15381452028118117,0.02678957632788262,0.05961608324756081,0.05917920997133184,0.06296337687185292,0.06178721267343163,0.09274950210189833
0.09263550122614159,0.1709477579570617,0.028706544630163637,0.06420412932495397,0.06229287645448097,0.06613620835483915,0.0585638181015098,0.11044636284102118
0.08984764504493539,0.16238780197764827,0.030444055217822973,0.055169365465329315,0.06133676195241424,0.06036652986631787,0.05284752064990276,0.11188170607689349
0.08497132066627337,0.1632130756486729,0.023869696401955305,0.04726597767937787,0.05597114778750282,0.057849925080684005,0.051123978172049826,0.09615586121176292
0.08033834531214329,0.15364402318001064,0.01725843944237684,0.048085260777160126,0.061877684646218865,0.05654674075197926,0.048672059317355326,0.09908824890582531
0.08079654097298596,0.15889766065614194,0.028280157207374555,0.05358440990251762,0.0626501185250747,0.057522407248629955,0.05466859133101054,0.09803363304760124
0.09331166463699925,0.17206010237587502,0.02943461905504751,0.05067168291777633,0.0615023058762394,0.05898687821280656,0.05116445973934372,0.10396385346109893
0.08621862742937096,0.16239515931306453,0.031143903720894296,0.05076964909022157,0.06253533807514165,0.05616166603633164,0.05215412541937207,0.09853842282846759
0.08349481144207793,0.16159374411115093,0.023145553635264052,0.0426667439244209,0.060397607414691454,0.05026940934700086,0.04606083978877239,0.10167534295766822
0.07721902876537826,0.1542721304537939,0.022636706545153835,0.04445124550853241,0.05318221359191299,0.05211370215912923,0.03992965586733378,0.09521624517241836
0.08169715965528385,0.16726813900996976,0.025057664693083,0.04270276559221275,0.05793233594816052,0.05879456592152615,0.047707212304076395,0.10152696055438942
0.08578362338878327,0.1658540716075554,0.021309550217767603,0.03965912544005197,0.059370986914231885,0.05298955346252963,0.04381863932503154,0.09616307064006333
0.0784876507481908,0.163763382636112,0.025455874413156193,0.031989390542528855,0.05866948323437267,0.04574873449220538,0.03552860756147336,0.09235963441608204
0.07644746629118479,0.16177384669921477,0.011932219384737295,0.031598081460630534,0.05809111148469713,0.044733983758199605,0.03316513407598952,0.09902521942728897
0.06957390604779566,0.15289845762429016,0.004896849372607305,0.02514023116886472,0.05245538550997417,0.04394456706271594,0.028636315368449718,0.09741893807998335
0.07996168795528112,0.14860562584759268,0.006889770700869987,0.030395111698792252,0.051094469769630314,0.04685434554271129,0.03407782791449219,0.11149379544145369
0.0830696926822238,0.1577154288255906,0.015692573919155066,0.02235034058973877,0.05235117266676415,0.04680376541489839,0.02795843596731174,0.12816637402520772
0.08065616645005738,0.151942195668812,0.0035760471283964018,0.020422411592469922,0.05248190136203417,0.04026107768016887,0.02104269112870516,0.15745951904583444
0.07729614696096415,0.1344861472431656,0.011622167804000265,0.013817472508364887,0.05330055187559694,0.036482368380640805,0.01622651784162651,0.16244391707190287
0.0697244581770357,0.13520619147004798,0.0025943886310293694,0.008147153434250553,0.05129308188444961,0.035337660641906306,0.017451703008982473,0.12662128951691512
0.06961533269775376,0.13419468892712647,0.010937263152076656,0.011852566082215825,0.053508954589717085,0.036930124025507556,0.022845951920210817,0.12577562102377965
0.07243500696595076,0.1446210393404238,0.001324139659368045,0.011081454453878592,0.05610556615635936,0.038604238297644936,0.020954755222127176,0.1353900267327121
0.07708587693487576,0.14249824899708208,-0.0022732731338849757,0.010083627082884686,0.04401583611216454,0.03445342095401696,0.010467351572050351,0.13323967237882187
0.06915013943133583,0.1346504066319578,9.158863982031989E-5,0.006060495897645355,0.048093079235467885,0.030362804897855773,0.01059474399424473,0.1268175897319539
0.06370051024323134,0.1257646353363045,0.004351585186614023,0.0029767473834554042,0.04130067015125766,0.0290898795599713,0.006306392840297491,0.12014181784864246
0.06838233583936036,0.12562788845398157,0.002895676943289612,0.011922475770264911,0.041739541210155995,0.03499094468454129,0.012761719224272015,0.1167348715121131
0.06854082629243169,0.1331115514832562,0.002488766629896198,0.011308830567844324,0.04543420072633753,0.02908918678536813,0.009177769021233358,0.13305257878918125
0.06409386864406863,0.13612843177609535,-0.003560007783726196,-0.0013588074591625037,0.043366930587014435,0.02168129435028903,0.0042729480669121845,0.13780507639671521
0.06476874171519047,0.1162264159036246,-0.006845114949943285,-0.001526342398749722,0.03828661247218689,0.02254780659172649,0.0048056660217705915,0.12348492601249837
0.0615906499041052,0.11462074648956988,-0.006543612636502002,-0.0067841794102100695,0.04137250711002129,0.021908997347413712,0.004355984073476673,0.10226741884873004
0.051492710611973726,0.10001708785797664,-0.009402052352609462,-0.010920552868678293,0.040885688334951084,0.019476759445858062,0.0016571713561888731,0.102581082254547
0.04610950505505834,0.09229933408792744,-0.021300784176710996,-0.010350870694365567,0.03661998492665145,0.018317311228822197,0.006220996636802637,0.10700031795388117
0.040701016108055,0.08186792612707802,-0.019735038158322993,-0.011958231556911164,0.04071913210595622,0.02192753826856901,0.009052317021983121,0.10160160187514233
0.03060300206136083,0.06572326289097208,-0.022906867281689013,-0.017615033047446365,0.04225845747869134,0.028819032606385266,0.009648388079200093,0.09088697581983132
0.03744286044382068,0.06651981020526043,-0.01871545955456004,-0.0047917067948313975,0.04613966869648501,0.03488833963028129,0.023196786082157684,0.0843227476768163
0.05799294572973601,0.1211018987768386,-0.010766478579091972,0.008667401287086336,0.048972416074083015,0.04458439813879789,0.03299711325849483,0.13171872165421686
0.05822906494730353,0.12812618324980793,-0.008816209615822027,0.007021681719400089,0.046271639699241564,0.0506584536684473,0.031821688385591886,0.14096699801521245
0.057163950109064644,0.1271502208570287,-0.009959772567355649,0.013260431225605055,0.049114759936235555,0.045960127781795944,0.03340325198926439,0.1358448986557471
0.05724197244556002,0.11082256559586728,-0.0023114946227164182,0.014985162151608757,0.04517723509082887,0.04783892825195712,0.03418286759507034,0.12190856440507795
0.05596626444103312,0.10586252679651491,-0.0017918395391075263,0.013302873189334883,0.04877384966593358,0.042377483254549354,0.03520533453185085,0.10904740869412827
0.0640231231451319,0.12513949197831423,0.001881416000895703,0.020022147269420577,0.05723987610799612,0.04933750621995986,0.03870708978005025,0.13976681377094724
0.05890724316512213,0.12710103900370331,-0.006863987080790826,0.011416945919119431,0.05281404092765035,0.04940160726963654,0.02985950455389952,0.14332799966254525
0.059391789301549466,0.12226901325342936,-0.005698394370450189,0.01062030372966495,0.04595640309885535,0.04485592176724059,0.026948044446107072,0.1431067293172721
0.05982507467690932,0.10269586379312912,-0.003241694647085085,0.008862967115916554,0.0480214002797926,0.03685537421425986,0.028926336122720546,0.11640272253725663
0.051522153813799654,0.11219842189112712,-0.003844580550970826,0.0050768949920246735,0.0495333249153137,0.041566616910332074,0.028856471525174038,0.1268100795550682
0.06347507008059132,0.12882447171748962,-0.004931946834681461,0.010238218012237623,0.05059652829393017,0.046385126423387046,0.029972411766697633,0.1461751742180651
0.0635701201994786,0.13200757158145907,-0.0014845641846362272,0.00799730465681389,0.047961981983582015,0.03991728407385377,0.022050243721089057,0.14524226930667378
0.0639844363094759,0.11616986609902479,-0.0014542816214048217,0.005011848736088472,0.04911786746050355,0.039556784595311395,0.016467609514404555,0.1349200445260675
0.06060768761768055,0.10207398410191514,4.2356469441703394E-4,0.0016207558198889265,0.047105261264501874,0.03347048166799233,0.018893716452622496,0.12496434254300617
0.06322989382423042,0.12241623435297483,-0.006975199124714551,0.0072404986829140115,0.051077484219690626,0.0401814736531218,0.025442918687206887,0.0999642330258368
0.06962649173469344,0.13627181391206997,-0.00463193239794888,0.005202327755170258,0.049859369181285626,0.03294144576314802,0.016485331373268786,0.12598197503651515
0.06830476156135244,0.12282589044658679,0.006988901001124344,0.0023310355320424253,0.048828354312982915,0.03505602328344895,0.01712681675921079,0.13990148551963838
0.06192381286163157,0.10656086768369372,0.01182543187577973,0.0036431184943872324,0.04448720522077921,0.03290188884995669,0.00931995049643626,0.13882942254670932
0.0674905793577896,0.10414257853214877,0.005420165607435085,-0.0010675501463482996,0.04596937512625873,0.030084662035763963,0.013452440850808555,0.11157277264613571
0.07329017114881373,0.12666749733955168,-0.001878940138639247,0.0037504888338767647,0.05146536130811169,0.03639756482547224,0.018230062639169438,0.1428505181889176
0.06465316051301022,0.13512546101158915,-0.002439184273864182,0.007405490843527346,0.048441428797085836,0.0324702091426698,0.016711823997183326,0.16260843143803524
0.0726838687297766,0.12573135556985182,0.010771727571978142,4.018310423882254E-4,0.051303383082758794,0.029988107064627748,0.010734729006818626,0.13898636287594376
0.06760357741648523,0.11054367466468942,0.01819744487872409,0.003839232920021064,0.050030684748442016,0.03338776057585088,0.016969863728096737,0.10754952265490049
0.06982440996793243,0.11896841143228984,0.019093892670635288,0.006992372144036804,0.053532339530561614,0.03301022835948509,0.017783986039216722,0.0809003878374145
0.07186583243469467,0.13490332691646761,0.004932247293538147,0.005990697139772309,0.054319592172369535,0.03870389951350552,0.017452214622977625,0.11538402903887858
0.0719632385963962,0.13267230973696834,0.019444483427581174,0.009759184121826395,0.05319686355637588,0.0334768614532845,0.011798749202361023,0.10739186111154453
0.07274788054974232,0.1167754498631291,0.017133924019850384,0.0104307026982201,0.05648898095165897,0.03525591765910787,0.017154165541971904,0.09921791763956278
0.06630688066453479,0.10748604876544338,0.015076770534628484,0.007813736737232409,0.05760009440193288,0.03200734014481353,0.011416188263145336,0.09253979800428655
0.062188473213000466,0.11023983525321951,0.004041980592498732,0.0066194372438924225,0.05351190989944728,0.0324625434879295,0.011183745505326694,0.09458044355659997
0.061854256431183925,0.1034421483160417,0.01051216986118729,0.002860313968765146,0.04942803049352197,0.03300030206294663,0.016785003651920413,0.09190275034588964
0.058650927658407744,0.08778518268575031,0.011532281706227512,0.008167341420819067,0.053564945357801264,0.03380535210524362,0.019080379847157856,0.08131419291451633
0.05627157985585454,0.08196046904678178,0.01738611415573755,0.0050689140691575025,0.050446966681911905,0.03702350281783672,0.02151385208260435,0.06226513626315892
0.05525078093490569,0.08720489530058413,0.011395269481910301,0.01110689356412876,0.05727421304870392,0.04163371778946145,0.034019047050779044,0.07096668181177837
0.06976936876916072,0.1325890492337708,0.01015167212729663,0.024385798038108836,0.06058407833703229,0.052753309267397734,0.0365642524771207,0.12743498228873137
0.06917838429847437,0.13348776980521151,0.01694165070420701,0.0280013197224857,0.05808470171857086,0.052997969519909205,0.033558005307604416,0.13669786537852482
0.06611950337267028,0.12533201485340015,0.02123258984233071,0.03279921882963704,0.06297464000888557,0.057037049145707175,0.04404056638941536,0.1172084256768317
0.06739793400818875,0.11752686982912483,0.026899915981549165,0.041989778899968,0.06494305803763115,0.057944463658067547,0.04768231031662337,0.10933479830434269
0.07133550339285195,0.12954661268149675,0.027675418558818353,0.04988149014840859,0.0599193624595658,0.06615861340563552,0.051993355804016775,0.11839889109090855
0.07704241546253533,0.14707206896113217,0.0389431536342552,0.056225880492823246,0.06661565779361454,0.06540423558846244,0.04834009458985682,0.13113472165625842
0.07958652986772362,0.1469796179709219,0.023811251575724376,0.05698610507830515,0.06808804156013892,0.05886172256219587,0.04453405651602519,0.1271482302955099
0.07393595687103767,0.13271818927550394,0.0474913789477489,0.05689317267639019,0.06785545248134169,0.0560999677025716,0.048491089243279634,0.11316277518877392
0.0802862475241904,0.13121784466491562,0.047538772474705504,0.06572555295076586,0.06526262463776743,0.060578986704504185,0.05241394850195051,0.10695839897465714
0.08384536303159022,0.1567052378707414,0.05336285324059234,0.07619959502464092,0.0708451243761517,0.06805689937347496,0.05374686614239625,0.13369722769664702
0.08835022684375349,0.1589987887840038,0.048511055732977086,0.0797323771511619,0.06435828429538022,0.061208812286517235,0.04855350735374598,0.1320083279900762
0.084623814538352,0.1532106565156318,0.05673579019893293,0.08261002088077192,0.0686013245480148,0.06088806924285717,0.04814201018477524,0.12271559677830644
0.0876950617346195,0.14464996269993038,0.05224513261188111,0.07916700605322306,0.06501319910498672,0.061542868640488205,0.050345448203598896,0.10551666735361906
0.09162791160081826,0.16217518603683825,0.06177767084255803,0.08535905220721808,0.07096302445808145,0.07024343878910487,0.06093977794507774,0.12766101730825047
0.09278182774262596,0.16788254090671656,0.0541575590929117,0.08377306518541335,0.07089636147250161,0.06310140659726554,0.0549074698757008,0.13921310052051075
0.08988356216325986,0.15991051586925858,0.06128610185566561,0.08798413244939089,0.0724261611154324,0.059199369590033996,0.05236891301033694,0.12850801432719297
0.0922398760280107,0.1510891516788491,0.05882564687105595,0.08430049422006897,0.07079373576590531,0.06251487827533599,0.05076122166969331,0.10676965476266381
0.09260586756485444,0.15539287842718053,0.06372286514642783,0.09648546959369057,0.07606380641734749,0.06580765497899257,0.06299391465110164,0.11179282388795082
0.09122630135779912,0.1745335089031883,0.057713868381941896,0.09274847438154524,0.0731790832990813,0.06968477898200376,0.0578736367742129,0.13501176747321134
0.09566171782487508,0.1739673352715843,0.05713118094650769,0.0925874380495345,0.07364971114905897,0.06126112702651046,0.05353348520153292,0.1321909427936466
0.08887573539057858,0.16821751948235436,0.05373042889264999,0.08621098035093229,0.07021532100003484,0.057347503092984864,0.05102022235307931,0.11583095015371658
0.08750417962894795,0.16052915199147402,0.055943347434897886,0.08411721227019993,0.06805167749512663,0.06084574765434568,0.0532053677067555,0.1060318697872587
0.09231273712050667,0.1814117366868162,0.055002829716416436,0.08766459134948311,0.07321539813275894,0.06346048475202037,0.048531343702920705,0.1215152448750258
0.08829619026007986,0.1830651413037322,0.05201154397333676,0.07757817018971544,0.06671234014138179,0.052483598990521435,0.0377055989569035,0.13985133460449528
0.08450416946392028,0.17519248027280707,0.0450717676122504,0.0740393556310959,0.0646185472452817,0.047731091726521714,0.03209767962305716,0.12420417527241197
0.07826947202317795,0.15728668615210653,0.0389864822192752,0.06580477926784396,0.06117135074877103,0.04336307555254254,0.029285294751740257,0.10465299176854327
0.08412869196139129,0.1577397427034725,0.04764215675470722,0.06656721023728324,0.0538961463603349,0.036522307745190455,0.029251671859157728,0.10244745683443986
0.08365046602772842,0.16489272578282166,0.051984044718815785,0.06365345168422429,0.051019671045298705,0.03698009911629164,0.020392423811634596,0.11955865908968645
0.08317753507815234,0.16801327350369694,0.038385965632268565,0.06351987605170804,0.04799006812607917,0.03257076949781382,0.015399884527762673,0.1203027704685828
0.08204448029715895,0.15801387819589008,0.046398956300432864,0.05500537292303377,0.04998075419458978,0.024011832416104082,0.006970915055928333,0.10339185187547568
0.0707616301289587,0.13994091179886445,0.032621855735664916,0.04933457784892601,0.05030101855966052,0.020740543904403462,0.005876185738251431,0.08083605028608315
0.07813400550500052,0.142415443350765,0.0348289724107524,0.05032235933748052,0.05112471666876596,0.021846292484471765,0.003798480390940398,0.08057643620522792
0.0766179988880588,0.15562234047519644,0.04089416976495177,0.04441535933884549,0.0426052825786116,0.02035332861265337,6.856367846862076E-5,0.102708768676363
0.07504823575308929,0.15797002830923004,0.02678902754025789,0.03962369427126294,0.04218427719378003,0.016258881741940907,-0.009377342204106126,0.1018618473354127
0.06779384505457478,0.14561996105044706,0.029797379827050212,0.039203828180097294,0.041561398541569254,0.010551339098269098,-0.006359295697316845,0.08797025199690174
0.06935439371750027,0.13612854538286212,0.0339640758065041,0.03381641686784983,0.040023337513356017,0.007980224779761149,-0.018991160771132855,0.06296736225519789
0.0721460013683253,0.14618161439567828,0.022518115233528386,0.029838278190557524,0.036301818528968466,0.012121179455452047,-0.014207433080669407,0.08006051413897737
0.06803677638024376,0.15327853654069398,0.021099674578106055,0.03558462161501634,0.03562771098104966,0.006764804031898527,-0.016007276518738917,0.09453950014700423
0.07314979526280087,0.1580782866888336,0.02105547481482857,0.02620096923135699,0.033442506886433826,0.0025101068559504427,-0.020000521216764534,0.09193347361434472
0.059001017121329,0.145395246422888,0.015992156593686982,0.020536762522974126,0.033631542712079764,0.0013022204854181178,-0.026157616416822103,0.0664188443523017
0.055580873056701445,0.13803159065468057,0.021144788671177996,0.016265362843760883,0.03230815909565288,-0.005875047541281891,-0.028344617899154226,0.04624280424555806
0.0621005255918034,0.1397954983541189,0.017936412399773737,0.02327236404223849,0.027533811830175683,-0.0013103746620699585,-0.026820545285924945,0.05115663166274531
0.06579088425185659,0.16167348675805196,0.012072995879323195,0.02124691861813696,0.032583140637831715,6.409922743497639E-4,-0.02527761283918017,0.07992294923539273
0.062442346048877696,0.1568442844319937,0.006385706016086557,0.016229886468546492,0.036572949093443226,-0.00538886432794058,-0.0363546504056917,0.06654191876699726
0.06006694033660881,0.1370790442328991,0.026323289871870895,0.020938436900701303,0.029275345382101182,-0.007649553252896464,-0.033917724275282855,0.04545463781195019
0.054563817530811194,0.1291980896565267,0.020688796232998973,0.014972038826748725,0.025108353438609864,-0.011136997415473516,-0.03638045624314384,0.03453356418915594
0.05339526176428204,0.13067161074774125,0.010475856277490037,0.014994686151036916,0.02641574155226221,-0.010674023602094553,-0.03568670554701939,0.040604453583791375
0.06021861051410121,0.15665342328827006,0.006497272446378545,0.01902848565380993,0.03159858687981306,-0.007238159516617943,-0.033607207884926174,0.06408477573939685
0.06172103441970574,0.15102598702474113,0.014788208057107202,0.01998816066663413,0.029331845325265154,-0.0067414002203006135,-0.03754125716530249,0.0623113872596651
0.06380127448387381,0.14252714429804664,0.02086860116948636,0.023114789021666367,0.024248160883125133,-0.01249418754668017,-0.035579268259681156,0.03834327200045901
0.05172644051717432,0.1283108194899745,0.010201467002048634,0.017946770231862384,0.027089526795891723,-0.010615842883823718,-0.039271568522303235,0.043250249661300276
0.055969137402523045,0.13149656420281042,0.013150787658901424,0.02399840302514561,0.028367644322540464,-0.006598068464134549,-0.03444435429455477,0.04983213907692785
0.06334594204309353,0.16047746390436468,0.021333401421610717,0.03226877413604717,0.034944333341680435,-1.7084018539486337E-4,-0.02617530198797113,0.070510930965668
0.06437243859546693,0.15048533352012466,0.016390466565778406,0.03027501770677145,0.030438820516044282,-0.004732493444210792,-0.026310422380206356,0.060256743430323216
0.06334146801737552,0.15743622251265793,0.025555789555437806,0.04003936507025709,0.027338498943344475,-0.0033247603460345274,-0.02747184995371631,0.05597747827391622
0.0607622182585172,0.1483516211533072,0.01859043864257971,0.040378668889890515,0.033058836199796514,-0.0014912241043736091,-0.023717778784675736,0.04623318719181637
0.05701372844691176,0.14368992751133783,0.011795143492031734,0.04645471949418189,0.035254973334879515,0.005252064747495606,-0.01710097105533539,0.051703367046132986
0.07075713558017308,0.1634664401340067,0.023663095016392056,0.05248035769855736,0.03637882645883836,0.009734675294340061,-0.009239892987906497,0.06357506454322868
0.07043633066939092,0.16939300162276724,0.022489070494418045,0.0619362067083697,0.03605989243178855,0.014859608648546711,-0.005908579866373049,0.06395751361265434
0.06797990383858596,0.15872038220663023,0.03256263414585316,0.05910018006085127,0.0385579327595701,0.015171211328147168,-0.006870151321402184,0.060750384880192666
0.06256295670920799,0.15218414601747038,0.032867074662280615,0.06215444173949813,0.04044309973554915,0.018245637100799694,-0.0028609071315392927,0.057590748950782054
0.07185944531981092,0.16544648166593,0.03452192331772648,0.0659033810397917,0.04243496416788966,0.024707150330653405,0.007839374206869676,0.06807184614576944
0.06726279322527964,0.16105238562631022,0.02950301338015726,0.06631033696018324,0.04554441771789587,0.027267382262551532,0.012026984871882678,0.06053534997347487
0.06835561104276201,0.16095105238511112,0.02108674484682472,0.06285963479419772,0.04673173918167327,0.02894088391699187,0.018526700683724293,0.05842268248781333
0.06401219196244937,0.14808396238846894,0.03223906140494803,0.06221885172131088,0.048465060567714775,0.034337916773754695,0.02408517020161375,0.060645336281126214
0.056425560972811595,0.1397926773671399,0.026286434524963417,0.06339746115463894,0.047678827898600964,0.03782028815857206,0.030525360787800514,0.055804082102621666
0.05793235355517997,0.12596917375714578,0.025568974611720644,0.07252108943332754,0.049836810455390464,0.044261077196105725,0.039258802710062116,0.051675882454835474
0.07437602835999597,0.16405944755088656,0.04802545504611687,0.08459159361452942,0.057260076016059924,0.05888550049370243,0.050450890962993704,0.07585210982006334
0.07735903784393121,0.16149048370345895,0.03885187514805524,0.084893484786673,0.06088274471344427,0.06515866988287981,0.05492329781821949,0.07782355002988475
0.07162991825313868,0.16970602118390285,0.03494512895703942,0.0811677178515809,0.06386437249068813,0.07010450799674481,0.055071797567215065,0.09382786116032298
0.06770913277862994,0.16393735220961642,0.04082557202367459,0.08752826933432424,0.06726568095477299,0.07104217300615626,0.06548859350690653,0.0922412051674309
0.06955309164991068,0.15534484504972235,0.0444498290708274,0.09088814239479813,0.07440549288635087,0.07966004664580047,0.07439818759778873,0.08621934680838841
0.07925139479877699,0.18112725311261543,0.05029118310992804,0.10086914523907146,0.07531955400930841,0.08221101027959994,0.08361026931144308,0.10311331571918889
0.08111246763952888,0.18521511027456344,0.05381537901102484,0.10193261574847155,0.07662580419756254,0.09036249734110766,0.08597159326823972,0.10511507375736681
0.07907978945335256,0.17893374318314062,0.03702031925455716,0.09869207807771158,0.07451912477340457,0.08591474113322792,0.08141199790639254,0.11380348172948336
0.07371769114801155,0.1699216890711174,0.043245101194260595,0.09534619055805062,0.07858181725937721,0.08642752280410039,0.08425822491713551,0.10454626920408042
0.0745591312309419,0.17300934363133433,0.05656106397857684,0.1045237821479745,0.08021672943307091,0.09562736169897322,0.08979073226088857,0.09849960388522774
0.08751913179187863,0.18563110722505005,0.04976295159004935,0.11032395309527797,0.0820101276141383,0.09676572649391432,0.09034619055231588,0.113380116949018
0.08302107504384657,0.19220448099055204,0.04893641380925742,0.10868435542134018,0.08010354466466596,0.09039853989093086,0.0883449352472242,0.11313043305000643
0.07982099126270033,0.19861770342002905,0.041140330643232144,0.09937494998833662,0.0806846742656662,0.08818267100950891,0.08373114295596934,0.11273702702925598
0.07613619007381865,0.18195440539872418,0.04203874298521534,0.10091328190003165,0.08045099305331345,0.08808041569553071,0.0841226855764401,0.09814734877860544
0.08696102974829001,0.19823697980917887,0.0553297765220395,0.10744440805732776,0.0831179024562887,0.09233784794501548,0.08826564777910698,0.11511597319166152
0.08748446963209307,0.19434987365386772,0.05365601798994988,0.09586819853019116,0.08465395355587585,0.09163682485041082,0.0849345060749234,0.11581432689540606
0.07925953736121136,0.1960287004823851,0.04168922841218082,0.09524081860772445,0.08291331683871093,0.08617963512348227,0.07581020183320229,0.11964482738663448
0.07695994093135405,0.1923637072201999,0.034836687985511025,0.08858719714092436,0.0862892379469381,0.08482154559327794,0.07633273067994936,0.12311337640976706
0.078421660014357,0.1831023363620985,0.039619498923815714,0.09279259813575044,0.08406831971323099,0.08604230103304168,0.07961701847480797,0.1222085119932479
0.08429574834242069,0.2029845807980883,0.0452033680696557,0.09844215956190545,0.08311725450123572,0.08604732739732786,0.07586936855653406,0.1304955298069138
0.08826796909578469,0.2028085622876619,0.049701282014803075,0.0922215918209574,0.08294541127314059,0.08206824145379878,0.07159560449471594,0.13521997217440562
0.0845102027361889,0.2083097147229461,0.03468078239712522,0.07951466287710693,0.08005519358732688,0.07869118004442455,0.06072351627994421,0.1499193901697176
0.08055708414994085,0.1926614979822765,0.03616612613835649,0.07833220874788978,0.07471837386532151,0.07423843145173938,0.057538073829786374,0.14848498836226892
0.08314809628606493,0.18818414020418292,0.042664026653515486,0.0802231731640279,0.0784700905006551,0.07694362988771054,0.06342472519121226,0.1298092861944313
0.08321288518678588,0.19983429757942564,0.04264715631529749,0.07701440037866968,0.07558702883860516,0.07415316043360967,0.0583792754218075,0.13730440416461245
0.0850841114914218,0.20147550405629808,0.03526290827565604,0.06699881422846055,0.07706258120542124,0.06589466820208688,0.045957556554301865,0.15457422841619908
0.07920510456344741,0.2007507654220264,0.03090821259186684,0.06331840921201921,0.06838040159836631,0.06526784896604841,0.04296953684039647,0.1462847501409622
0.07540621408697581,0.176799566704836,0.02812779675699686,0.05886675963318992,0.0708177689374711,0.0593580238102685,0.038877781421034825,0.13605720034615218
0.07168336714295012,0.18525598290759895,0.03758808072157156,0.0614504091441164,0.06777559566465688,0.06021220960222789,0.04332096217790146,0.1299223230674921
0.07917506041895836,0.19749271173045796,0.039166943103116844,0.06100639265569694,0.0667643382740016,0.06403217858280602,0.03818611603157333,0.13738793970075105
0.08022768863977822,0.1968987925874377,0.030045550469490402,0.05524588481057949,0.06892769472828944,0.05487713860454792,0.03478706466895689,0.1429193210795585
0.06555957693560502,0.19400984286663361,0.02346606569548605,0.053379240529484354,0.06267027799778457,0.05021804817454319,0.02994669124487291,0.13932330300351156
0.06867877536542984,0.18506889377024147,0.01098742667056572,0.054663972067342914,0.06542094210230766,0.04984175333834637,0.030386079745644366,0.12425019220603124
0.0674618352686626,0.1848966265657899,0.027659221769398768,0.053186966601097334,0.06658289309317829,0.051603064450019644,0.03875799135014195,0.1239280588885023
0.0735521730041915,0.1990400981451959,0.026402882871612757,0.057414604127730334,0.06760001472799472,0.053932764886333515,0.036595086407357695,0.13982285163487534
0.0690283197134906,0.1928914484937655,0.022912736998564498,0.05211917803455956,0.058258945024116625,0.049770837515918404,0.027332481137078927,0.13833147952659774
0.06604907776547234,0.18640506183678907,0.029332704435010137,0.04867558882463489,0.06063864089672726,0.04773892144139143,0.031192433576508933,0.13470516135402236
0.07226217560505502,0.17973422943823458,0.027237769029712987,0.04939947104338832,0.0594492891494005,0.050310869730149296,0.03518020733149281,0.13195589495967264
0.07057609828290753,0.18481988870272806,0.026542305542719236,0.051843832354696286,0.05856796883027449,0.04739066583177603,0.029154730413121586,0.13508735096918947
0.06763579629961468,0.1845410728498756,0.019722966245790736,0.05432476307676251,0.058357441895421726,0.04964991240703304,0.0326836204078002,0.13832051133900444
0.062227807298736865,0.1776791092110137,0.022427858421514787,0.05047228021654822,0.05608788177247574,0.04624276203577472,0.03134683575944676,0.13049087119261815
0.06043093252445219,0.17006270981052837,0.019965520403392077,0.05455441258444808,0.05802910012876607,0.045682500675141964,0.03616667714076353,0.12355958515748164
0.05436874754897535,0.15739481501586064,0.02045538663514423,0.055088765653142635,0.05182485964337469,0.04870753531143568,0.033503723815472126,0.11588159183184411
0.07065555588556421,0.1735022117819532,0.03103781903410819,0.06630364168601506,0.06002037523924295,0.05348782881447063,0.0453436625621474,0.13755010089971023
0.07110910118288599,0.1949090675167457,0.014409114109089138,0.06926783509233021,0.062456291002538515,0.05589311995293354,0.040440696491820055,0.15316202239749316
0.06914067452180213,0.19622976842431125,0.028944397699490046,0.06853795742605087,0.06358401836574158,0.05843463749491613,0.04156366486545692,0.14741158863674592
0.06889579346133481,0.1812073781924637,0.026013431406480936,0.07104507526619248,0.05967768207899345,0.054813725035885226,0.041360261826134816,0.14393660783217477
0.06318505296986793,0.181751989924606,0.023061145947169577,0.06561468154296317,0.061884095908251995,0.054268059213362016,0.04833160601095187,0.13226601756789408
0.06877667534088,0.19936215960440853,0.025477546962244284,0.0773403640370795,0.06311446426628094,0.05844162590764601,0.0486686613989407,0.16618282050476443
0.07305033230589025,0.2137464843112336,0.025102395174519024,0.07514573032724745,0.07265800920237868,0.06290793904969243,0.042869682638622154,0.17028204060093272
0.07467715238744642,0.2009483978630267,0.03187011570597227,0.07743334820045158,0.06553117685588349,0.05891342934457559,0.04656894173941524,0.158793780631181
0.06814887840139511,0.19052576045458364,0.03577018448779446,0.07626818280414684,0.05826146425809118,0.05498323706690788,0.043810233219959874,0.13772851182527046
0.07026260472160525,0.18412715448274586,0.02417659655634088,0.07783440667375523,0.06634454542758646,0.05587114763711871,0.043173116716793726,0.14063113940142255
0.06872590556405894,0.19821153297735083,0.03330660558808752,0.08225325688916066,0.06474234356764727,0.060295765496169634,0.04424902575407467,0.15111514463909512
0.07430436774149259,0.20678006354679862,0.039602679218741194,0.08602836178586264,0.06250896431105747,0.058185465739595536,0.04842708728167838,0.15678841671634214
0.07468228676015158,0.20556254699742527,0.04000443263014889,0.0875778814608265,0.06125949232511591,0.05609834990331641,0.04287858304958202,0.1439065019272141
0.07275587939140409,0.19472160637562963,0.0331873898653941,0.08777410069506106,0.06273284720347094,0.056015903476667794,0.04242159512634248,0.13394029970191185
0.06595284464688125,0.1879908264441966,0.035068512496676064,0.08755437482112542,0.06547626016470433,0.05584635570280114,0.04036640667753546,0.1300872743894716
0.07143434989360985,0.20551881109222758,0.04396624668782436,0.09142052646366058,0.06554491051060653,0.06275029047246942,0.05113697730367766,0.1590738050403796
0.07800336370808926,0.20988366747929843,0.03514490998690685,0.08611470339037942,0.060855696196113855,0.05789100924402089,0.045075276724712794,0.16244090497547117
0.07392633905260483,0.20219588034877972,0.03829846515637621,0.0867783596540047,0.06234064523543267,0.05701968018188573,0.04203380947302757,0.15270200989429264
0.0642495497594421,0.18657737447835315,0.0330108739206745,0.08271440982985152,0.061120026334014116,0.05494850719199941,0.04258175661087469,0.138839704157761
0.0699980380136961,0.19293025912732828,0.03500213220399491,0.08836579454001985,0.06472151066646714,0.05791550600660347,0.044232860931849874,0.14334311369261854
0.07544020588697903,0.2115603593241599,0.041040391662093716,0.09153151906876604,0.06732773548673453,0.0661771566482085,0.0486540989541079,0.17162276984395786
0.07804963641473385,0.21185660554949295,0.04043121685962962,0.08617137385996981,0.06435794450249745,0.06017031248339169,0.05049248563979002,0.16411077734496596
0.07147407016955201,0.20214873066312164,0.038147855631873916,0.09106381612452472,0.06455832911036241,0.059333066628573024,0.046730959377573815,0.1509299532195055
0.07160818066256591,0.19285061776271936,0.0452000198484231,0.08684637562710337,0.061143396128738,0.0592816902399097,0.05133738052526992,0.14672047441938071
0.0717587498431909,0.1989902954978183,0.02948854570129489,0.08709151647554844,0.06383934412376142,0.06031149232602916,0.04759084141549036,0.16086537583082802
0.07571375177038402,0.21020880599856687,0.04288083028073493,0.09962320982980973,0.06625638776013505,0.06438201294624028,0.0503597589649749,0.17748560168172955
0.07946548387786663,0.21412564868841502,0.04932917296201887,0.09799774069380007,0.06787282904357807,0.06236847075682926,0.04904963309158136,0.15947513328723553
0.07585289943412296,0.2010210960500968,0.05226264085041875,0.09392218755942378,0.07006301853532361,0.05966772559693768,0.0466797046126683,0.15357339227030473
0.07094148041838384,0.19553924143696336,0.0454916044002529,0.09328346381945798,0.07166445021585695,0.0558759896258212,0.04319398050912586,0.15506087157818624
0.06794432307312648,0.19940411481958883,0.036551938789574016,0.09928370841468022,0.0662886947047169,0.06415194154364971,0.049644854725297914,0.15830158719211201
0.08022109814640953,0.21511291838525767,0.05171600393239764,0.10622370947677506,0.06864931025946905,0.06668604640874634,0.049200440317750414,0.1646046612845334
0.08524683192672046,0.21234701879088969,0.051765474128778986,0.10900534086412246,0.07256652815365869,0.059584175234631345,0.04800866492125826,0.1583849474780364
0.07775477202002783,0.2072002252247678,0.047098184665056726,0.10789496990367993,0.07091059252849641,0.05696838711641836,0.04913935388011287,0.15555040924804067
0.06987612312355472,0.20429401480109202,0.045309087342211826,0.10275148475826769,0.07097834483529179,0.0602854441561586,0.04264104112208826,0.15544921825390778
0.078704941450682,0.21429117717511412,0.043416099801308124,0.11302352199086209,0.07081074730074215,0.06508468143099792,0.0494321388180584,0.15727126464733693
0.08163139289685489,0.226631730900613,0.05433293934647621,0.1097052481563627,0.07261291725605395,0.06246621601200823,0.049716368231016925,0.16406537403861474
0.08396856148599974,0.22882263504118522,0.059195602028559974,0.1181300396209687,0.06771987600387475,0.059789208508856447,0.052189376100848464,0.16213411668513386
0.07294205191722915,0.21911273802912984,0.04605885614708062,0.11227006883667755,0.07027489828682243,0.061632605177760584,0.04430798683587456,0.16046553249096232
0.07443851910457674,0.20453876284782085,0.0465078723770092,0.11255977287485383,0.07334187862547767,0.05905869617607204,0.04977503878347454,0.1632071629296695
0.07774249231498798,0.21259861090196383,0.05623699755660941,0.11934596868762767,0.07224189980879474,0.06620834601011039,0.05166384606553775,0.16644601709034607
0.08533128133487464,0.22653317271497073,0.05190359685170257,0.11902280968595044,0.07468914008534507,0.06390702856324398,0.05007322117361454,0.17484478543263218
0.0822188551457459,0.21838827010391987,0.05266238063454651,0.1170416212575937,0.07406883326002035,0.06302142259806162,0.050899255865018984,0.16794792412553194
0.08122759034097143,0.22216589588030622,0.04538746719604082,0.11813660202597756,0.07084264108448178,0.06230758587680875,0.0475569552940994,0.1633873283947762
0.07084081935261033,0.20945897014166792,0.05533615468591265,0.11659470440103949,0.07627430651839144,0.06393168589649567,0.04997525027539464,0.15745158418283958
0.07904215946063525,0.2238473256075488,0.059966610198403075,0.11837766132229295,0.07600513320760438,0.06698606289732113,0.05081532192524078,0.16177436433046352
0.08037733384046752,0.2314789507407487,0.058096459618977206,0.12526675384000255,0.07343473129921534,0.06435203523433107,0.05466950864087754,0.16730384533898435
0.08113668582934985,0.22909711376678693,0.04324829116316758,0.11729530190593263,0.07461829672186071,0.06694120236928112,0.04864621373624872,0.17757109123854492
0.07402874970539094,0.21554637539321317,0.040113439966188894,0.11875030103481295,0.0726348475860388,0.06441592835319424,0.048457483156974485,0.1711644410034755
0.06816726959649687,0.21510015861815104,0.044932630872636686,0.11789503345247782,0.0783422063867212,0.06611310493154135,0.05197792792207378,0.1633312970385836
0.07871431795267206,0.22586298009797973,0.04713291742049332,0.11999934515808353,0.07493843492666746,0.07062330554340986,0.06049305441807292,0.17424555771680234
0.07966343100732114,0.22070225587573425,0.04938254884112287,0.12121401968849872,0.07838502183317116,0.07082865048923155,0.06395476937100471,0.1711132298505899
0.07835462794568489,0.22089919072336964,0.043778644357563574,0.11421013940835226,0.07798008778037166,0.07054419713672387,0.0562720643172648,0.1794453135574998
0.07031579449661852,0.21315460743838327,0.0423908467427572,0.11009527959505887,0.07367804444449086,0.06749790778387671,0.05581037481954606,0.17516943000148127
0.0649091172336172,0.19919883637354513,0.03809608127168745,0.10768555260265106,0.08070676003201105,0.06989242388784492,0.06289607468741586,0.16661724542824102
0.07554308476822548,0.2173302947690298,0.04479294220854166,0.11897404800822448,0.07929432606294982,0.07541674917796563,0.06580956526566856,0.17918449594999028
0.08317313038587505,0.22136470295070365,0.044195920505904616,0.11447355707218015,0.07804821043471263,0.07315095840495069,0.06177972990153205,0.17391056605337912
0.07773696502379415,0.21910049118536554,0.04437897178617255,0.11099013873816012,0.07963736340366412,0.07010445317069992,0.05504172709876195,0.17734052712714007
0.07022766987858309,0.20588808818229554,0.038809142217625596,0.10461972787797082,0.07582406344459451,0.06325232628860455,0.05593597092432,0.1701972181933635
0.07027482123316116,0.19987791748888387,0.04443354469957048,0.1086574734909957,0.0721785080724708,0.06941497550013118,0.05653237218882081,0.17255543044105434
0.07754032497340699,0.2133574599915294,0.045384365549461174,0.11143877688516185,0.07701783232306941,0.06918466412984624,0.059256617938098985,0.17908942623084229
0.07622927866891753,0.2189165431383238,0.034103099996315896,0.09730579180544835,0.07254632030043598,0.06921268678177886,0.05565129114258744,0.17845523938896635
0.07296711031119661,0.21100961824217296,0.032622028062071116,0.09792515267260815,0.07456856375424556,0.06512942779239186,0.05448396782237864,0.17683128137679038
0.0666913086592445,0.19779078786705906,0.034532459935791744,0.09332251722693594,0.07601148632387385,0.06660602878491921,0.05116089299987905,0.16716378904019072
0.06085882359859676,0.1982580016377686,0.03689090652680539,0.09666393974788934,0.07145783303150732,0.06154952424223017,0.05847645140129209,0.16278281624495033
0.07608517367397719,0.2181627433105098,0.03449122862000436,0.09818699955440323,0.078032676518009,0.06768998895159349,0.054909887035085446,0.17404281727227322
0.07094376695777806,0.21607199915752145,0.02377378252701959,0.09499196829837422,0.07160883620814831,0.06309456729507634,0.050211188064350126,0.17530492168452147
0.06368339736693027,0.20599691684201277,0.01856396128006974,0.09199828732684402,0.0658099923280542,0.061390805340659306,0.0504749650102822,0.18487880791502107
0.06140652807548386,0.1916610139225231,0.02453503628361073,0.08429528605186638,0.06589395337093541,0.06015918495912701,0.05042288036294761,0.1743306342094854
0.07299510146697975,0.20638165029756386,0.02777747002730789,0.0903852326033985,0.07108479841340071,0.06732402790366929,0.05111020043582025,0.17933738176241557
0.07338981142788713,0.21449704487912666,0.03086020358485355,0.0892645288199433,0.07046178181447377,0.06445358194543717,0.049864704844407186,0.18801812558519623
0.07085052268149526,0.20980231682818787,0.02374795066011925,0.08703472463743274,0.07027367910538922,0.058509442820809845,0.046950178107281464,0.1759940564325114
0.06312149035112434,0.19322860593592117,0.030240625126914604,0.08304978120472228,0.0693718691454312,0.06281491450661508,0.042218280619955806,0.1625351541022954
0.06056961293905116,0.1864709717219605,0.03050647099348063,0.08676964033660095,0.07043449593264056,0.05988681297744326,0.05144904638201876,0.16237600242276826
0.07639630725143769,0.2123353205782978,0.029744994872044166,0.09224348913002975,0.07353384473490003,0.06425784937350515,0.04663461133596816,0.17810583797083868
0.07384163772208602,0.21276086423836332,0.03217186969179507,0.08541481879026312,0.06825118000423755,0.05943739664465301,0.04501676678928566,0.17417055091606434
0.07045782695844488,0.2067912678820253,0.023200677054032528,0.08322022621135887,0.06789766047211082,0.0582195262018889,0.04179250348506457,0.17683693126887448
0.06338237494008679,0.19148162212331252,0.03340118782291949,0.0830899676880817,0.06736374969410949,0.055068691192800494,0.03878110434877587,0.16647727298347864
0.07180632755430391,0.19656124356398755,0.03760718516271022,0.08475623336542767,0.06795291161704116,0.05852129435720187,0.04678015904709697,0.16436385827052824
0.0721178492807912,0.21686832456558408,0.0292097876015385,0.08614823009477801,0.0661575036209548,0.06101069270962312,0.047943000209980796,0.18277486260536344
0.06879235221398029,0.21838120286164575,0.019888319433602038,0.08708712337630067,0.07241183979833751,0.057359910012367184,0.040666405458359846,0.18353245954337707
0.06755248680615175,0.21032281010850973,0.024149826882841924,0.08146881861903586,0.07087904614536189,0.054413784390565254,0.04432930446703509,0.17598594126939915
0.06579375361047947,0.19685242018350108,0.026531422094268568,0.07759514296288783,0.06579017566846464,0.05271897850779433,0.04410436764138982,0.17007036525293615
0.07986304510660883,0.225712443237328,0.02499500365933898,0.09173446863526388,0.07112256848144727,0.059797410708602824,0.04535815129702519,0.18796371958368752
0.0714459656625973,0.22470503524162816,0.027146279765198223,0.07950689388459972,0.0714121049110407,0.0539685870113807,0.03949134398797334,0.18477689305867578
0.0674825027989991,0.22584102571912132,0.012415238843281336,0.07740325140116185,0.06478578248687364,0.049048093525982474,0.03582103514046926,0.18823966376997406
0.06870510110152889,0.20718750262051655,0.017344491958388965,0.07840773691510011,0.06433574575728823,0.051389816663627755,0.03510220480679643,0.16164976371636386
0.07016734542666558,0.20448620976049509,0.029933197164057852,0.07991264013474042,0.0710731174743656,0.05578305428992042,0.04466232315708288,0.17112684739925518
0.07616714908519401,0.22923223129365433,0.025509034624498376,0.082074216835422,0.06894004637166316,0.05318064295608869,0.037438131439609286,0.18053516310083437
0.07114342870505541,0.2249563814459496,0.02177276226846234,0.07718966775906028,0.07059549548121374,0.05063034725162455,0.03162312367817214,0.18341478375160394
0.07315992123586018,0.21502496827962556,0.019169148774734888,0.07325304745806169,0.0683517441147925,0.043109980256223854,0.03043498851429778,0.1762014526580593
0.06596672418137743,0.1915200907342208,0.022563391367563836,0.06420284238019948,0.06626395105658384,0.042526517215336006,0.02860949490052486,0.16932416222553415
0.058374854617049436,0.17758388781841522,0.03165012392910385,0.06560255788476355,0.06253184286724303,0.041884819763701064,0.026446054828131595,0.16485997424351168
0.05595269513078995,0.1706478881796092,0.02627852898371224,0.06507333093160535,0.06899315301769145,0.04663518313974177,0.029295905072536755,0.16161528369497857
0.048598286051589716,0.14916825830014052,0.01806890667913399,0.06297784405363505,0.06201594824539773,0.045605703613213776,0.02957291366133138,0.18502114556768112
0.04317301433555183,0.12933345713408512,0.01892819187247409,0.05925486857581081,0.06527608956564895,0.050990062603081636,0.03148210793179096,0.19668319868735418
0.05817162744230558,0.15535904531252526,0.03289519337553269,0.07634473193994208,0.0669121438908948,0.05383484467102736,0.04472474951092348,0.186021207751433
0.0737990661305805,0.1857800649936764,0.041829515777063925,0.08838884734537657,0.06906332130664346,0.06305830634678967,0.0490376829227489,0.22265324273437845
0.07194531294050442,0.18451228433544128,0.039360071515649506,0.08437667816315887,0.06799582019393698,0.0629790090643126,0.04816189861943666,0.22891498099782226
0.06621087330369578,0.1887442246064295,0.039548115031700914,0.08022116957227084,0.07131546000523772,0.06575498592268621,0.04999759214472926,0.2325914012061101
0.06461861995811441,0.1657465410671232,0.03897118715348347,0.08447447002123762,0.07597058935674524,0.06800552042054911,0.04962827179435705,0.21777111745572203
0.07666208852507236,0.19570198699513675,0.05577382540688168,0.09668996177850547,0.07618669205635858,0.07202617846841643,0.06230446654683239,0.2339953457867675
0.07662290092117527,0.19545390683758035,0.04671723846243419,0.09739817714443046,0.07030159071591575,0.06906312512842673,0.05054122416661364,0.22811974454754438
0.07703353702904603,0.20131104263719837,0.03647374309362209,0.09199981505309913,0.070435477391891,0.06396950049473517,0.043237556029036776,0.2247778586612427
0.06371469720403797,0.18640702564905537,0.03747586350467797,0.08248416828096,0.06558420447190892,0.06185264941666569,0.040420546208106325,0.20863007756564284
0.08013662810488101,0.20192504800530084,0.05245131169626932,0.09737842479793701,0.07243661672067256,0.06544573083136983,0.05128357125270551,0.222016878291517
0.08347374307161488,0.2068135376913276,0.04692380642472179,0.09614436478434792,0.06939289486849938,0.0581096081054206,0.039136064460540194,0.21805120270830297
0.08702475831617691,0.20605739641940793,0.044258987181173444,0.08662375555570552,0.06780445289526389,0.052974746446727436,0.03173141422588483,0.21242659147508283
0.07460396629782268,0.1914928811111303,0.04058453167083818,0.08271955825955568,0.06213297123198832,0.04791979733518279,0.022763830213738828,0.20700823463852186
0.081905256875784,0.20843042301756295,0.04227720370376472,0.08698818728432028,0.06577986228007883,0.05105917969436178,0.025562016820573564,0.2085899515517872
0.08437693444721946,0.21987836468579738,0.04974137405486333,0.08465745766722492,0.06670240285667133,0.04568098227894347,0.019628113100664656,0.20074292500034274
0.08124951481666033,0.21025612560391657,0.04527307805763121,0.07760592085869797,0.06653228054382804,0.04022839826924425,0.019804430761238823,0.19906044175889567
0.08133338655001188,0.2000380827813654,0.03183201915578558,0.0655412657180899,0.06425983778937272,0.03950619438843625,0.011816734000599493,0.1823083839757602
