-0.025009989753942745,-0.04236861220597092,-0.01793860920706016,-0.01754575994618074,0.05607048256529203,0.06841657826671971,0.10205796793577819,0.07476599265776594
-0.025854750822699633,-0.053383111233339504,-0.026622103090590776,-0.02483201053379071,0.03976122666644552,0.05816903086842985,0.08904743642265137,0.043776535733837454
-0.049671197029439035,-0.06095110072097366,-0.03651787380863555,-0.05333727349451484,0.031318676419255974,0.027067257755566863,0.04101550666154921,0.04889812469276986
-0.05141720723141992,-0.02532009368352494,-0.08540985269601023,-0.0993019353649649,0.004287195023555983,-0.005977869617435882,-0.007653284600895752,0.04673915430606367
-0.0892265657995199,-0.07139605001733067,-0.11260844613900844,-0.13686680710908716,-0.03484776165934242,-0.04996928532733635,-0.05542121456389934,-0.05288697103866088
-0.12465119630753671,-0.09242552275646479,-0.14193178840716367,-0.18205854332552374,-0.034056395677895736,-0.0885333950846349,-0.11808488160825063,0.04430397050733346
-0.14121792036467534,-0.09859833168890149,-0.19488307257549808,-0.23742745690932207,-0.07432775681755657,-0.1388991393136137,-0.18634529061191166,-0.04673970622021978
-0.18515098758981885,-0.08823442474279869,-0.2413952667427512,-0.2873214033346915,-0.12312731318561503,-0.2092657400098547,-0.271268307636862,-0.09081532568182812
-0.23114098000397798,-0.0827730999267341,-0.2867852644355013,-0.3450763705016247,-0.14298184480207465,-0.24320571389486226,-0.3413501175841989,-0.0332962634700259
-0.13409651498363812,-0.1079621767038666,-0.18898502579784854,-0.24218482425119833,-0.08748930408144118,-0.16004648243969785,-0.17083243326669417,-0.0937326781320529
-0.10373862757949566,-0.09550733425713095,-0.15106256300771603,-0.21525526340154774,-0.06499328317192507,-0.09626155405404302,-0.08376512253260333,-0.09978541880726949
-0.10739745538129897,-0.08890620302206405,-0.1475751670064443,-0.20913249788558086,-0.06237547910716932,-0.08338467739232625,-0.07567275253625282,-0.06815113578361424
-0.12208039935727205,-0.09050212682363548,-0.16903336357974308,-0.24081638443651973,-0.08552813444557908,-0.11821718499423797,-0.13451229851193863,-0.09704040163704028
-0.13178488822256662,-0.10311123301943277,-0.20142510752554893,-0.26427854270197537,-0.11745006052837335,-0.1561928696424522,-0.18410885348192285,-0.1338306994495765
-0.10151927169252725,-0.10748556890306535,-0.16189853820157638,-0.23172235880115657,-0.07714238132841357,-0.11053889932979648,-0.10236953018381412,-0.10684606701624101
-0.08693413203154816,-0.10433109722797042,-0.148967088064466,-0.220749161246889,-0.07394749676284386,-0.09205467106438182,-0.09037126839804425,-0.12980381042684153
-0.09948002432084621,-0.10232020246498767,-0.15254879295404736,-0.2398528282662794,-0.07756220674682943,-0.10162205950324538,-0.11215477628516292,-0.13248232106543134
-0.12312660933929576,-0.13733648640434096,-0.16894908492625302,-0.2634767789917136,-0.10292135879878263,-0.14222087797482974,-0.1721334475804257,-0.14703932077636392
-0.10165704808800245,-0.1106240584722363,-0.1409371408620444,-0.2397214425155422,-0.07683799776699426,-0.12457484819349275,-0.12288706099018588,-0.1342562325695183
-0.049623086677163156,-0.08326441079758805,-0.11184688824170466,-0.18379474515675576,-0.056937609146434864,-0.07842753705243938,-0.05759224932719775,-0.08488054806895844
-0.06837297347970471,-0.09129881551791953,-0.102876689332487,-0.19319076873030708,-0.050545085397588674,-0.06301884051718173,-0.06944320594951302,-0.07924281212976353
-0.07493458120671105,-0.08708928341384505,-0.1130384352875547,-0.19385449236412133,-0.05779508479312269,-0.08502046555012746,-0.09945213025279716,-0.06574515157070597
-0.04725293765069703,-0.04798185931072296,-0.08417095575431613,-0.16093188936829522,-0.04931016321636132,-0.059459843706998375,-0.05949030630023248,-0.07716260579177726
-0.050392806032353736,-0.07662911618947124,-0.07983805131107456,-0.14890141914345242,-0.043196449882293445,-0.06648185801439933,-0.06785842215832813,-0.06259195994391004
-0.053446640346640706,-0.08347300230799586,-0.08473354694136467,-0.15216241760179677,-0.055026417871043856,-0.07478456552781197,-0.08750574186662109,-0.057023916649485126
-0.0814109949796703,-0.08876942424936425,-0.12035302698223842,-0.18302406161185433,-0.08067867421143152,-0.1229010228429023,-0.14790422712810636,-0.06309322855349739
-0.12310268883794319,-0.08574538843359351,-0.13107395915398126,-0.2090662328783199,-0.10402781079917256,-0.16184993566767109,-0.2004904087448115,-0.07937533718256294
-0.07714605133355476,-0.061119584345586446,-0.11036559310025866,-0.1816401869233412,-0.08647045948676975,-0.14359446971131684,-0.1610607584293654,-0.06528728565954939
-0.022608120351534318,-0.05661046352342587,-0.02416466729194858,-0.1031214877713302,-0.02744526505246149,-0.07178286560633476,-0.05614899574440169,-0.03938982885667835
-0.01580722770853284,-0.04426613635695712,-0.02868053583108267,-0.08309984458814515,-0.039637853832597894,-0.05268428315035485,-0.0401114139141972,-0.05174865177870621
-0.02686257360872482,-0.07821171419446651,-0.026459736547096897,-0.08878377138594815,-0.04386934381123226,-0.06833303334033894,-0.07556063063496601,-0.043102316770391176
-0.04168430373241519,-0.09443078455035323,-0.04010385544072134,-0.09311607277567392,-0.06459073634557871,-0.10680612858335414,-0.11070724714396511,-0.07015288073126356
-0.011681113139691737,-0.05108532034059764,0.002407057861092474,-0.04922270997730921,-0.042087243362741465,-0.0505489959985291,-0.06276126007480787,-0.06746638359431004
0.012504707404874053,-0.0039482049964984665,0.012232733774302926,-0.033022356614468895,-0.03046894917401206,-0.04762293955040895,-0.04708246397820485,-0.05081201041707667
0.015383277734094527,-0.04030691070768197,0.020134428014929324,-0.04527444707216967,-0.02561853274614265,-0.04211273578252362,-0.047601702422705464,-0.06725918037137488
-0.0051416886536559785,-0.08523340432984279,0.007260242489172588,-0.05897758532779948,-0.047750424534000045,-0.06930349186633945,-0.08847313126206176,-0.05838597789359277
-0.00903498193807865,-0.06232719408984141,0.013736771886884295,-0.04498073556987195,-0.02965673635212721,-0.06034821760097317,-0.06375222993656829,-0.0733734965773988
0.03499084542031044,-0.024574511472079716,0.0616902212578259,0.011257348961859596,-0.011517794355084435,-0.002152902852566355,-3.904451768490402E-4,-0.043190431610821395
0.04173057490173302,-0.030360682042664722,0.066013365401267,0.029806701894228776,0.010704143621144076,-0.002286302774109062,0.011725246893735861,-0.05151075458557605
0.030317464796293173,-0.022267972156609424,0.04976653771015573,3.1218443354674177E-4,0.00944907861173015,-0.007551201838870001,-0.01349044773229747,-0.05104670599091869
0.006158093828940163,-0.039458191209786726,0.02372758783668935,-0.00961748309770543,-0.020330279679350954,-0.03922657681174968,-0.0625674466615977,-0.052900601236161124
0.03666852263717557,-0.030358230053485934,0.06247441853559646,0.028435975694452897,-0.0021623999402160064,-0.012058338532559552,-0.009250512261518086,-0.040209366875712006
0.06647829544028827,0.007753530313533616,0.10588166000550057,0.06985431881425491,0.03747136951390559,0.04909593682579224,0.05231932311356418,-0.039717048784434134
0.07124644010512389,-0.011252395501839235,0.10137819320908774,0.0796922961015644,0.037360745310310195,0.04921849956723109,0.04716406459953927,-0.03595686496321449
0.06348754003523704,0.0046272275398485255,0.07728080435045043,0.05240839032412772,0.037908937176771976,0.028153501973664227,0.018533399951212712,-0.03373659557800428
0.03329760769236587,-0.03743763527251078,0.04871826164864712,0.024453864868495854,6.187280382034527E-6,-0.00146931260494427,-0.017906836724721202,-0.04324963679976479
0.053056855079479874,-0.03204266406651381,0.07129901343074731,0.04485321592870533,0.013222564310722783,0.03223516393974309,0.03249709025806231,-0.03788850663893281
0.08624610372294274,-1.362099778872212E-4,0.1098175457111319,0.0856394973740014,0.054728644314620024,0.07789183828493493,0.0867602957136542,-0.017633220150258738
0.09764118377124735,2.1819480638551303E-4,0.12064527906895385,0.09814103167524935,0.07639069733369466,0.07658351291653821,0.1063865120286884,-0.008669632168647839
0.06378039304074636,-0.013922235954666797,0.0860313991226895,0.07113096066951441,0.06519593205354866,0.07013289338242513,0.06979825701480923,-0.013260177846519967
0.05555080767615648,-0.04457058076162094,0.06701953172475818,0.04674777670363041,0.05283193886247236,0.045493291332432476,0.039514066567229014,-0.01244670349093592
0.040891284088697626,-0.05978710906030319,0.055569651332379504,0.061597206784595335,0.04771719923793757,0.041194960680359854,0.04541042806374405,-0.05349597683328935
0.0873224546385287,-0.04159263950549222,0.12137497849364419,0.10986720367255964,0.05994958113375503,0.10110868508275955,0.12583407589595083,-0.04685249345833231
0.0770946348258649,-0.0010133711003960841,0.1099008736083758,0.11436481356174039,0.07604589492684917,0.11322446023986797,0.1415206909049754,-0.025455468596499147
0.07347102778230956,-9.055585783530789E-4,0.07335961737202604,0.0954649391987314,0.059367520164249184,0.10157853019626696,0.09983738404491475,-0.031904520927850295
0.030225485336483525,-0.030319405907309,0.07207904039036211,0.06625804457583293,0.027899229708653668,0.07069975726988934,0.07079302261656743,-0.08074043899838651
0.020703342775320172,-0.02467217042326673,0.030042160597057103,0.03064250990132423,0.022781085946232224,0.028091796861014408,0.009382131511220013,-0.14151474906832648
-0.009591407874401048,-0.061745759757855435,-0.005392681473186354,-0.022779425206470864,-0.032016840933369005,-0.029632864214340304,-0.04597771725150684,-0.2124740020744588
-0.02584142203426963,-0.0432474606388039,-0.02805825039672529,-0.058045137256789184,-0.07767386162432498,-0.07612183153943676,-0.12956540120155347,-0.3508329800872396
-0.060675677780108406,-0.004246285413209176,-0.07479557765083199,-0.10843947873707249,-0.1242039837111535,-0.13778449944566878,-0.18237511240803025,-0.40172501222657847
-0.10760561290256318,-0.0465792359120407,-0.11897397002452696,-0.17132286192189336,-0.12693632501549817,-0.18543958111269143,-0.25952806738130885,-0.299450028440895
-0.06381659129031354,-0.0965997612607084,-0.07348774528003758,-0.1228844698581857,-0.11373550072286798,-0.14757848198527335,-0.18189624001095425,-0.3344367741957517
-0.012989724716159114,-0.09463974966064774,-0.009772030908530023,-0.04248281052006813,-0.08330200833419663,-0.059098370862285865,-0.06070718713418164,-0.33624271008571577
-0.02151890531919056,-0.05585666744023867,-0.013499005873866645,-0.05338401501787225,-0.0704637559461511,-0.05459074118903908,-0.04949877748270578,-0.30473787214969317
-0.02783786061799953,-0.06451168854143419,-0.03420178404645279,-0.0878091498990452,-0.1063581497707491,-0.0825569914384412,-0.09491232612780294,-0.31022509284113786
-0.05603601284828766,-0.09870095080248072,-0.0652561779816918,-0.12384918994108511,-0.10233812145141648,-0.1268624088274788,-0.12653090236212208,-0.30915173173744775
-0.040195011374870124,-0.09039440583427848,-0.0513568259471638,-0.10535144924415371,-0.10774092294834238,-0.11318506351930199,-0.10046700739860699,-0.3328264486105266
-0.015563591598559847,-0.09638182466630818,-0.034414094571956384,-0.09714843992032647,-0.09239152997123326,-0.06576794759185116,-0.05457401703187853,-0.3379840316044146
-0.026075115964697068,-0.06723862112948746,-0.03227000663971484,-0.09866560815407045,-0.09094379818645741,-0.05884687561351802,-0.06609733005556737,-0.32787658887385707
-0.03349925965450756,-0.07752499706626581,-0.0545019549806894,-0.10842796586893981,-0.08110983820510902,-0.09882954180349761,-0.0898484946172065,-0.28888471359084217
-0.06257261855597249,-0.11700927425476246,-0.0733313174688624,-0.12458312975542986,-0.12001265908299912,-0.11976002129444259,-0.12569792364022572,-0.3164536790916648
-0.08517087511608316,-0.15202702486423358,-0.10408193493648858,-0.16226866357024072,-0.14276527069021264,-0.1600503011594693,-0.17075398268098504,-0.37633676209058936
-0.11220487744844533,-0.15904468215511874,-0.14557920954266984,-0.20534109573922382,-0.1579978218383093,-0.19649043668678906,-0.2340052062671148,-0.3545893912655478
-0.14924078568058338,-0.10324822506077545,-0.18259157154874983,-0.22430925087288722,-0.1750954790759919,-0.2502246281154313,-0.3142301493700156,-0.2851956235592483
-0.17639364300341728,-0.1196638535655858,-0.22092087490686277,-0.31501410313750705,-0.2066317416304159,-0.31102239240646595,-0.38831008098887093,-0.29804945601653476
-0.14763866846787818,-0.1935078690720965,-0.19337829243227803,-0.2809575777681118,-0.20587891119959897,-0.27847680891751675,-0.3487071397753063,-0.35550178286295625
-0.0701072247519258,-0.1566101605298038,-0.09999941655636209,-0.17093293238061744,-0.1525867492653548,-0.17655561557530383,-0.18116557424005947,-0.33999124724492025
-0.05193420473047712,-0.07306012279168335,-0.09024692324703097,-0.15466002031958112,-0.1408466647049394,-0.15471039580168194,-0.1652154397743233,-0.31842368824579453
-0.05688086599789444,-0.06503802787687925,-0.10034384035546232,-0.1715484318036405,-0.13338963156193315,-0.1827447280631721,-0.2036772842610147,-0.23247423891292607
-0.0915206743910762,-0.09272832025076636,-0.12024887708996547,-0.19687318648520621,-0.15369379098461866,-0.22579679185204166,-0.25156828583127094,-0.2889669587108692
-0.0696469647975743,-0.11009832676561453,-0.0994335984684805,-0.1855748359311935,-0.1561993011449191,-0.19872450619319032,-0.22292755048886873,-0.3048064225586506
-0.025921257265625525,-0.10723260566770602,-0.07121007247849259,-0.15511179364455852,-0.14160127593755742,-0.16711163933747253,-0.16868067652109264,-0.296216248546583
-0.03730067649376685,-0.09308541728165422,-0.0636315244379881,-0.15985684185535437,-0.13049306425024573,-0.16570702489942835,-0.1678897030533501,-0.2538931070306226
-0.05551733652275924,-0.08827669081833213,-0.08126079013163065,-0.1754445941893214,-0.14088283623204828,-0.1834888043671036,-0.21294384472043287,-0.20837613858637158
-0.06116530984384572,-0.12306061282742105,-0.07215852445614963,-0.1832941779152765,-0.1534581117875443,-0.20882600645243132,-0.2292670487466455,-0.2473728764692014
-0.01553951821110143,-0.1188084476587142,-0.031775673568486935,-0.12369459671477313,-0.13297833366268544,-0.14198684904274275,-0.14371782466231578,-0.30243413281804177
-0.013114866473665566,-0.13293271566298034,-0.017093937206700677,-0.10463600846501783,-0.11596093282087848,-0.15099614524193306,-0.13647881907172507,-0.28688241587374197
-0.021423438090849508,-0.10802835266681392,-0.028480051259869733,-0.12652364687447912,-0.1259426912968412,-0.16441892864860383,-0.15663463777651118,-0.22529893693227332
-0.026999128514671962,-0.11388858213440252,-0.06126366204264128,-0.14264850771307955,-0.13985396913701728,-0.19072254259649465,-0.21708564838304056,-0.22957873434212914
-0.00952489439737415,-0.11223836621505064,-0.009390318833129322,-0.09684744859320121,-0.12910591217081857,-0.166977192918263,-0.17716403937143899,-0.24734156208314076
0.03119302792471332,-0.10154602141105439,0.04732220042585705,-0.04465139628634082,-0.10800989280011654,-0.1151354594720103,-0.10043754010386041,-0.2757670049378861
0.029195419195814525,-0.08659262204088002,0.041151603924168216,-0.03597814846921746,-0.09074213356268575,-0.10976512631476724,-0.09759682858410323,-0.2650578343153905
0.017916261652120617,-0.09404041979982772,0.030800967992687216,-0.05627487091151492,-0.08423342430750817,-0.11978291789753794,-0.13796513903031954,-0.17728187612606922
-0.0025176544177077623,-0.04873435135276965,0.007463877940211673,-0.06345073638711211,-0.09088518980758906,-0.14732734993367885,-0.17451492543138555,-0.2005307691606895
0.04465436698706328,-0.09322887890238665,0.054840932199287006,-0.03308614771454312,-0.08516049482937393,-0.11948898921869588,-0.1315166396145463,-0.21708542737627576
0.07389385210903278,-0.0581097660964651,0.09123107108931033,0.016662228961339832,-0.05750316551570875,-0.05893667889890276,-0.050782854510296696,-0.21921866403608284
0.07998833424796263,-0.022364301523122805,0.10452249477919116,0.019931312741113302,-0.04075223667408574,-0.05277776993170708,-0.062237207687903556,-0.16891072419502265
0.06313975226353456,-0.03137086014920865,0.08135445289172838,0.012684375352749678,-0.03444942549545008,-0.07012098074920801,-0.08413741395660736,-0.13954810454936925
0.04435025495785835,-0.01904264284403612,0.06543901700818182,-0.021157574375178668,-0.04398882084158586,-0.10291557262023442,-0.12010172489191553,-0.16560129321672126
0.06193738444656581,-0.03618229722237386,0.08489654212758016,0.023160410104472597,-0.046751993939666885,-0.0777797176996299,-0.10246553724888541,-0.18824390389192105
0.09114856023800212,-0.051246747358600096,0.12877822949965154,0.05176056698234472,-0.007427169047608587,-0.014779360469643458,-0.027410232416288476,-0.20215083035679673
0.09574381528439206,-0.02303982206046404,0.1374631577396169,0.07877263610008955,-0.018290623237252602,-0.02268620199094801,-0.02823848900388418,-0.1933836809362701
0.08160574929895215,-0.03208944631279672,0.11834522034303217,0.04748620190565083,-0.027136433006407033,-0.043772081880481456,-0.060401933526008665,-0.20596274191992062
0.05745607074839835,-0.018841134341644025,0.08739314890070903,0.01693468353748004,-0.012491412493770403,-0.0565137058313622,-0.07637405800278346,-0.0917977638893319
0.07715105963085657,-0.042562403170951564,0.10523546420054106,0.05374059112345728,0.0019438708327720621,-0.03651151188960339,-0.0570249655739396,-0.09219054041354861
0.11286303476194055,-0.04348487904495782,0.15314675548181314,0.09054689114266903,0.00903299302500683,0.003937459305673137,0.003885739479097014,-0.20449129006715286
0.1027284575633759,-0.029026435307147463,0.15160241584971854,0.08858920521945358,0.02452188631697186,0.014149505689337644,0.017942579767177235,-0.14737640412330238
0.09377108047677109,-0.018435314904043536,0.13561829282805588,0.07051237444531783,0.018954682761779394,0.0038647198458082884,-0.016401336594819994,-0.05985300840949212
0.07897709073635839,-0.026902422617273658,0.11158951337098826,0.06168678081696971,0.02333841278489252,-0.04041927930420368,-0.05719698175920401,-0.023887716000736355
0.09061954157391837,-0.017934477289168423,0.1213053483416958,0.04684570300979614,0.012118784205651167,-0.02925119799652241,-0.07038707879765264,-0.07665085608778253
0.12593802815295035,-0.005617971217365718,0.1720709886160443,0.11474104562873207,0.03224027652194207,0.03836535449217076,0.02428269461286339,-0.10090448801439722
0.1199500001748842,-0.005814786380510542,0.16051645944017834,0.10638909338889804,0.05858316279599649,0.05355786004652256,0.03436073484058866,0.03997242668414087
0.09391022221581408,-0.010032388816322128,0.13480778448662387,0.07552734606245255,0.06645086007835721,0.03317827265665636,0.007716375730900571,0.057935382670349304
0.08128921000298196,-0.026310666472783135,0.10033714690165009,0.06068773146153549,0.05251720197041593,0.002262410570128515,-0.02458320886032163,0.06020499521570788
0.07546031156726125,-0.024394397103977835,0.0915557591324217,0.06289606814453913,0.041198808371933134,0.003002721367440324,-0.018987496005991217,0.06869937822200664
0.11870880683293074,-0.05449389425289082,0.14340962975208413,0.1105694638224711,0.07005378387264433,0.06350925727458276,0.054734646761179416,0.08376245707807417
0.10889384575613292,-0.04975578580909212,0.12527754557903897,0.09647372126687388,0.08202117573100223,0.06076366041849953,0.04825155332189086,0.10309572263128206
0.0867695675683894,-0.028360699295324837,0.09289803688622222,0.0598205380468968,0.06693999637450612,0.04685858541346965,0.009026868755409638,0.1168016747130276
0.06410706995001023,-0.06335938259235556,0.07300422450836237,0.032860240973240654,0.03705195458669376,0.006702537487119187,-0.008183205264056427,0.09188029220011334
0.08180344314667183,-0.063185587849017,0.11890150537622483,0.08748038306461682,0.06697451660240762,0.05284267201618394,0.051355245433871745,0.08088641137566849
0.09869651471733783,-0.08603183920328432,0.11926375257721675,0.0846784122840503,0.06872582900242019,0.07756327598635951,0.06256106783869932,0.09506032727612969
0.07935130633160992,-0.09279449636715774,0.09541439097591481,0.06891996826359352,0.07850322400846843,0.04175295212227368,0.03941867398867935,0.10322336298754885
0.05140977563783566,-0.08975476037025758,0.0676283553170711,0.026749669673116087,0.04045092299009939,0.008359376040746037,-0.007821737989768726,0.057561280029140016
0.06622638538122101,-0.08297412941097076,0.08106417075958085,0.0633133376477936,0.04610378198965,0.03537941868011219,0.04150327617194403,0.065161887016703
0.09007428797097784,-0.08877540366701175,0.12449827973082117,0.09280461713596368,0.07383219904995104,0.07519598702713041,0.07213084518467369,0.05839096197720528
0.0761530908791121,-0.07550447897541156,0.10597059149657284,0.07730052787315962,0.06657097897062739,0.06432286966339539,0.07304784191080255,0.02642850977639887
0.05557402968375257,-0.09674535847426097,0.06876778981913663,0.040473151673880055,0.03781846825116392,0.015226399196284775,0.01935595078934807,-0.00306805747606873
0.07636607561752554,-0.11160315836183611,0.09663076673137498,0.06368013492401797,0.049120300034637465,0.050391222621847594,0.060417487099261,0.02686348456851355
0.06778904850104063,-0.08932771273725895,0.08566123276084642,0.05947421411942107,0.05807287293581945,0.04760383337523086,0.05366472568155363,0.02414102692928316
0.06290965163337714,-0.061038588641746216,0.06627719066767178,0.04105028379764192,0.02013574692826444,0.02924837017555248,0.020846187752743512,0.032512531156348924
0.017947593375068648,-0.08197653558956706,0.027907996743002383,0.007330632354781419,0.014676979040953692,-0.009241841291835312,-0.039307642573558774,0.014139004927605744
-0.006728600422332448,-0.09556448099471232,-0.012855310850311335,-0.02903288158250043,-0.012839538751364158,-0.059763179189867746,-0.10481212227384207,-0.022025678421328226
-0.046624202101754955,-0.10685987478034951,-0.02910573005823988,-0.07550019817957287,-0.03299143650379543,-0.10833659449881236,-0.14274772341769157,0.005994104474301466
0.03373345694919827,-0.11607729317321976,0.041116210776845886,0.02750087857426979,-0.01018116346752036,-0.011042628363734926,-0.010551210025243413,-0.016639488156818986
0.03863395094559662,-0.116441221429959,0.05123019264153743,0.03292001230902968,0.009910706229567717,0.0031394119863727508,-0.011576962210177023,-0.052482610739541975
0.02343914242622928,-0.12023064814550163,0.021125057423783313,0.005349326999388976,-0.009926869023712079,-0.021176674863243164,-0.015581381866679173,-0.05254060398057174
0.003984647632293372,-0.18385096877082033,-6.771322735844829E-4,-0.03816614080126846,-0.02554859195426795,-0.04873496174655349,-0.08363132608605862,-0.061771966953084
-0.010969065983585467,-0.18577492885496047,-0.010781503522662883,-0.03659193529761918,-0.04800787363719952,-0.0765033586404211,-0.08975333181746874,-0.06661964478010254
0.03007334389179667,-0.12009952227919281,0.04020476393250068,-0.003977747817218577,0.0047359882664601855,-0.025008551627683687,-0.015393250770707733,-0.054452218804370386
0.03208507451359279,-0.08565993648962586,0.03323505026364661,0.0058980571741367805,-0.011789171059941652,-0.025822678923959348,-0.02667535732027401,-0.020584998870134368
0.01200592332213023,-0.1080563191119588,0.012375244664042379,-0.019778117011433758,-0.02626996268567612,-0.051575667802734516,-0.06754831541011092,-0.04734579545878315
-0.025482091584123935,-0.1657961124533599,-0.0188050033948472,-0.049248032394482076,-0.04309139775210378,-0.09122526656812065,-0.11259573334283474,-0.05899669823990261
0.033924496615348534,-0.09938746340090494,0.04086068744015983,0.004517747728603155,-0.019778191668862036,-0.03766101836514673,-0.029032037163231293,-0.09214971912721599
0.03837524607426005,-0.09361163379243806,0.048703781461133376,0.027297720164066938,-0.00981777102473291,-0.024775904708929562,-0.019541376600558005,-0.10176538669632279
0.03864842693786273,-0.06910874445321706,0.05301210880704931,0.0027402479532070774,-0.007835778740085965,-0.023494144288539243,-0.025839731324807044,-0.060743786149882864
0.013762708515860214,-0.13584410546049105,0.03532808543311485,-0.01823967429738847,-0.03230307781580795,-0.05324209579395204,-0.05887413338770038,-0.07671818773394636
0.024126589862762306,-0.11189834522969057,0.03065420452842069,-0.006509801454414831,-0.03723515655676259,-0.05108060836496262,-0.048188318891622534,-0.08354145669904733
0.0759304695548813,-0.08166239433037892,0.0949858956346594,0.06343416529896223,0.004713783738440014,0.022222377774803986,0.03702551058017085,-0.043706165366023654
0.09152024158707832,-0.03959583817379747,0.09641976164028487,0.05368566610718327,0.018839814969624495,0.011908410621496238,0.04176607887674039,0.01092658063701897
0.05306249680095848,-0.06973085884075272,0.0712379464011642,0.05004527400282129,-0.005898792885706967,-1.8208498117605664E-4,0.01339425670330449,-0.032006357372411275
0.031902515037086285,-0.09972310365698606,0.06067910345672125,0.005999455044408384,-0.02575205455720216,-0.03445020088199748,-0.045040842315948834,-0.05325232558802409
0.0774332201500722,-0.15354560619278954,0.09431075808162277,0.04540356421569712,-0.012995618444649427,-9.647327065830337E-4,0.003800340719425718,-0.13843980186660235
0.08800461841534139,-0.08593416367416544,0.13120140140112532,0.07830250792368913,0.02966780445155491,0.04328330136361851,0.0631366565889687,-0.05921927185466938
0.09382851848114616,-0.039766707341378514,0.12465494557895447,0.06155738205051548,0.03301107471817072,0.03979836798335415,0.0415935124769008,0.01516914552304881
0.057814761269228826,-0.0920488050765481,0.08954409536310967,0.03397460014675201,0.006829070104620756,0.00936872762824666,-8.095526494034176E-5,-0.02762719932605872
0.06077943939183007,-0.10321336984463142,0.08819038305744754,0.03158049930126785,0.0022748339612799063,-0.008812119540268675,-0.01578625435808136,-0.05119170044923794
0.10619954291246705,-0.08476365591609518,0.14681904505952473,0.09021629576751043,0.02268403637103042,0.05834686614260309,0.07786428818340768,-0.03162403861671304
0.1115432699176212,-0.06685471123870344,0.15454690573738336,0.10093178745058377,0.04648492380791624,0.05588430523261519,0.06651690429199812,0.01891262888339636
0.09265106777581664,-0.06180153296226448,0.1320640373353552,0.09869860853649481,0.025836085212568104,0.034279849877860084,0.04505423878060678,-0.018128385967389898
0.05597779807349125,-0.08711235667709247,0.10264956365650345,0.07065170986649329,0.01976055987753465,-4.6321100348326147E-4,-0.011929282829129353,-0.037898806010940804
0.10041911355915117,-0.10284956961002566,0.15313753126357618,0.12916742058602368,0.03638814751820273,0.054177073820401565,0.06661119620214376,-0.039275913843385954
0.11691527957080089,-0.06448870612538689,0.18324052611004968,0.15758543984569387,0.05739747593082194,0.07211119069624129,0.08164853444239802,-0.03794191036724432
0.10745327551776161,-0.09280343313709329,0.1615611906252409,0.14411236377748157,0.03415394056317697,0.06421190125949296,0.05988456334876669,-0.07186939372107856
0.08488481077251757,-0.07703789496089121,0.1394939280481759,0.1053663787174609,0.006113908666975141,0.020593369621731937,0.013865711222295752,-0.07428925896855977
0.06853085951586259,-0.08935231381257773,0.13108390787795768,0.11459591350519961,0.01901411472365622,0.004054247724104123,0.009639494736976863,-0.08857947754395964
0.1268442683901322,-0.08371258826001812,0.19051803777476312,0.17725311709513739,0.06393008459512198,0.08786600995419672,0.10263719540535562,-0.045820050581947505
0.12631829200761735,-0.051274438390860676,0.18451289068275856,0.1712113259082882,0.07003444492759864,0.09611303574869623,0.10489658525411014,-0.031125109145159938
0.11845554351615303,-0.07038073485162277,0.16334450654160582,0.16423339664228853,0.05795004181854258,0.06147964819044645,0.07683675524421257,-0.026770737731451708
0.09543088350537349,-0.07152199857009339,0.13669831582329756,0.11641446784801508,0.032710112775841994,0.028721010453241682,0.024119386869840557,-0.08204456729314896
0.09781343821827825,-0.10821271654206939,0.1282029573704526,0.12524752534006006,-8.585336123029844E-4,0.029799428290694763,0.03311045741865985,-0.16747214035859578
0.13732014070258428,-0.07496947601637442,0.18419898913829544,0.1861932534455583,0.04649944586727351,0.08541251155973426,0.09508908541672874,-0.09287909660792147
0.13065150619000498,-0.025437462428806908,0.18459463779137597,0.1754954529427177,0.05797521403976704,0.08669270495341105,0.08933642046355801,-0.026862763188470792
0.09755632633349667,-0.0540102392671646,0.15464992961281668,0.1398497223201308,0.03222455258483691,0.049407375050958886,0.04997836487836574,-0.05437722123953441
0.07914738851656977,-0.1275493550670836,0.12124598338652827,0.10760157849348383,0.008868572076927041,0.018276674191112948,-0.006231140926732668,-0.09375296279315297
0.08391209733582906,-0.1325086490310706,0.1433508965645827,0.13539314563101013,0.025491184629326667,0.03359861946494155,0.023400712180470826,-0.08844588332586358
0.11510579951724544,-0.09135065009250441,0.18175181435435275,0.17807471862057772,0.0563300218035014,0.07953045929703215,0.08119476309257435,-0.015812498205226084
0.1089451523744303,-0.07605057333338683,0.16591921291276387,0.16727901245572496,0.05925616708971751,0.07532026181508927,0.08548251473336517,-0.003606800511970024
0.09389248183396849,-0.07948558696026502,0.1271167146977062,0.138566404130247,0.018416867164354537,0.03397371239258042,0.036856242371805265,-0.04344121205241937
0.06324286740720354,-0.1027808919257447,0.12201765382154332,0.09953877806390565,-0.007036855328797443,-0.004515553918745215,-0.029286191958244827,-0.09037005824662893
0.10769111916014458,-0.09834519759126793,0.17242493443403462,0.1749838255049028,0.022301787017388094,0.03823859600802593,0.05264743390834755,-0.1317126481865373
0.11097361668789865,-0.0675355301454749,0.16482867432308043,0.19723180849282373,0.03712892636631118,0.06218374284303133,0.06573068326057256,-0.12019146173962064
0.09047565177416612,-0.06208334086435289,0.14009786144428357,0.17799206290352093,0.01671803033746054,0.04562910770639745,0.04432513496722675,-0.05954418721666996
0.054473867121468345,-0.10114295554575146,0.11611625818169974,0.12901983670473344,-0.0049015571922202935,0.008226670824269462,-0.024675501773722616,-0.09508303812027225
0.06468622999114874,-0.08726119204388107,0.11343787755346782,0.12925219550967806,1.1122168769209476E-4,0.003830859852568274,-0.025634426930417783,-0.09611942992087151
0.09943339546864492,-0.054691216287368664,0.16627138876909606,0.18173455739802702,0.022020392379938122,0.05700350691119068,0.0649470968857753,-0.0535407976154455
0.10840668849851098,-0.072398333992107,0.15674780147016187,0.17340968351318412,0.021404934541712932,0.05576931426563317,0.04935760194244716,-0.06378901422425502
0.08012062823868576,-0.10761614047449344,0.1360145560347068,0.15861182424934725,-1.5332355762835782E-4,0.023287548766871346,0.01613986455569,-0.07689717755357989
0.05193392957951966,-0.12032600060187029,0.10612818685972719,0.11249894711449672,-0.02921399384687685,-0.02218040835452897,-0.05208758658873735,-0.10726571930631276
0.08282046867067563,-0.10627318029935809,0.13458852950833852,0.14863600933068324,-0.018288343241842763,-0.012997657656272019,-0.0026700351794126647,-0.11459722642909707
0.11291238146425218,-0.05418445406465921,0.1613227014767471,0.1801687114210192,0.013903235941627843,0.04146338216954449,0.04263472703758098,-0.09390123199256656
0.11217091498721711,-0.05819760138722174,0.1530185960115431,0.16115222856316072,0.008835171971339756,0.03902219941343415,0.03490260328019008,-0.11411116952880958
0.07632974382351065,-0.11418684205989582,0.13278177341523323,0.13220717512893954,-0.021674230385267657,-0.011598119427376213,-0.01810048465018937,-0.21122174460859594
0.05845154893178213,-0.17879018774997324,0.10262481481921722,0.08569508079560866,-0.056894412636508636,-0.045717995831007545,-0.07990612833216038,-0.26006739838141363
0.08053868427464915,-0.1326619266401272,0.13651257804412464,0.12914028322168342,-0.04375562748034722,-0.022258854106333697,-0.03331375022123601,-0.1759790505346637
0.11685857911688824,-0.08042656802463359,0.16268627302282068,0.1645988435641645,0.0019540531999386523,0.03110959121386839,0.021832866573202398,-0.14419054235081433
0.10153883824214006,-0.0760630792005689,0.16234982257208444,0.15249770698223872,-0.021402880008388456,0.011986547169096699,0.008533577241796202,-0.14796114453029957
0.0739640351286554,-0.1012001321513915,0.1313808277662481,0.12153607258938848,-0.04994344722501766,-0.038427849376393125,-0.04365976424649414,-0.15974245588976613
0.04900678923646816,-0.1425959809094461,0.08150391846091556,0.07059881388943945,-0.051894251202545115,-0.07945355080063732,-0.10134089745567608,-0.17415457673171575
0.010376222901149462,-0.10821237342162568,0.03842674083604466,0.026743977625378376,-0.07753455038488938,-0.12773045534003008,-0.16965703784160366,-0.1929251752123975
-0.028899707566432127,-0.11149651852105173,-0.01830162403109969,-0.02963587003417693,-0.10731641387741322,-0.17884773392304906,-0.24279757452082495,-0.16044524390904105
-0.08626301613027257,-0.15495272462765342,-0.04925721168589018,-0.08904409694389492,-0.13080912486216506,-0.23772963244812845,-0.3273394185519435,-0.18100700369617095
-0.13469889363525514,-0.16980765078687027,-0.12172595943029596,-0.16210892863419324,-0.19490046871867003,-0.2960373973882488,-0.40015375207980874,-0.19682489614275225
-0.07892025806222437,-0.18623668101614274,-0.06800860818334008,-0.11149712140694046,-0.18219539678097146,-0.2801871713820106,-0.35953657904443964,-0.26386771807780146
0.02649248464885406,-0.16208202773801467,0.04661532390541764,0.008465796318526597,-0.11289068039507474,-0.14982488910880049,-0.17654733348935062,-0.22752502563505758
0.030715922109170662,-0.1383806799843228,0.049204424554094475,0.012529828912455614,-0.09158395571794878,-0.14365167859608238,-0.16729366549226285,-0.16992151769721406
0.0052312506831276445,-0.1651415984786833,0.03423034122047502,-0.024218296071106687,-0.11873067754645246,-0.16634585033755495,-0.22009857094806334,-0.2515788650410431
-0.03549923557427416,-0.23475918629887968,-0.013477783152397971,-0.0783892275930735,-0.15354824285909324,-0.21976527779776092,-0.2747944508795842,-0.2710221146610748
0.03344719690772395,-0.18131746861893683,0.05517383431281886,-0.00509067549569053,-0.11322684424008453,-0.16230782248806494,-0.19692735709523793,-0.22231495410585128
0.0595046745434967,-0.13019385966584687,0.06647582955748996,0.03818005320224581,-0.10211191893262997,-0.13152266014013458,-0.1555583400190056,-0.3007549362884602
0.040375782528646015,-0.15799336344396195,0.07563048844868375,0.03256039799960267,-0.09142290707054375,-0.13503970395630746,-0.17232800702560125,-0.2514142546196154
0.019135006177551886,-0.16177902155635157,0.03597715594765317,-0.005687755663998662,-0.10703112340821143,-0.17107795187330718,-0.23561161499164499,-0.2741336025646227
0.033631590667976184,-0.16879663559890523,0.05771331186636973,0.025160514309905336,-0.09866050951809538,-0.1490563257671916,-0.2023482717502595,-0.23617524021452363
0.09230359251622171,-0.11143231333313465,0.13564790798371038,0.0946147086487536,-0.0366572463598603,-0.06445204681467345,-0.0833535889251015,-0.1917796213270675
0.10996982524269738,-0.051494993597498734,0.14716396958950115,0.0995970346705946,-0.005525936472038902,-0.03623914765750512,-0.0778866872342717,-0.17546596355573846
0.09525691341307262,-0.10329108764081378,0.13919609590258175,0.0836422085756581,-0.005174491890565751,-0.051044596715599064,-0.10755164834014352,-0.14699859679279653
0.07643443275272474,-0.11271940408552407,0.11045370497846217,0.051465244191884356,-0.04279176391215555,-0.09150800420382152,-0.13576940961735376,-0.22017737547983265
0.14590093842805127,-0.08215118258852475,0.1939916151713511,0.16451026030391103,-0.0017939944573051863,-0.016418538300124522,-0.019704037905343495,-0.19104596068317617
0.17450772294897718,-0.10444452905388857,0.2194296353620044,0.17748590464766276,0.01889224623661302,0.032923825139149425,-0.002066633222337358,-0.21032220863369333
0.16800842299557864,-0.03393415963026375,0.21273902179423923,0.1712226412865371,0.04757867269453128,0.02042428330594359,-0.008640724578583244,-0.14895120462900177
0.13226634449194224,-0.06019625316158385,0.1787779308396125,0.1390749037377592,0.01876280591331194,-0.005659774213045629,-0.05566927773790062,-0.18131314571380586
0.10935411829921107,-0.10718750644590709,0.15141778877462134,0.09538401875977172,2.882067498862155E-4,-0.04331423264115457,-0.10064388139312394,-0.2039559554971285
0.056276387076002576,-0.12934687036862477,0.10845663897310169,0.040041345248814614,-0.014207181172197207,-0.09115671051665794,-0.16377051694627742,-0.19583631227678971
0.022097324495223246,-0.14411408638227402,0.057449767032546735,-0.011079067674366139,-0.036932528878008825,-0.13363657242581597,-0.2229172690160025,-0.1406652998131265
-0.02717128759944838,-0.13068811268528374,0.0050308220959589915,-0.06221754061164581,-0.07079661080404412,-0.19307269423979445,-0.28539274644573254,-0.17174753901991335
-0.021446493805659467,-0.18983229513361918,-0.010076475558510413,-0.07672977208547836,-0.10089750420850169,-0.21026114861199513,-0.310380601248383,-0.2371742642165973
0.09930015548988072,-0.15271288003715028,0.15222112422878753,0.08293834079560479,-0.014164345645738041,-0.03577012620837899,-0.08071222052715848,-0.20777934431436898
0.12025310423055537,-0.11564154228031907,0.15799892463709916,0.09315932895674589,0.026988301676160564,0.0012013100637479294,-0.04393520505833435,-0.1833308378441481
0.11127553849002403,-0.10544639966626888,0.13783001884642362,0.08958711929675796,0.04113592537718739,8.126520996690023E-4,-0.042774641443159636,-0.15328348324326416
0.08805669847022597,-0.1220520872777454,0.120663299115076,0.04944439392615234,0.007510501163548731,-0.03322279908556034,-0.09204915599269903,-0.2188687251268531
0.09904499898121294,-0.11617272033218141,0.13242927164898124,0.0875734328788824,0.0035674847146192584,-0.02400552246758819,-0.06600243992303743,-0.29259696380127176
0.14584978281101318,-0.0983323860049328,0.17889883973629592,0.12231796556789953,0.0430093903787472,0.052525604796227886,0.008021781374652141,-0.22273077425214124
0.1528387744197912,-0.08136914248581524,0.1724293468729449,0.12806113896978258,0.07755399880817339,0.07477577555554897,0.03213405909970144,-0.12835278248189355
0.13285196240962963,-0.07132089922275142,0.15909632399288093,0.10343875306924111,0.07757611969953997,0.04674827165660664,0.005314140465270512,-0.13387682303465914
0.11437621054546226,-0.08256494797975754,0.13587913953141492,0.07442989932916368,0.050491026860794395,0.018370685859866044,-0.027950971773134606,-0.1680271689611193
0.16852673021151693,-0.0999659011862212,0.21078796095357125,0.16062853305874678,0.09000293383726467,0.10972263708362691,0.08982170633608877,-0.26399913055757035
0.17748711125828973,-0.0753420469797576,0.20575836370737757,0.16990898319248926,0.09722801961576652,0.12995370055035502,0.1167510825268865,-0.26983336485792997
0.16561093838328209,-0.11028764706817587,0.21023937725492664,0.16090017378626914,0.10086853897731822,0.1364527906227578,0.09702657413223571,-0.19692683002506456
0.12882286868066192,-0.09483565607812848,0.16389660153001112,0.11976717253388279,0.07477687813723814,0.10063503876372679,0.04542315035464107,-0.23729848791979358
0.14415933680122675,-0.09436874422340627,0.18810788010478036,0.14091381642733752,0.06840856802637985,0.10368515673626913,0.05826476727869402,-0.2890850730287482
0.18644726165969586,-0.08718089905500859,0.2272519278817424,0.19504062781329826,0.11375840343833311,0.16844979922629316,0.1548322489792589,-0.2436283941119741
0.19457494877297066,-0.05130089797016245,0.22749293903780696,0.20716414072014677,0.1477533377874304,0.185220447727353,0.1683903288607707,-0.1736968736674972
0.16809343139159366,-0.05372172284564183,0.21493778674418945,0.1723795886595711,0.13714321635740015,0.17398302859100875,0.12959868030320285,-0.1403666774362634
0.13686058072359886,-0.0947126701013841,0.18052385551527192,0.14672243655322195,0.1123130814132167,0.12725908251029225,0.09255753492408832,-0.19063369323110324
0.19267887165653627,-0.09559155336736389,0.24377908027819958,0.2031920718775305,0.13239083926579487,0.19052895682021517,0.16346980577350073,-0.20398209314600813
0.2207430543603515,-0.056793855828658,0.2538891535363019,0.2164647645367412,0.16086208765582533,0.22657336395519964,0.21245586506648984,-0.13491173027295902
0.21076568357429476,-0.03934664690964447,0.2505221709101785,0.21715680899862777,0.15829064693685438,0.21339697191428797,0.1897239291052053,-0.13939149415504376
0.18843437601310395,-0.06852315303927768,0.21838575880863664,0.18868179984577405,0.14893025322001077,0.1878104707489825,0.1516930273722778,-0.1405964303963625
0.18286437672763398,-0.05453286180956481,0.22995952560933497,0.18966340587461847,0.15553354286232723,0.18701302606518108,0.16233868767108103,-0.14868104558187592
0.2371823376846966,-0.04593257440716743,0.2838665269926988,0.25974964285970087,0.17497220529532118,0.2632615966615247,0.25012498146197865,-0.12328242098231475
0.22500279457614572,-6.068483275293089E-4,0.272643377506911,0.25053676264514646,0.19480449967369184,0.26416635940298544,0.24445576350001103,-0.1328669456420048
0.21190847705837687,-0.023468519671304183,0.2578443727600957,0.24147834533266563,0.17832171282554932,0.2327779133670908,0.2112411914677731,-0.14863996023576515
0.18376993519988696,-0.0470107831136584,0.22233355796216844,0.19997790343217345,0.1553152510502985,0.200196599252368,0.1740586898417599,-0.15553329919114933
0.22080674754873666,-0.06071026632186558,0.2634753675071864,0.2646692735483176,0.17806125011255458,0.24245621782948226,0.22445232183784153,-0.17742127742458091
0.2516049795764131,-0.03714784120626802,0.2930305644236641,0.29638229804546945,0.20362215840819833,0.296611628626968,0.28916842537061765,-0.14027598992877005
0.2545098121994989,-0.0425546110079659,0.29784602126970366,0.2886097632244742,0.19394507429963742,0.3019345972741172,0.2774978731016497,-0.11955610392805578
0.22600242305863677,-0.051505973501382425,0.27576144557857085,0.2547302671418078,0.18048637921797994,0.2778544346735723,0.2490363150363219,-0.13637838341693403
0.19749603234066146,-0.03297627360577025,0.24283967120916103,0.23255202466152522,0.1572315795542345,0.22393311448387201,0.1926532268820237,-0.21916416964860236
0.22641145353260975,0.006465441443799048,0.27175067791007174,0.2623931645003066,0.13552206395369357,0.2281290631465101,0.22147076309707003,-0.3415583980354285
0.28288876345788444,0.030682587484176894,0.3047723808127082,0.31835202891571646,0.17254225218901664,0.3090284181592249,0.2752413988927442,-0.2457757303761334
0.26265045364265316,0.045144883957459664,0.3053660661856395,0.30241132526139747,0.19723378931843083,0.29689837808527414,0.29445973328313324,-0.19477885681201665
0.250985146792089,0.03883152051718035,0.2814034782271477,0.262041235633089,0.16519748735539241,0.2709447047469175,0.22552580073224804,-0.2327000047988523
0.22286287981631703,0.05522709524734909,0.24861703946474614,0.22953682861101726,0.12919636392140318,0.2206168553911836,0.17474380320489033,-0.2618525946902017
0.2270151611973291,0.05750970046406699,0.24779399148642395,0.26003528316332336,0.14579768092901058,0.225113226679963,0.1864999820837551,-0.26252242415977434
0.2732962359222827,0.07898657955906266,0.29927297559855626,0.29331605812725214,0.15855754518082946,0.26377443309359444,0.2724070606376357,-0.2535525931250388
0.25600998909919465,0.04144942274779179,0.27550715987116153,0.2728591583750656,0.1327291969371685,0.2548716959662783,0.240918122602085,-0.3114705836100999
0.23097135338949798,0.043376951445558976,0.24817481016729598,0.22532938613299777,0.11272019869802137,0.20294836648739262,0.18041953107069997,-0.3624067263692618
0.19025067737013,0.04193294406211348,0.2158059721548179,0.18178224639869905,0.07923077776038956,0.15006145906753954,0.11606151019520325,-0.3801318715657182
0.1628977960395137,0.03729204983124508,0.1681020089066475,0.145507119376382,0.040466117309602576,0.10457727263950152,0.054717788983160404,-0.34827500650312054
0.10870077403045178,0.022037936016276023,0.1251288740075597,0.08268514445832675,0.01817031340223027,0.047715932707519254,-0.01765343514349077,-0.35866883867186744
0.07414691512595478,-0.028443614661505565,0.07174573288845999,-0.008759485635168734,-0.024968965911992512,-0.030150332427732993,-0.10584255881067109,-0.3835491105985305
4.6636828956767983E-4,-0.04284823065968433,0.006611969246128463,-0.07735796365639577,-0.0527767583900445,-0.0969024174821313,-0.20219921010709418,-0.4170620066572489
0.024407547025827772,-0.07916334205159839,0.028748381083844445,-0.03413107912056979,-0.05962815227169024,-0.09704441428273067,-0.18148387847104197,-0.3836153043594335
0.16452629922677214,-0.027426831771255947,0.17563363521174294,0.12541558277035872,0.014863568816278342,0.0674109032145657,0.04429074850534452,-0.29686008511041595
0.16260670328102703,-0.06487533317505151,0.17939533901725457,0.11673767024014496,0.018320207419934172,0.07831871941834491,0.047615964453021686,-0.30942552530328465
0.14303988558599273,-0.07306903108881257,0.15572672859876208,0.10835320271616986,0.01743534322502211,0.043167914113360704,0.007541113478684481,-0.3659446651162511
0.10335454412011169,-0.11639786836905726,0.11471373092435573,0.06904296984347298,-0.015249415977306837,-0.01839651534268924,-0.07390929761581183,-0.41366524947909195
0.11044717583387477,-0.06703098432226294,0.13530233333978928,0.07045277432574212,-0.019499465522481288,-0.01877194409122156,-0.06048512505289683,-0.38767711800103005
0.15645782764953753,-0.018603166540965638,0.195567968573537,0.14340751447888522,0.0396397460250883,0.07026014642212658,0.037092269393222306,-0.32543953797181974
0.1567678781947933,-0.031244156285955553,0.1873294495823205,0.1444349623768635,0.03841354825503329,0.0629416419308106,0.02108480203289555,-0.30792430591475567
0.143047251182946,-0.06653646851906589,0.15497033750236397,0.12254995395576998,0.018410852883122653,0.028937424484480275,-0.024340366864037885,-0.3653214646019623
0.10395979472149647,-0.05878112292578594,0.1152789006878285,0.07582179045457439,-0.013850742001007037,-0.019987817487990858,-0.10585756858445597,-0.36709484412886406
0.16738317081563903,-0.03376700626940863,0.19769931658859002,0.1532155186557552,0.016844678010224243,0.03063531297609862,-0.010750668171653748,-0.30549442494104206
0.204925662097451,0.018671680217231104,0.23101920506122778,0.18504386089939387,0.040787909562605126,0.07688314727150289,0.035158178435425395,-0.26015823389125836
0.19788403221857823,0.00906596970231279,0.23805068692275244,0.18243882918775683,0.04522378345014883,0.07446968323821508,0.021565072383237915,-0.22519846367761862
0.16031877469198166,-0.004073698794275421,0.19831414218712276,0.15741337971417188,0.028873104703373703,0.023090201616114536,-0.030667837214161844,-0.26993823920369175
0.13881985409617625,-0.02763165244251606,0.17384723573549415,0.11666394657940166,7.162896738742453E-4,-0.018391017323640083,-0.09050369235485142,-0.3378281588702473
0.2068889393485073,0.02858170245655404,0.2579795167792463,0.22768851763725656,0.040485364399661904,0.0658010503328317,0.014012446207840616,-0.28164154484352555
0.20772310844199818,0.02715808074168925,0.2639789632961728,0.2425045690357547,0.05380871778164092,0.08342516874674769,0.03897252186565426,-0.2301231621305383
0.19334473088811366,-0.02363356880495517,0.2707757572439069,0.18627542607734487,0.04033438482376468,0.052357021887255085,0.01805752978791809,-0.28060269068904353
0.15244678655930913,-0.08616246911673213,0.2210425700012463,0.1496503280789884,0.029187191781124312,0.016757607717311378,-0.03456663541137209,-0.24235302744034856
0.159621135026143,-0.07210922168710616,0.21352143471674176,0.19117820652024725,0.02478339145471846,3.7333714995863205E-4,-0.05227859687167566,-0.2619027767173053
0.22335156079894908,-0.051331995623340974,0.2928870837621046,0.2668684397407928,0.07002630598942787,0.09436944241520127,0.07027525320613456,-0.15560067392452667
0.2298988568996221,-0.04145971604331785,0.3055367565166802,0.2585322395935228,0.08656803557849842,0.10409832476615433,0.06380014117517706,-0.16813078033857118
0.20662970957488988,-0.028583891487024716,0.28301562822575393,0.21693495391341558,0.06776045678034426,0.08285493361239334,0.022029420158955627,-0.18655770239129899
0.17068035269802473,-0.06717880506513134,0.24914428475679082,0.17883539976983362,0.044003784262411354,0.04166607178500332,-0.043676826241631946,-0.2171126973840604
0.20767348389798393,-0.02924531305735622,0.30873840833562893,0.2579699552996174,0.06567590842489172,0.08705455543421267,0.05215828937490366,-0.23444267576698097
0.23653723858231746,0.004902649479403382,0.3354886186447193,0.28095184587189204,0.09307261909508287,0.11884249598111853,0.09736242260563902,-0.20653547064207675
0.23441753925959619,0.024911557317801942,0.3206843097538797,0.2739820638450445,0.07647569818966776,0.10707182909143875,0.07713910992435519,-0.22870374101775928
0.21074493668530908,0.0021935940012355127,0.3055482861787388,0.25148666596009045,0.07369775462122737,0.08847689499967959,0.054951030875334164,-0.22805198325005804
0.21864615534367393,0.006543697884212469,0.3158281064649459,0.28090899864917246,0.08095566811598173,0.09988719477965965,0.06526163567108129,-0.1588820553390281
0.21209465749325163,0.00711031016310801,0.30169612060915035,0.23228448801485713,0.08633396010392373,0.07955370421599557,0.04032883860673647,-0.1441520428137373
0.1770352547976382,0.043170766094901517,0.2560381514035891,0.18522641862988448,0.04397172386631462,0.046491105067039004,-0.014508789020036867,-0.16550379410856964
0.1595021783775845,0.13462887192956238,0.20806845228562737,0.14125914618386534,0.02498325845778535,-0.015262543071971474,-0.08263210262376663,-0.21629912957682101
0.10361079450473884,0.10096258383018444,0.15260468613875897,0.09181778879291631,0.001983360825580188,-0.05146637388068473,-0.1449007030503942,-0.1281018981138001
0.19765649619804518,0.11979128011253087,0.25101778894717447,0.21141072412098258,0.039231474794792505,0.023781983832137414,-0.016383774826982823,-0.10905395687382893
0.23413548020157185,0.12849766695420875,0.30557946674070835,0.262177749059996,0.06980101106141819,0.08153183575114566,0.0466762850668734,-0.21980110771064848
0.24095308560752932,0.13630767174278335,0.289767362362577,0.25694611546969925,0.045930678194076924,0.07229638012895213,0.03793359869749053,-0.33568760089986804
0.1809381682640716,0.13129151566257125,0.24266482816746188,0.20368429684682954,0.005717974130522026,0.025267148107681495,-0.019392323906703254,-0.31578988470493113
0.16756797803728288,0.10510315138798176,0.22542847070807223,0.1595337101909661,0.02078464015893538,0.005003374382908522,-0.06835214990718874,-0.25043941085011945
0.2374920001354209,0.14641946003762102,0.2897103364267103,0.2319405938061146,0.04942207333858676,0.07916408786163456,0.04892584317660089,-0.2585969800692375
0.215867495042893,0.1619060695024766,0.2797164394631949,0.23338073438338455,0.05851478557652308,0.06809999469815343,0.0311132794789282,-0.25848698949341203
0.19151289431001106,0.12152798744589913,0.25943056705059586,0.20089135334259411,0.03810822371620004,0.060663416006012987,0.006973195649145389,-0.27409199170298987
0.15905551867677725,0.05423898352514443,0.2075750041723455,0.16470906051160192,-0.0034896252630756204,0.004207821291383563,-0.040325435116110815,-0.3363622812940509
0.2298895745865978,0.07948992250906176,0.27702823262685056,0.2450471130589678,0.051677271914713545,0.10302768961833907,0.0702387397220472,-0.2729826362442126
0.22337673348463577,0.1072986028043914,0.2779168694082082,0.24351787985951123,0.06911352641333672,0.10847450724707428,0.0849832780780241,-0.17503606786823905
0.22006132262984365,0.13068365326388418,0.27340588383899606,0.22570095178271393,0.06489349165592495,0.09643405384303802,0.05954645682019516,-0.22989580016691796
0.1921862871120822,0.17838979851987197,0.22769685360401673,0.20178972942174164,0.027645547583642308,0.04348802815798468,-0.006936724619409765,-0.25669039104654284
0.26035747881331334,0.28373938410698213,0.320851967952801,0.30144712817564706,0.06380734561742141,0.11209293039580848,0.09568215504490171,-0.2645580839669661
0.2539524971970433,0.3321684966439819,0.3176588824974679,0.29060105173573825,0.07903924843184985,0.12426681810476607,0.09676294383068532,-0.20875791483221146
0.2558615585561859,0.33659184461618175,0.2895282694890399,0.2753000630393789,0.048522750136632216,0.09456233933350507,0.0637859010200597,-0.2604714382384457
0.20356280434793195,0.28903940060418126,0.25478833345375235,0.220545703937065,0.029157753506137217,0.03842896852530703,-0.006020196134795297,-0.3348655428470517
0.2748709381050718,0.3101560356555675,0.3292794086955046,0.3199040081256615,0.05534404117759185,0.12041870189035508,0.0986958076087764,-0.3163087068138129
0.283912728443032,0.3229479129629555,0.32729101219358064,0.3201236106712311,0.06625344535543029,0.13927181429642754,0.11233895216850864,-0.32771632957719116
0.2612795639221224,0.3017679400162671,0.3171223587643835,0.301751560102526,0.059174086775045154,0.12214035800114403,0.10106954133427455,-0.23382654143621412
0.2341907169115667,0.30752689305343517,0.2814719765770379,0.26597637942881514,0.0514562514707809,0.07695280945194155,0.04179852567754363,-0.2605670416168352
0.2861442084389338,0.2858672930708168,0.33918661540972844,0.346037826713355,0.0570489799685219,0.14770328504552183,0.1223874780901219,-0.32092027867078454
0.2964291128977739,0.2802127303841988,0.34694594972641013,0.34609035809076294,0.08663707238889118,0.1591263357604881,0.14668213004460046,-0.2790463643428241
0.2948058671920277,0.32860948365635106,0.33681512777794453,0.33911103995164493,0.08647575690303275,0.151562381642838,0.13214974814857117,-0.23424138993308524
0.2551820757446436,0.30917893471281577,0.295340055960867,0.2926401073186433,0.053771944121901956,0.10279300431083316,0.06483280850768172,-0.2410579755571766
0.29062646559231897,0.2802005578380354,0.35028340711161704,0.3484363833766983,0.06955430778842056,0.14328219851575466,0.13167827688217165,-0.35480186011788534
0.32353764012262204,0.29911643292914813,0.3686816900893755,0.392725226393243,0.0844913740090299,0.1863485645230805,0.18448578668692345,-0.3743778421850436
0.3216099999111607,0.2640971503636668,0.3664769437636001,0.3837004987364056,0.09046788747128377,0.1891346457553456,0.16792252995255413,-0.3194755618440653
0.2764246441333173,0.2589194923074171,0.34255755750929706,0.3522663456021118,0.08988501791981865,0.1439223218791642,0.12146728656551103,-0.2531816716209292
0.2774498227985054,0.21311543655721277,0.32322706651145017,0.3368402132873377,0.08076075502574918,0.12124479682832813,0.1024016712168887,-0.2165760236501656
0.32524998176366887,0.229644897635682,0.3995624131313272,0.41398507809802204,0.09879710013976038,0.20917530457701525,0.1991603786413024,-0.251479506018954
0.3259307111924314,0.20027506116298863,0.4124808540661439,0.42550990552748563,0.11773554455229897,0.21199785636836105,0.20818954901736278,-0.27328032727937235
0.31452700387929805,0.17918896135590226,0.3922162592156905,0.40850084435939915,0.12769890145742877,0.20606032530975354,0.18681356852925435,-0.16514485301169934
0.27807266478167986,0.18504462768466234,0.3496516833938164,0.3919219993255468,0.12318207484669785,0.17250068572996294,0.12028107987627214,-0.1323430491504141
0.27123782661986373,0.10688616582581041,0.36352418101270734,0.39215701170574196,0.1081513359588303,0.1561901948985259,0.109346503063425,-0.1733160613782912
0.32101257583893833,0.07197158541175487,0.4276343706282315,0.47046700964923727,0.12796823473352292,0.21874269792386275,0.21979059738614334,-0.18796406005022112
0.3197799946158035,0.01717543812872314,0.4305043411396863,0.45663262114330405,0.13188539989327697,0.2254171617994991,0.22203121650289548,-0.2104807776489524
0.31894483270967156,0.04160960130780769,0.40822385282101786,0.4431550434573978,0.12770179385483463,0.19612902167393959,0.18538371119491734,-0.18624827485325843
0.28130310422551547,0.05302443441276176,0.3572363671346002,0.3924483976359163,0.10874035319593814,0.15162966097731814,0.12981756022129448,-0.14152708615068885
0.2519860788048076,-0.004871989106623912,0.36375741368645026,0.3823280710808681,0.09171602355490423,0.12267638585804368,0.09825439986479707,-0.1682657714718215
0.31905724701920185,0.007008166408190584,0.43579132888857813,0.46655939768620014,0.12775192283169803,0.19762644591520195,0.196614555082787,-0.22088562335309958
0.31853365146640517,0.004969946014512641,0.4276194808092049,0.46803296326532146,0.12617539386542626,0.19453313444572076,0.17804196285119206,-0.1671426164085967
0.30569178587376306,0.027285438769424367,0.40651628161151276,0.4376944478239315,0.13602515634890625,0.18105222416767117,0.15072828344176126,-0.14488277113994794
0.25920018332162154,0.04107386099519043,0.3643450427236842,0.40797132265959113,0.09149969533475874,0.11889325146115916,0.09067529509710122,-0.18957283625030188
0.2742788175341569,-0.026542761082958204,0.3961233095446305,0.4120825078927462,0.08129032155574177,0.1188259818051674,0.09478692492531096,-0.19990819018204456
0.3177355497578641,0.018504459280694538,0.4262504896614796,0.49091117847075627,0.12017900445118435,0.16787856654161157,0.15867228599826239,-0.13703253219051648
0.3041280933432118,0.03815212280260758,0.4175427965177517,0.4869529768184338,0.12582661677310472,0.17226321267802483,0.15183245089295255,-0.11528941821474437
0.2863207114044315,0.042032189803512275,0.3997424855400023,0.42637683918491864,0.10746393306313899,0.13833764337183596,0.10612963446429453,-0.11038968872376777
0.24647802018600384,0.0011897156946825025,0.34072789886860577,0.37986795508349563,0.07941426049005722,0.08849172690865593,0.040241847044357015,-0.13171030479781287
0.2758403818575129,0.010117639706809829,0.36914375482516193,0.40367373380861077,0.07733328760315955,0.10448339149338988,0.04231380549687066,-0.1632933848152922
0.32445471230413525,0.04023245199212469,0.4263272380306543,0.46727274495724014,0.10081593098807931,0.16138426723595475,0.1317872768291296,-0.1532501420196282
0.32190950735721824,0.016773243285076858,0.43130184401421984,0.4501162729834068,0.11781815315923633,0.14716726998490193,0.12375558505826974,-0.13821621122439576
0.28478546597584925,0.010608140545336991,0.38848819317254146,0.4168108188192913,0.09734408607807032,0.10978813956496226,0.08188673639753946,-0.13129072701967062
0.25609345334623224,-0.021336167428192755,0.34969730294819723,0.35004770824692505,0.07890205028359848,0.061407148638968165,0.01560545715272346,-0.14640018746701008
0.25712599918583956,-0.015617152216840567,0.36218793755225454,0.364675410445967,0.0627604655059458,0.06348141770114725,0.012035593298232854,-0.12284183355897924
0.30154975545552287,0.002355465391007594,0.4169606429693073,0.458258190474879,0.10564003251802845,0.13238262315142835,0.11407360165883186,-0.09185946416454617
0.30971648515114936,0.010912479701777372,0.41346859114722134,0.4604636268345128,0.1057020395272637,0.12434714727771988,0.09915445304787775,-0.05275939639030961
0.2888151257536811,-0.02416816545972252,0.37812011684165175,0.40308389047503895,0.10450885262993942,0.09183634719731283,0.0471465359227079,-0.06145094307618352
0.24226794019167122,-0.04791744001397577,0.3342311800775026,0.3462608691295287,0.051011924588416385,0.04324257621759224,-0.013433536738137125,-0.13954104182190502
0.241102316400908,-0.05584510538585955,0.3419077435416913,0.33243771011322665,0.06012950815305611,0.03215423673579757,-0.02922771150529644,-0.12027170479983086
0.3001596586343521,-0.03479456048607354,0.3955974560720103,0.40293272054105955,0.09224259905564175,0.10453748445233167,0.06461061940262045,-0.09099842633614273
0.29414261137212894,-0.014934989989774087,0.3804931713995014,0.39481394688915783,0.08344185073475814,0.0896936481404316,0.058683774122485655,-0.09235102155284144
0.27066395154503115,-0.048644279213092924,0.3577880337610999,0.380966012838614,0.0706730688175589,0.06399614072122616,0.016252307144421496,-0.10093054787717318
0.22619196149859375,-0.04809956723059553,0.30784399995724454,0.3222254365490916,0.04088818533261506,0.004942357701211148,-0.05273038722843538,-0.13482905589383115
0.23724396998928401,-0.02436812323270139,0.3294966605312852,0.3334182786535979,0.038735237130719545,0.009050339586563266,-0.050975135993544994,-0.1394156449233818
0.2911756178458207,-0.03327104097643198,0.3795923982577258,0.39106990121540924,0.06695614005913827,0.07225118394701552,0.03631892912520223,-0.09642388420037527
0.26140032406888125,-0.04873581310189518,0.3617679355550863,0.36957040827487236,0.06647631585962016,0.05927346349935988,0.021672391242577155,-0.12015810451556982
0.2406666986400625,-0.04175682904290379,0.3150922918390475,0.35554480067171096,0.04677252499077556,0.021047380452961287,-0.0379673118818416,-0.12094408114260502
0.2146875824897972,-0.06207774457222928,0.2858506212303425,0.2951914120073716,0.009295520457764278,-0.037123347178543445,-0.0899665616662654,-0.1458366951000323
0.2281030570915438,-0.03472775536340529,0.3059974477100382,0.3232357604941407,0.024070417262551637,-0.013234316236795746,-0.07903690762776394,-0.12286014908536308
0.2722706744530215,-0.02338648418348313,0.3475279588722194,0.37227795555106696,0.05711491835294792,0.06186512546781776,0.028715065656058827,-0.09532544931272792
0.2588425247541917,-0.043728590267217295,0.3539318860090483,0.3480850879825405,0.059427582231283346,0.04745893114391776,0.008344530689934708,-0.13494684471200574
0.24241770497687937,-0.07252341338277003,0.32313856948391756,0.3036912664682088,0.044001405624523746,0.006688446188737599,-0.036895595062503325,-0.1439338114406319
0.21801402858447597,-0.08460082321098966,0.29359557742391906,0.2801431701543342,0.026614388434374917,-0.023331603773046387,-0.07837846766867143,-0.18855876518993897
0.1763036565362593,-0.08198110122444122,0.2474910098636666,0.1972256585552383,-0.012542262196708119,-0.06893600405739216,-0.13711000841780532,-0.194801315851075
0.1373622849979947,-0.0882157442217252,0.1812766430831457,0.14510876891164828,-0.02843252874532908,-0.11669822075839856,-0.20219456300486777,-0.14857821470265517
0.06749039577152495,-0.14156370648662436,0.12760023554925976,0.06614599535003934,-0.06740211516933481,-0.19110320885393728,-0.299476772265134,-0.20535514997626034
0.005879044186451039,-0.17925528119203826,0.04571321081975409,3.236470179168464E-4,-0.10958109822375532,-0.25165370166772794,-0.37989538571755205,-0.18533832221629423
-0.04452235261211912,-0.1828895745916455,-0.019919644623541396,-0.07754805723916623,-0.14851718296269875,-0.3307222115674519,-0.46394587424000633,-0.18756156696793436
0.11934630142189728,-0.17086460354180483,0.1768030105038972,0.12410851301552077,-0.08882307911832077,-0.20030220881706734,-0.27519009925065235,-0.2895173186513405
0.15099247326844586,-0.1376592949925456,0.19407653171860986,0.15148072395949505,-0.07330258114722833,-0.15039243595623336,-0.21323002502808017,-0.2666445555715517
0.1459883995984748,-0.20020333865810364,0.1827026434574201,0.15996046077945547,-0.06775795863134215,-0.1398563440093447,-0.1991626729695655,-0.2761605356217907
0.10103336862178572,-0.18313083313588874,0.1420923720556707,0.09166044298264675,-0.08548899022961134,-0.17839656556205655,-0.2656119221521433,-0.2528456788235116
0.07756404464869124,-0.1329521454666867,0.12637954037135088,0.050894136538848334,-0.09442280147043741,-0.21172593079616708,-0.3061104674917448,-0.23321630055665984
0.17367963997291322,-0.11643120904817698,0.21094963869148403,0.14424976297525277,-0.04296633360412933,-0.12496586453876829,-0.1889673558087614,-0.2132757185331982
0.16176182437806907,-0.1421190490836166,0.19548865137318502,0.1457253221428548,-0.040422704565788836,-0.12634141300488708,-0.2102191692312263,-0.22076698045193402
0.14758930609145007,-0.1802029449152135,0.17132090130900432,0.11751656123243023,-0.05808449731473953,-0.14457796161274003,-0.2240257255141357,-0.20343536328003764
0.09358711674943337,-0.13942966217776934,0.12151694913898647,0.055537656883109486,-0.08040766568242733,-0.19769277976097396,-0.2758811476555173,-0.19741064209483516
0.16379185017650535,-0.11340176432507011,0.19832164445975448,0.13794062700521967,-0.03356000851138477,-0.14122221137727226,-0.20393512921593138,-0.160126484246483
0.20170009746363776,-0.1409048350919712,0.2469269390819884,0.18166962019034066,-0.011902436596792815,-0.07045014353728195,-0.1322814890924972,-0.1488920275443385
0.18260594564965424,-0.14466691410267923,0.24433363048921264,0.1834137929803257,-0.01247903216563089,-0.0786117340798903,-0.14663965862856693,-0.1914199953340626
0.1646674639834698,-0.18870651977746897,0.1976728253159582,0.1563083252729866,-0.035945032041660795,-0.11276549420554594,-0.16927914873985442,-0.17660679571658225
0.15045223096104793,-0.13089308128452296,0.18914372493339582,0.15393037042374752,-0.029128881847052507,-0.13017124091662313,-0.21922375913324313,-0.15320924934439764
0.23832393226003665,-0.1181303134985731,0.28861667427149984,0.25790457901274855,0.01710407549997904,-0.035044587347057496,-0.08250488442566545,-0.1290016523475986
0.22686801651330976,-0.13776083565723565,0.2891228783444919,0.2551576691809086,0.009606990087816328,-0.02316519825939116,-0.0771705984391135,-0.16102147410694423
0.2173188012425904,-0.1838604929347816,0.2743249456348513,0.25006374541004134,0.008166797576956614,-0.04766897062611325,-0.10555144697765685,-0.19941969217155042
0.18122431491027388,-0.18772575705698652,0.2450344492523284,0.20232293297908371,-0.00702653427300466,-0.07604751841353286,-0.1522630520459532,-0.17790432698651254
0.20845695542173842,-0.1200751413882188,0.2787057128119792,0.22844194206855423,0.02168110981891587,-0.05085737996313066,-0.11199740037901196,-0.10201626136419005
0.2660940650532796,-0.1054512763605235,0.34025611145946866,0.3138891063262859,0.06466265572069002,0.025804826305195632,-0.010011521803619848,-0.08879510171444571
0.27335688390107465,-0.150636330086081,0.3448974684467918,0.3092311511308604,0.07100019088619254,0.02650912333726108,-0.01964969602676621,-0.13069592229156024
0.24272267156478608,-0.14680233839892123,0.32540023121198064,0.27929320968777194,0.06564875754584462,0.00598541159778787,-0.06291219395641863,-0.12223855910518448
0.2235936139417864,-0.1376644180691095,0.2900729438515639,0.24569283749578896,0.0347379042698189,-0.01986659748825014,-0.08486926220955064,-0.10044990463117368
0.2883647842167717,-0.045272588528939665,0.3637753176995317,0.34273247942265106,0.09031722954282359,0.05544652150829265,0.018134692247198277,-0.06549027238741364
0.2967342003120108,-0.06315139519389225,0.38039228198883246,0.36644468647853745,0.11236294126042164,0.08713392302523387,0.03898768896636055,-0.04598166618743421
0.2917546944126713,-0.11983261737531478,0.38026454702991863,0.35207134886589664,0.09956573564042241,0.08065530759549021,0.03067794887028933,-0.07196630997163787
0.25782638347693354,-0.1391934302037277,0.35635614236037244,0.30748391274742837,0.08474366195384693,0.04379803540454025,-0.015184757976841918,-0.11984706557146632
0.24381027947592107,-0.10826955165558877,0.32676041696553254,0.27713190307694496,0.0754663509310435,0.036247561674340775,-0.03632763804736257,-0.07332484635325869
0.3188072899662992,-0.04864900106934071,0.4137431242859516,0.3871848244848998,0.13153537184791228,0.11077859281675694,0.08264026698843013,-0.04422685472838177
0.31864285716131907,-0.07093700640127966,0.4332521315397204,0.4048908763511469,0.1316959563013086,0.13771479771234127,0.10097033489681892,-0.05429885481810501
0.3165477419947453,-0.11885036508977552,0.40755628582870707,0.38489593383905674,0.12494843163578975,0.13350188147750724,0.08293247031841712,-0.1339304297827923
0.30580132355828665,-0.09966865346564899,0.3860963153702692,0.3607216599013094,0.11051508012034127,0.09681035127571888,0.04566250213769635,-0.11974741880162426
0.26755763402110944,-0.11355258403392011,0.34580936927312933,0.32072977792739693,0.08179094300110916,0.06642462674269248,0.0030502309731302627,-0.06422990268304127
0.3293564528525997,-0.10062172527754021,0.41557692178083644,0.40192636072982524,0.1361540823982513,0.1450110193355244,0.10552561996598508,-0.07548627581814427
0.33085786733925143,-0.10154144852141761,0.44160005427103677,0.43329297250283294,0.1584435337380483,0.17650732064646235,0.13166773940642043,-0.11509626676399196
0.3301479482139553,-0.12730504532702153,0.42971468032636795,0.40272343863652504,0.1404984453448132,0.15562533831984018,0.11558107477078221,-0.13034871856866098
0.2845610570255088,-0.13458847181460365,0.37904836179796003,0.3720001026723432,0.1246205279316254,0.12667726590169623,0.07169014700086564,-0.09045731263240842
0.2707521658839923,-0.08629345177272012,0.36429727903084147,0.32799377945545444,0.11806461304070506,0.10122501880375806,0.031240298838374966,-0.04689841363274395
0.30718821264449386,-0.05560311762482025,0.40431385677517634,0.37597314466875464,0.13849452688740965,0.14055891595957193,0.1020616695254553,-0.08849463694058698
0.3262851145799755,-0.10830365646634083,0.4206244890273234,0.3798044319349593,0.1517331431047112,0.17718806887704255,0.136282480685079,-0.08074809988445728
0.30965774385249134,-0.1065427050457892,0.40634459369519116,0.3974536073969466,0.14323003369502788,0.17924069057375347,0.13829158833496388,-0.10206641775786165
0.3018508718938349,-0.11285153622389923,0.3859481697086262,0.36794612524729475,0.13803336396336402,0.15264330177360244,0.09979399639098868,-0.09208590946757095
0.2658969887562408,-0.0903645076416801,0.344301474181025,0.3305782599285297,0.11735082930882695,0.10770417142923891,0.04665835940837391,-0.06773475961702842
0.29797959268084945,-0.1047532287375448,0.3855377986823794,0.3861580296610404,0.12647355113169612,0.14746198697198232,0.105004415533198,-0.11948868746899706
0.3201559728408811,-0.11803438544350332,0.4120544277007887,0.4223210594992196,0.14709908379908532,0.18866031274077477,0.16152770366551134,-0.14302815414790557
0.31054711508858474,-0.11823034447676779,0.39952872020881947,0.4042204230747418,0.15918286702272116,0.19494771679137726,0.15252939752648137,-0.11430880966959132
0.28383440403399,-0.07664651191505087,0.3612181491787478,0.3742469459011601,0.13115919170743454,0.14788494833915164,0.10637130334812905,-0.09289165201018436
0.25031506679463683,-0.10634940584987926,0.32420187036520226,0.3343899589789516,0.11639310854400595,0.11434079821386323,0.062181261349497356,-0.08358385576956369
0.20440302649486825,-0.16612965867386228,0.30128918733117327,0.2743484929772971,0.08579574591396252,0.05981684004263241,-0.007241264399261825,-0.1467543209765119
0.1591471043673198,-0.16481475776099902,0.237467609929029,0.21621662667963154,0.05596360059755357,0.004516746886336997,-0.08318546397514183,-0.14019467105203068
0.11163918558816113,-0.1648087913435059,0.16425602824489155,0.1550427655615068,0.020202763181997114,-0.0481299243854221,-0.15956413079611825,-0.1158614642331135
0.0543380155257873,-0.1499959001383238,0.12549630914290583,0.0798893391539988,-0.012863404676634542,-0.11857986617331236,-0.23578580237430352,-0.11542122640813696
0.021268242062152436,-0.192690777857694,0.0726557968046994,0.047959396074569054,-0.05537922586027931,-0.17463991118839384,-0.30993851138424605,-0.12430629134237366
0.1909120474609704,-0.1948968912541363,0.2460740202307421,0.23655784466121865,0.03158921631192345,-0.006777426671516381,-0.07224245693711083,-0.19667911581088246
0.20699961045674287,-0.17321768505827406,0.2732423047373314,0.2416465536201895,0.047258508338771966,0.038203136008154046,-0.025472469744863176,-0.1659889455328845
0.2027898759216633,-0.17322471498743763,0.26910241470620666,0.22725332349017383,0.05382122051320768,0.03485824729280847,-0.02275070079099656,-0.14069122994332303
0.17587266463107804,-0.16138784944282722,0.21818403812524925,0.18475863752991964,0.022970460073096777,-0.004544990642133019,-0.09374020245407602,-0.1549788116333179
0.14017393403278952,-0.18969205787010088,0.18951507976923795,0.1562970563840738,-0.014229173458056745,-0.050928431601253404,-0.13906926694990998,-0.20763547799522247
0.20999238474227624,-0.18233571739895943,0.2740347166543613,0.24046708917333362,0.041043934110018894,0.03708253602933323,-0.033880241188099396,-0.22129437523753284
0.21767921821192568,-0.18391596856521247,0.2797405437149167,0.2546701703452463,0.05359688693264478,0.04217638384586323,-0.008806799035316861,-0.15988979276600676
0.21857774427004603,-0.15806483253506443,0.24776783332633953,0.23003376802172923,0.0583478174300912,0.031191933397786264,-0.02800151851774895,-0.1392151759695639
0.1740476014266416,-0.19823181632360357,0.21491454642555854,0.18964597085986784,0.021989060811861392,-0.021060942890142015,-0.0950646630413175,-0.15806473176774136
0.14958921146762735,-0.21234425372092067,0.21958364571478084,0.17581086577871347,0.0028974223341938637,-0.04695574456840799,-0.13248734442565588,-0.1875142258018345
0.24652341235697992,-0.16755215685895244,0.3044542905045258,0.273260075852157,0.04702620223995436,0.0559942936286633,0.0170879412368537,-0.15236565538383945
0.25699322053987633,-0.15415936516027628,0.3093058280034986,0.3000790898225603,0.06367974394622403,0.07226933866111072,0.04203609484576117,-0.10397543029467958
0.23300946992469324,-0.14937540392206955,0.3093370739541688,0.27459045522600817,0.06859991863859088,0.0644498926871689,0.01653054262977061,-0.07815629295075985
0.19812634264066487,-0.1572327530057383,0.26357433662602575,0.23057615355922165,0.037493938326142194,0.02321319204871834,-0.04914566722017955,-0.11859154831641032
0.19068791996159867,-0.14640394965322004,0.2583782812189306,0.22653263132207854,0.03534767229762546,0.004183357482328588,-0.07366065173414592,-0.1492978019360832
0.2716006492199612,-0.12024642657791235,0.35304632887137716,0.3336919779567714,0.08041759473792336,0.08552420611849658,0.048285688418775,-0.16464576745753068
0.2685129627704598,-0.08695330640636666,0.34997717729036715,0.34157921039276606,0.06954482607648993,0.09603624078753648,0.05096362426910721,-0.1792057925556258
0.2626545674450223,-0.1199804019680139,0.3508778752906419,0.336287291084962,0.0856218866259975,0.08712326069912057,0.029776271272131064,-0.12531210255609243
0.2292714624059888,-0.1268284933489069,0.3080522880852218,0.29717225482544246,0.05078311705276299,0.04389194456719919,-0.010564811564663493,-0.16688289657610442
0.23271629602072577,-0.1419232200841434,0.3176810208792672,0.3041179396614529,0.0515506317832597,0.05135817955931366,-0.020595933706686834,-0.14156283848578494
0.2930944235875926,-0.11387417536306761,0.3831931477861433,0.3866299451680867,0.1071780559944261,0.13370152437597235,0.0899546508316606,-0.09515039830102036
0.2953189824869586,-0.07877169179142157,0.39355699702459906,0.38425921381099465,0.10836931625892035,0.13419988338148758,0.09221189399148266,-0.08241165483861489
0.276859327226303,-0.09444633933080379,0.37674933000906324,0.36469383747915224,0.09242766486062222,0.11802451745458761,0.05584065494200447,-0.13617462036475747
0.2452770256711289,-0.12785144150480005,0.34022587612556565,0.3108393836780608,0.08686367548006885,0.06918383988737013,0.007538690433675538,-0.14809317994909374
0.2741549296345119,-0.12543631846114575,0.3714163892161484,0.36464675908466115,0.09648381933348477,0.09714689339654198,0.05177593597425342,-0.12468903241904813
0.3079936338429223,-0.09205110078064764,0.4264894821055036,0.42012069420132275,0.14005560890969107,0.17173340471755397,0.1353932810510721,-0.06259697750860435
0.3184718062977899,-0.10135050083684835,0.41565585280555756,0.4297141730254037,0.13659100379621383,0.1805961653252075,0.13962467897616104,-0.059027474820355835
0.2846404512046683,-0.14221650014932302,0.39495151093749414,0.3700357259997592,0.11619596957766058,0.1450818855643358,0.09506454746287801,-0.13772359941394144
0.27229903190844473,-0.13506759671113353,0.38655521661903464,0.3561217218434759,0.100159154250881,0.10686607601356626,0.057358204038336386,-0.1511808189763493
0.2949917043090893,-0.06832250559069858,0.41277549679001724,0.39165922164205574,0.11551335237454405,0.12881931605118396,0.09122160430208828,-0.169208329508963
0.34289531326832123,-0.057170750585085695,0.4640028222022312,0.4574753937391986,0.1301046810763908,0.18823119198103452,0.1787273601247076,-0.24281513667327723
0.33184925285338845,-0.042871681308365286,0.4757996651102017,0.4489014305397331,0.08923523806586373,0.17189093578205278,0.14824353761613887,-0.44260488181126484
0.3135017984467537,-0.010588249673762326,0.43784655903363856,0.4145219234276311,0.05918029735478631,0.13729656135725224,0.1079302434828143,-0.4924051643197394
0.2726666677942201,-0.09685438659620091,0.39779822156641714,0.3847443973469147,0.07640350214746068,0.12685187142017845,0.07291100528245766,-0.3550339325542078
0.2785133545642946,-0.07908812100308303,0.39208270578468324,0.39750875359774884,0.07779052945969318,0.11604864889296852,0.07348574356545713,-0.3289195347897707
0.3347409824009079,-0.0438720298060367,0.46822049849392744,0.4758086015385324,0.10487412737110326,0.19628494886399062,0.17722831798528943,-0.3075710004670563
0.3340441596442061,-0.05055953564368772,0.4725853906849734,0.44587421086227397,0.1266430485084126,0.20616335011831702,0.17271250010190445,-0.315864992281089
0.30755106233734286,-0.06373911769686748,0.438861831496744,0.438481441980539,0.10730051032989034,0.1753155797714888,0.14935603656907775,-0.34159045260283233
0.2780911427947809,-0.07379201029507429,0.3933584675487486,0.39000771480374863,0.09785890373561389,0.138999875307856,0.11113714363635763,-0.31517359774227194
0.29142700179840086,-0.02201758477023771,0.4140107838087413,0.3941521915812616,0.11337469876599882,0.15061973264107759,0.13294213257304316,-0.28629483081195684
0.33477283936473706,-0.021193681489389625,0.46254786643413676,0.45198922006616626,0.12304809738891227,0.2173374863858608,0.19547898337576805,-0.3263244141297297
0.3314762901188696,-0.06687573027384465,0.4492826035037125,0.45305834099638526,0.10866690968319598,0.21191661143537832,0.1801477325493351,-0.3730558906965393
0.2953544297992453,-0.03480033725695369,0.4152643241382728,0.4047874584650905,0.11145184375084684,0.16891996349612387,0.12921360767481196,-0.3549573327548224
0.25762220642583233,-0.06524198010479483,0.3775862559077668,0.36879512045825663,0.08043955622986701,0.13757703332745203,0.08463198354680804,-0.28649663229422256
0.2304698863061659,-0.06820226120568108,0.32506798589638364,0.31439496550573415,0.06493831155332254,0.08788742591434566,0.0326301621185871,-0.3152691148878267
0.1733405345058969,-0.09896155934025667,0.27228362660938094,0.2461378361146075,0.037535265299266936,0.024578357018471247,-0.05405957659101782,-0.40875798531070895
0.1186970677661693,-0.12472539537942151,0.21792207619658047,0.18722651693981007,-0.025900999194420057,-0.03927265037685898,-0.13078339894176028,-0.4290595528875727
0.07568716182685532,-0.13794272615972386,0.1603272689405274,0.14039229943826098,-0.05281730612608398,-0.10305903539434161,-0.2037860547946274,-0.42267677766808814
0.027295164195618594,-0.15521280493119458,0.12076051960089783,0.0777071471949423,-0.08066672137585258,-0.1667254500106685,-0.2699813308042222,-0.405720382604717
0.2084294427653288,-0.14404410181110547,0.3018452555361572,0.29540667863689596,-0.004720944073033718,0.02050823826472845,-0.028783487595158433,-0.4460459192008183
0.23473154854737657,-0.15542556976253383,0.3127175384532916,0.3221653744527656,0.007718431129976444,0.048207100563764725,0.028195959016808915,-0.4704415357984742
0.22596547105319534,-0.16002446997921194,0.3083290342996833,0.2896011404580435,-0.00130194202945209,0.05071213576690969,0.007405167772379778,-0.44935912952594526
0.18620641893301934,-0.12564519243038552,0.2582821278399486,0.24313510198956162,-3.858862631723451E-4,0.013134207721378743,-0.0436719211934746,-0.4172701068369525
0.15050106452231996,-0.12634665949223423,0.23453458834472757,0.21143745917809087,-0.021425733903628095,-0.02150180114621707,-0.09643178454368934,-0.3838146161712622
0.21729414708220615,-0.13334853158711454,0.28832948191425933,0.30748785123295636,-0.0082381501467142,0.03481649707086103,-0.006248103024544224,-0.45924994256609547
0.23413643141518403,-0.14834208717647376,0.30810673107959713,0.32323698262539086,-0.015946714532581608,0.03658462113308451,0.018858442374165445,-0.4891319093663983
0.22103191500769034,-0.13648012719684371,0.2909048791309958,0.30710762546184717,0.002017344321259098,0.030928571874575417,-0.0013134681898513778,-0.498496383216439
0.1760948750571322,-0.09361654210538646,0.2476444493704737,0.24753996377356435,-0.014811457736174238,0.010765466942309595,-0.07058471158752656,-0.41703183944131234
0.18533719951795458,-0.1311480665179893,0.24573813444025422,0.2490656761835377,-0.02503682092448957,-0.016230477631180542,-0.08072599344523244,-0.4532526960789358
0.23970340341873475,-0.11647251275982842,0.3180520515753612,0.33908882996394113,0.00551914051494099,0.054624521513761314,0.03221464494071656,-0.47144289140917955
0.23357206840957703,-0.14312381680572306,0.3098341751236306,0.3146980085853844,0.0042392273328705765,0.06455959989377062,0.03263540996556387,-0.48526934721893267
0.2260790583102848,-0.0888180830470376,0.30080056752574064,0.29207346434220244,0.006162841812167088,0.03781787121479682,0.01279176438336319,-0.4712465712089023
0.1948901948084183,-0.06247866790278075,0.25945498914334203,0.27692553516116636,-0.011937714830922942,0.0194846654851025,-0.039403528308983485,-0.4498741305756991
0.20728681111663702,-0.13798627440386008,0.28936001429500946,0.2905933345474116,0.028297374175273664,0.055161690932420536,-0.005367174525991999,-0.24450761504846602
0.25902465477067615,-0.13040337931001492,0.34572827573239534,0.3622919108808155,0.041666795357053595,0.11386491500601631,0.08173648389137295,-0.3533967520829159
0.26908709350673116,-0.04760131354231847,0.3455020150487304,0.3716264383045814,0.027922544767125645,0.07656698849390342,0.05796472781079041,-0.44618506661144136
0.2729850210987028,0.0062466993117020276,0.3249517908924092,0.34279182640774974,0.015563338710310768,0.06211301771860496,0.02348592637107471,-0.48255545762186575
0.22263619010688665,-0.03113302393885301,0.288302131321152,0.30830125282807697,0.01769018736083458,0.03531568857213402,-0.012304210537965318,-0.35914384551597517
0.26207925691053263,-0.05967843879766101,0.36007530189737785,0.3546784475743786,0.025814119781214267,0.07189607992157372,0.0363485230018041,-0.4687378930252877
0.30741094724806944,-0.06996239911595094,0.38565046846580303,0.393019233116126,0.018320793549219786,0.10288171177072916,0.08280641752984605,-0.5516863752173657
0.30330532262786025,-0.027133862133056755,0.3799874279030087,0.4081731654907437,0.04014206346460489,0.11869934299638513,0.09001579308009347,-0.4182793947474743
0.28898671063097264,0.022275932238536487,0.35037765595523007,0.364231888575179,0.05592303046342237,0.11170407950555383,0.07263011841513345,-0.2639486349969389
0.26178782713118537,-0.042397425227236135,0.3253831289753295,0.3417670742175454,0.08291498974630152,0.10681960484208755,0.0660951638486895,-0.1107077107684796
0.3208362131585167,-0.04196617253226971,0.40566343360834317,0.4257607758133196,0.11832460835855284,0.15957068437801442,0.14413891159428505,-0.23117653132988897
0.33419978392744215,-0.024095272528018696,0.40940481221188413,0.4306028162551355,0.11662934844686608,0.18222871051158226,0.1689320857977791,-0.18774179513874267
0.32317617621773725,0.0578604413004549,0.4019243533181545,0.4236039408673426,0.1157477737095383,0.17744446674688685,0.145549897667378,-0.1432825063181882
0.3032050130243519,0.08079819570037708,0.3817416310576776,0.3855202819429081,0.10196933921773024,0.14415585235975506,0.09848974913929953,-0.14063913715271764
0.264205540028784,-0.005893395027825218,0.3554896611732007,0.34393749539786306,0.08056268518846268,0.09566572808286872,0.04773173829618617,-0.20036395630596793
0.23406079784816325,-0.023387760126188532,0.30371792524720853,0.29727617071806106,0.0620849331504061,0.05004475291867467,-0.014501942794911042,-0.2148074823227328
0.19989201927306535,-0.002868461652267006,0.25026524284753354,0.23278810562437802,0.034342910482617665,0.013726093678568854,-0.0652289831040005,-0.20208290851947527
0.15377225696029356,-0.011336321768856157,0.20321697248407644,0.18774798509021923,0.011762233257620503,-0.041625080875551924,-0.12939611430009418,-0.1446995174953848
0.15249478941081931,-0.03254073461881704,0.18511906990945048,0.16447385304487686,-0.017144498582299588,-0.07671636301277784,-0.17507239273148734,-0.19259344056213232
0.2653308094276961,-0.06790117347795042,0.32072243153020485,0.3035487981226899,0.02268512551909358,0.04980397032221158,0.02536221361426506,-0.3378449160589527
0.26182379799773675,-0.06828081508670993,0.3140429139336452,0.31075189739720477,0.029848389253024847,0.06282555077146246,0.03748318071818834,-0.3773523391178191
0.2676141531475022,-0.019055769901995066,0.31513899473638385,0.2995041654913713,0.04445159203557749,0.0621466445543135,0.024637351522933004,-0.2795669244454496
0.2283718849229542,-0.03649952847160394,0.28332619531583425,0.23777326800611925,0.013802176565412059,0.026351541840162175,-0.025361052989967686,-0.23852334112240856
0.2367924604615087,-0.055239975520827087,0.29002793041561525,0.24197570848869157,0.046343458364913236,0.026520690778084395,-0.016662817821052528,-0.2743395519320049
0.2852485990472807,-0.05694134607924266,0.3305627043448279,0.31337443774398577,0.05336055936456558,0.09620363433232904,0.07762011753881991,-0.27042567597264133
0.27409328210229295,-0.06404331309334318,0.33705497764662795,0.3046357796824953,0.06835189814476343,0.1083737131662021,0.07451341954072137,-0.24259972179918257
0.2569617197172649,-0.008809224458267413,0.2949343377380217,0.27969554166043026,0.056630479973690216,0.08663821340719668,0.03057006413459271,-0.1845707938558691
0.22578879578782848,-0.03684812142520513,0.2612189412588162,0.2416571441330817,0.04872622373563227,0.040402649971717296,-0.023661237633976262,-0.1998543138437402
0.30187935908648245,-0.024130806062628782,0.34578205950461627,0.3188253509769131,0.067068356997143,0.11203731866804736,0.08281004235742401,-0.25147853542496407
0.3128786606546415,-0.024317601852209454,0.36965259457129035,0.3257156486345453,0.09356492722317955,0.13963310489334,0.10473860066284547,-0.24473080569225206
0.3154019880746162,-0.014231678515506713,0.35713570592987814,0.32042700434986304,0.0878012073600362,0.1239652723952574,0.09353839457519782,-0.18302828347253497
0.2690542387439439,-0.009015883359144545,0.3095546997824669,0.2745232330223948,0.08719206741118134,0.08805300262578075,0.03639725603488912,-0.14000880745801422
0.2869721612020279,-0.01636148434587608,0.33226168564534236,0.3114844508219278,0.08489966734912091,0.11675639321029967,0.07833276394631311,-0.19160956845466062
0.3210865577192948,-0.03262733696652003,0.36767100681296083,0.3524108749392003,0.11767677502344388,0.1747186864378937,0.14729172817530345,-0.22294926777950858
0.3202875145883131,-0.013765031557203673,0.3506923918017184,0.33987005053961855,0.11338397548473383,0.17833744346664995,0.13358715445478656,-0.156011373272083
0.2897228700748115,0.014805392707858854,0.327473873865363,0.30789289047280927,0.12130722996646578,0.1473478601348391,0.09659154653147371,-0.08436008874538083
0.29106111219531244,0.007483843059265514,0.3242659649812131,0.3056601993627933,0.10075306390378568,0.14234215441006778,0.08710217579683262,-0.08964932978863387
0.347572613577408,-0.020967572005583208,0.3805387120981609,0.3849529002144581,0.1440756068151904,0.20025544732328565,0.18241049710717838,-0.15779562177375062
0.3275255546750373,-0.03704802204459736,0.382803076892998,0.3740537395150065,0.13382669439806727,0.2182275968740708,0.17821625128113502,-0.16504213388270733
0.31580853362048483,-0.023024051638673448,0.37328976590638735,0.36188841392512944,0.1366937682783786,0.2154118849196349,0.16627971820713935,-0.1000600498002225
0.29988890285044156,-0.021117080663645933,0.35623267495603766,0.3481570398621711,0.1392075459344178,0.1840927044161641,0.13077337165016928,-0.06139803571771549
0.35475256650915976,-0.0522020001777989,0.4156364156139808,0.4081849511522771,0.16007786318170578,0.24542563288465893,0.23327540304684535,-0.08647553013318134
0.3648377297371779,-0.05702391168442597,0.41790520121449304,0.43371059340804974,0.16572082923900533,0.2665681782458027,0.2514796289957621,-0.19795186008735594
0.3517574715193076,-0.06187452132479871,0.4134364623765705,0.41320749678618063,0.17486710367845762,0.254817111127691,0.24551076503734703,-0.15082354006062515
0.32700930721631694,-0.029672480344063192,0.38945654321813944,0.3869018768503961,0.1444143029148612,0.22393478715707765,0.19363792792509565,-0.09890675732364355
0.3247922252459585,-0.029473327199616556,0.3869110170829068,0.38590398977181417,0.17848052468739414,0.2468950281395,0.205773528646861,-0.08474038116346008
0.368849910898517,-0.004616746038179512,0.4361738350943121,0.46471696900658,0.2052156257876747,0.3078276190086004,0.30048700989742655,-0.13855505532873827
0.36038613931089997,-0.04405253231202442,0.43859105099849344,0.4525802973063678,0.20584214360693898,0.30280148256587236,0.2925697516230271,-0.1797336172764322
0.33802620624104235,-0.020597068825765244,0.4124428522819479,0.4210895735445626,0.1772878541048736,0.2894229170081126,0.27716026362014295,-0.11918856449347993
0.33123381760906184,0.020524970039360598,0.39989350484742553,0.3930960370773986,0.18041675612736033,0.265062833994647,0.23912266844447586,-0.04792852432890485
0.33037491166703786,0.014841417583378877,0.40960788079085003,0.4031092233777127,0.1773991331199158,0.2668647718362631,0.24899098972797792,-0.0350151204151187
0.3769439119351283,-0.003923839388895667,0.4353633791942341,0.45730704310357867,0.2055245940675685,0.32243787565745213,0.3242800993980175,-0.11965517106195699
0.35504678140398255,-0.04587040075145619,0.44647246845697314,0.4465896831304452,0.19102672763903775,0.308888278420155,0.3207349817974726,-0.13839878325691296
0.337313132885108,-0.014603676454680642,0.41560638388754134,0.4053569480553107,0.17876128356058948,0.2949138901489821,0.2661298932837532,-0.11187576868853144
0.3140162683473624,-0.02123914079868828,0.36964036816740137,0.3766760025848721,0.1836585244632054,0.2607842205736314,0.2524987205323989,-0.020182706841773163
0.31801171542740553,-0.04884214402046012,0.39065914996132667,0.39508670757344627,0.1704205620837716,0.2526413864412208,0.24764312282318138,-0.10857326449089111
0.36139997445759575,-0.042991568292090956,0.4254686471639915,0.43359598442697705,0.19044286544956412,0.32121692372542743,0.32650250612785303,-0.14081036753234663
0.3402364649699085,-0.08924464294819001,0.4286686719231378,0.4466422726826774,0.18021993148699297,0.3170458178574928,0.3183222508497157,-0.13624467108767263
0.3311085126913661,-0.057641725200490886,0.40306630440454283,0.41203489688554046,0.19545208867749453,0.30034738759564594,0.28411274442467455,-0.044030687743222045
0.3095165954995894,-0.06437441272920962,0.35743584777696,0.37744151784482827,0.18935814856634794,0.2741893611268033,0.24943015032223897,0.016249790869706925
0.2750232353274323,-0.08849404441958088,0.3483160783739838,0.342564646719662,0.1782663019412911,0.23588457787964423,0.2109283562359351,-0.02371199369277147
0.333655206323627,-0.12769052866952788,0.4067655473926816,0.4073109122369733,0.18503947683919003,0.30750931630654843,0.30578347957171614,-0.10785194562897055
0.333769582516473,-0.11841234839738285,0.41428884311443953,0.41004703108531265,0.18446285618948882,0.31141864533895613,0.320044312192392,-0.058294908185030664
0.316320898659882,-0.045690675875110116,0.3796828020267995,0.37328549761657626,0.2096314945088275,0.31032713184871696,0.2940581791169719,0.04514170733816258
0.2939793201707938,-0.051191035415480125,0.34503413575380265,0.3343290807526902,0.192647080720154,0.25508438171922426,0.23542360195141823,0.03080660824062188
0.2548463271602576,-0.10693079222340665,0.31049072278469747,0.28030826460184766,0.1544064984669148,0.20687182671569918,0.1731106736613079,-0.04374446383259816
0.3094249540130454,-0.13038440859517322,0.3786548785920641,0.3683599411490372,0.1631848083023638,0.2622821405082949,0.2573062009028597,-0.10144400383271862
0.3096354570665355,-0.09993831329339276,0.37634381785777793,0.36621547277565836,0.18751582593326147,0.27667959068709413,0.27608406872410685,-0.0776065813328837
0.29672016543417146,-0.06991254828418228,0.36205938849931235,0.3470417808961153,0.18490540686753956,0.2768030517296876,0.2654931601164666,0.02899668932836761
0.2735688181104466,-0.059200891947139775,0.3370390320933355,0.3182606506629471,0.15639521953118435,0.21849528168140162,0.2031911354190356,-0.04457896574340021
0.2285807420428765,-0.12327221317678605,0.28295157395409365,0.2643364193618344,0.11642206078452852,0.16399174160101213,0.13778261744646658,-0.1212097437983983
0.28271892716744557,-0.14261259207539906,0.3510045892290622,0.3336149975246398,0.13437818819484432,0.21337111259052072,0.21127914681140275,-0.13035283555519406
0.2951711237890347,-0.11136213521770395,0.35675611140198826,0.3496236285681268,0.15816998805863003,0.238812187155693,0.2294971925971213,-0.07999290003651156
0.2889762722379562,-0.1350352149647381,0.3322574395961159,0.3004781972938127,0.16229478572459322,0.2221274031588806,0.21574261469178635,-0.06415854225821763
0.2429387138670572,-0.13507654106445083,0.29916655677800497,0.24775931626400113,0.1215097308651667,0.17724830479736597,0.13500711458399492,-0.05996873275853819
0.2088604493487272,-0.14970326139672302,0.2677398127881674,0.18940786146598712,0.0934333550420901,0.11433959574226045,0.07219650707805546,-0.11357272122291416
0.2713877951033868,-0.16231293729282614,0.31913859962708596,0.2753329798823956,0.12637997536470033,0.1700267303100455,0.15156703755830556,-0.09312135002349872
0.28735390345436823,-0.15584742853661382,0.33801040947633415,0.29325197413402787,0.1521789282089264,0.19507292741932744,0.1834784854479259,-0.055448549864157065
0.283874171551766,-0.11662643261751833,0.3233362346950602,0.27527230586966156,0.1464008285536067,0.18633277970723092,0.16219317457153412,-0.04222464386929061
0.24651094974162902,-0.13669945674403813,0.28296193601343583,0.23171110930381694,0.11904248685899867,0.13463281843832975,0.09793605790552397,-0.054256627858737715
0.2585976944521666,-0.12767778892461346,0.301503947533321,0.249800974161582,0.12564963933633128,0.13717544112753793,0.11757266074513645,-0.08180060773710623
0.23556382791442534,-0.1554876613587856,0.2815446398863904,0.2328448768103289,0.09471579439964148,0.12179525330649853,0.07720482116911495,-0.06701250645965533
0.2212981520484166,-0.16962029136444862,0.28041271622589675,0.2360444173025902,0.09511939342300195,0.0985723135376558,0.03767775244731829,-0.05636903403464494
0.17426719177860323,-0.18155464581247688,0.18834514684911816,0.16122978976362348,0.07008468475320191,0.030499136051419254,-0.037216532064017795,-0.10230374885195404
0.13631996329287296,-0.18505932711813755,0.15787815504799932,0.1074740710403703,0.027037003619382046,-0.029781258006461683,-0.11036147556131214,-0.12768023770364603
0.09082010566540352,-0.17894112931510028,0.11540700949458443,0.03995541179399155,-0.01178258866999769,-0.09101194995858186,-0.18805213630332795,-0.12996447315618764
0.19771514845640661,-0.16336447442520063,0.22309243896201497,0.16277670443124512,0.04854182111815112,0.003540953921183432,-0.04531331891735836,-0.10201526155221421
0.21934290078022636,-0.1397877598843862,0.23896323128787916,0.18111470302862068,0.06060987529942891,0.01731754178170428,-0.01174518108596252,-0.09918879718480916
0.20700540515747767,-0.19094068708637627,0.23164839702440784,0.19844472206690866,0.04122312096426679,-0.0031073112423903797,-0.02551928243721462,-0.1730218194499205
0.15562442305071295,-0.21335494948604097,0.18170600450667923,0.12457153955452978,0.012870852123168386,-0.03804478482795317,-0.10215789676921912,-0.19337464403116836
0.13171287733125933,-0.19477966191135,0.14445235667399495,0.09975393589048649,-0.018845790444270174,-0.08274638858565313,-0.16206385797495956,-0.1516068886268719
0.2158858674911206,-0.18997746716683062,0.2308003714441527,0.19350283121694953,0.04217204187164279,0.007081365656112467,-0.04322103232063348,-0.12955503546941396
0.218316306692742,-0.21076681527637695,0.225653152547384,0.1843600681627251,0.04842163410061095,8.667956506087252E-4,-0.03937965098793842,-0.14423738095523772
0.2034326562940058,-0.19376111971424065,0.22235754456429546,0.17850140798591244,0.03901144212575952,-0.00578629750218479,-0.05260977888786307,-0.18586181868790178
0.16034254066552478,-0.21005775928637968,0.17285493570726215,0.13304301228065427,-0.001409345321424709,-0.0595243021532396,-0.12219372286651706,-0.17955872424787564
0.1698880558449491,-0.1791450165844895,0.18200298831568457,0.14626571894068838,0.007027129846291959,-0.0641768671281551,-0.11288031635553149,-0.12427620186431418
0.23396556253831047,-0.1510597247931226,0.2601562635725723,0.2227679951387594,0.045609005472709754,0.024035530764799275,-0.004084611817182302,-0.12935944034842972
0.22912211344355696,-0.1961304059051449,0.25397955834460906,0.19694032880670811,0.046854914227277326,0.014005854739263641,-0.013318708482510717,-0.1421218793726607
0.2078357872099146,-0.258435228908245,0.2274194919325108,0.20091308558322035,0.03253891129171787,-0.0027103383702199845,-0.04853374770679064,-0.1552837831251145
0.17304017057411725,-0.22131071454303736,0.2073937436550518,0.1639403748521232,0.011331537679396564,-0.03106219062326531,-0.0918172988969943,-0.1344209906117366
0.2333369621080389,-0.20005153522508945,0.26074579408709353,0.23591892272334902,0.0541860805159445,0.027765986761503644,-0.02274981608498152,-0.1185559430946348
0.25210237769257227,-0.17434913047454975,0.2846966686444984,0.2759126401363313,0.06586898179942402,0.05442806572751,0.023281695121276685,-0.12278417776881502
0.247298767928765,-0.19880962919255202,0.28369858685880506,0.2692579312437128,0.05771927498526231,0.05278002006502486,0.01592866813310609,-0.15459042046781143
0.21348295047110682,-0.23778313695382813,0.25768265964095255,0.21953892662832603,0.013570886212384,0.012620829010933227,-0.04139931101215794,-0.2200694438217838
0.2143234798612839,-0.20939569959233514,0.24108752303233347,0.19108389733410683,0.025891069660073717,-0.011164173237444494,-0.055757324022758334,-0.2174336460679936
0.27566366524731784,-0.19721448840740857,0.3268241167605447,0.2872325930705623,0.074992060660992,0.08131038051713789,0.05685902742968046,-0.17475924333807347
0.27533904239887586,-0.19432545842205634,0.33446955361036385,0.31201615054172005,0.08144492689099174,0.10585678125174987,0.07540166835383086,-0.20943386300845346
0.2700676733230968,-0.22818401358989834,0.32412706584975104,0.31246216064178683,0.04870401367572525,0.08254040483043776,0.06164361868358814,-0.3237873176188161
0.24195358242040083,-0.21799989483326393,0.29313439532132823,0.2783549726914753,0.04331670549391457,0.05227653627403751,0.01184794130649122,-0.3468661589952432
0.2508380616103997,-0.17189884341806527,0.29757671364551663,0.25807468876023104,0.05307363186780255,0.05340685092960872,0.01232103936095345,-0.24353117710107208
0.325678151640246,-0.15044621895151783,0.3822142388864845,0.37555312850734285,0.10167917277561192,0.13618276335795407,0.12640210423859233,-0.21585832715241357
0.3170980239642036,-0.1712056181764903,0.374040487182377,0.3739440973217834,0.0755922304851724,0.1353381901995146,0.12867586885237142,-0.347978160192144
0.3096979134364161,-0.19657326684655782,0.35538499718998173,0.35976706340687703,0.0894945832192937,0.1197951590419572,0.10505836037390762,-0.3189035148072471
0.27734512365833996,-0.15710102148301425,0.3265081098974804,0.31205354926384826,0.06865972735478722,0.09819300240880022,0.05388570272207055,-0.3196546563571754
0.2644700934286448,-0.18899155080241378,0.31507475392657014,0.30449813941889314,0.07612581154412071,0.07563361290324107,0.0456586743476485,-0.28132539488665914
0.33370880867383407,-0.16227573366435713,0.380024064136515,0.38282886991087517,0.10759595587756694,0.13940343971933078,0.13896672180719433,-0.26879853597765285
0.325905624807791,-0.16963409913483363,0.3947794424630186,0.39456515114085694,0.08995068470103522,0.16178391584023405,0.14164584636126187,-0.321388073450503
0.3271130924606598,-0.20869474408437028,0.37186442889035476,0.3677944319149904,0.10029016774050505,0.13832990187922678,0.12431160846547207,-0.3259339816010144
0.2759989899442153,-0.2115121123765024,0.34626608122856756,0.3183103838090479,0.07214401661324901,0.1080991242959639,0.07720357855645821,-0.28739814753773046
0.2751884849697507,-0.1907438829506496,0.3438886014606538,0.32747516802733023,0.07372081358511065,0.10021660165906698,0.05585876380505705,-0.28168084752577177
0.3290943841300724,-0.1975790319836452,0.3902200905138442,0.3956899353928088,0.09800173781218985,0.16397143431018935,0.145297187947214,-0.30362062204701246
0.3159911517761247,-0.19653628139272672,0.38609240335165623,0.3790985155636927,0.10448236401490212,0.1593880961496635,0.15104693535340918,-0.319604054934282
0.2981949713120785,-0.20752163186279854,0.34494799138406723,0.3500990971621491,0.09290782324703559,0.14156070653660266,0.11334374791442446,-0.33109109795517544
0.2857481940196403,-0.17606818884017061,0.3546482923059006,0.3551144482427451,0.0894368495982151,0.12372682432481087,0.08700714281072568,-0.31600277820248307
0.3162067936450282,-0.17129372521200725,0.3695701477489822,0.36743877946834413,0.08910737098889042,0.15199120981901693,0.14051332724663876,-0.3089331367851567
0.29597855519967964,-0.18742738917581764,0.3517283392769866,0.3376278021774454,0.08114320338086362,0.12264153743047158,0.09962385028811299,-0.3630764623754304
0.2676271122222824,-0.20278385807089372,0.3192413371223893,0.29604442377885964,0.06553219584223823,0.09445804072474573,0.05937133882787976,-0.34879107298759876
0.22918502155773293,-0.22379765521488948,0.272980334206427,0.2460913787723973,0.04594925550923205,0.06035473258752631,-0.004958015634548375,-0.3558260429469283
0.20230852536605146,-0.2059298862600068,0.2296836722012558,0.19813239632946347,0.04679575006483522,0.008257666506639068,-0.0470452566860882,-0.3423021064231368
0.2283706950964818,-0.2163315713028199,0.27576051070020735,0.25095434553751217,0.02520138299463671,0.04085939011624411,-0.010346415508368954,-0.41057252651712683
0.2855834244605182,-0.22799019170122145,0.3583830086599457,0.30361240854840843,0.0589625692466738,0.10809581972498315,0.09940747349269147,-0.42066077979352384
0.28903579600067986,-0.23400285181104127,0.3329443984287157,0.29957439751717774,0.050517909294494595,0.10490415541471383,0.08791903469246722,-0.4001149017079324
0.25537839394228856,-0.19446518034654553,0.29816845682970705,0.24895007386388673,0.058947526340317156,0.08654636775832177,0.06082362742224967,-0.385922603227643
0.236655949995979,-0.24065794112568045,0.2758307265794835,0.23971753723605854,0.03539736273449561,0.05141544335270717,0.0013561844045978278,-0.36207403875647476
0.25586988674683403,-0.27422054301636856,0.29238789412572974,0.2658499482670102,0.017861930715731864,0.050244641975483645,0.018557543875754465,-0.5263296332096338
0.28518921644538053,-0.2918613134829367,0.3486286778844335,0.32387213680287913,0.02396645407467413,0.10397502009959647,0.10334365971399953,-0.5124706012618213
0.2813821979033016,-0.2252442768912859,0.33149042905510884,0.31052518944044327,0.049656323755432934,0.11584566250082057,0.08976448661970599,-0.43253150049699735
0.2661940173368079,-0.22880896091750189,0.29792866090403075,0.2760086377856359,0.06272958068596339,0.08487301586219663,0.04728153326752565,-0.3777437396659171
0.21618453842740937,-0.2385270736268412,0.270523112073835,0.22892578958048224,0.01552554238892522,0.03941407685632912,-0.009860965619477587,-0.4284771376047377
0.24889501839233907,-0.23326848943839568,0.29463394568660145,0.2640481281779638,0.029435319952902203,0.050133792027052,0.025812516046032383,-0.4473162036719657
0.29370434840154813,-0.2215088753954294,0.3283013800809859,0.31430418626461026,0.0494539206870057,0.11625499081909393,0.09230152161015547,-0.4347466667114339
0.294824002952681,-0.23989651982677707,0.3320298507034342,0.2997703044816022,0.06343962989757751,0.12280115378211759,0.09550411589450858,-0.36970147323928265
0.2680872166204424,-0.2160852482724729,0.31082513681314256,0.2776368251099786,0.05752568648252298,0.09433384211661801,0.06611293562051634,-0.3373709783019615
0.24331181722084075,-0.230930746403999,0.2730801880760765,0.24009856099824262,0.035591431275617445,0.05003001485149401,0.010208564524893252,-0.36653705652041135
0.2887730419706706,-0.23303946221383443,0.3122552006360611,0.29050573951995207,0.03442983502095664,0.07673060953492823,0.05165975424235199,-0.45502100046896515
0.3015077947212412,-0.23098188642098405,0.3642622571068415,0.3409362992052002,0.05141179518473106,0.11901224302383896,0.0932109586972631,-0.46251352390523515
0.2977975209931066,-0.19233492569300684,0.3431828575733215,0.3144775539146832,0.05649118230321203,0.10421771936837458,0.08707155703324448,-0.4281630633246281
0.275166636232465,-0.17701059990202525,0.3126256470514087,0.2803820675177674,0.038021643698839945,0.07536813950928642,0.03198230823966049,-0.39704254140157885
0.22931954448578168,-0.24980643393069477,0.272155177062335,0.22558304357126926,0.013002977233208764,0.02895789127117666,-0.017802576173588186,-0.44179804519468835
0.3046751546303376,-0.2368603386982573,0.351770874863393,0.31915088009982767,0.03894517398017464,0.09080979096180362,0.0789496838914605,-0.4964053533799435
0.3158415002573313,-0.21429656965029997,0.36728195960950744,0.35697971471410683,0.072900678479604,0.12716705530188716,0.10658751724099497,-0.43602737751296594
0.32544691823734234,-0.17986420688148724,0.3667627822158676,0.32718918173647593,0.07631169113233935,0.12337197582678695,0.09976995451476811,-0.3774441763466067
0.2906113068023267,-0.16363190451522655,0.3090071483361505,0.28205060131132864,0.053257998535887266,0.08063739274407984,0.04164428186425709,-0.38823037331620164
0.24183621420564838,-0.22753813800501949,0.29585048191827035,0.2574095109160132,0.02011804135854606,0.04422282438543377,-0.0029234723621380057,-0.5047197107735675
0.3188704859582782,-0.20406487278012492,0.365738152605586,0.3263785033955592,0.060982842812458846,0.10893827820750825,0.09438618406339133,-0.48981453022062726
0.3278685372749889,-0.19851878722508332,0.36589576213433556,0.3449011804134431,0.08558250289620022,0.14316768503417102,0.13038338171666086,-0.388012854930349
0.32543688978816765,-0.1636766269826031,0.3515244136896693,0.33012260503159496,0.09093823185016918,0.13439831069820798,0.1055576878806301,-0.37334944347566273
0.28781705077516484,-0.18363394822256926,0.31420588900320406,0.2882967268605872,0.047931083046074366,0.10453934970958734,0.053874178210056745,-0.4250931960418582
0.25633474949230334,-0.23532748239204554,0.3049687929134658,0.24121502937276665,0.041278309299656264,0.05031810620146481,0.010792235805335032,-0.4524111308060739
0.3227015261967612,-0.20206769113815037,0.3637481800958134,0.32086314527620746,0.08708573171756315,0.1252968670138137,0.10944542788944686,-0.4094719374505456
0.31848396198528856,-0.18081406331480465,0.36627892624456204,0.32905562443503755,0.09310035493587439,0.14931527962857416,0.12645269328948552,-0.36326567708977675
0.3035600812566036,-0.1683857070722676,0.3565556302232392,0.3113145570895777,0.07627996185782934,0.1406446807123475,0.10547099743197781,-0.37668839356656014
0.27405222719055217,-0.20146199694207745,0.31795574987260616,0.26983316727127865,0.048296850232212085,0.08367440795620139,0.04294158544947082,-0.4275489887773596
0.26827017009726223,-0.2478200497320479,0.31395844233752906,0.26027971076824663,0.04420653325978254,0.06951709700924223,0.03517761111837951,-0.4319667343799831
0.31865327479808025,-0.21385030991387172,0.371580205350831,0.3404796928971038,0.10061181651931135,0.15058863784171245,0.12453880082269603,-0.38475043981630597
0.322457888056257,-0.22705379651041777,0.3636291178292105,0.31971896431897684,0.10672081685553961,0.15291128015359157,0.1255539185854137,-0.38587263879832884
0.31014173229175956,-0.22116513978175958,0.35016250247077885,0.29329208143951496,0.0875576129188021,0.12391074326854026,0.10779042433823639,-0.4015924801442634
0.2762111609652435,-0.19633953626635628,0.32140487706597703,0.2530697908880885,0.053924330785922486,0.09366360980953213,0.04091803250034185,-0.45805423259988365
0.28578030990978687,-0.21910834892561648,0.30608092683428006,0.263661608962103,0.055144551911433116,0.08420510582401163,0.042458318756535496,-0.45489650598448567
0.338324058197965,-0.1915936118717592,0.3822446107041578,0.3452416957291954,0.10541350409834083,0.16766006341659964,0.13783795649978775,-0.4214355654202202
0.33524700956268255,-0.1689036340177034,0.3805043496089417,0.33043616803456705,0.10056868447081373,0.16579742285029175,0.13761319880553885,-0.3894451116607204
0.30122087512562534,-0.2116814622639046,0.35009426757207207,0.29076851846012375,0.09291332541295898,0.14202567114512155,0.10138738310043645,-0.4120750009914496
0.28370857865089805,-0.22791560187742047,0.28362619993068217,0.2534557735470944,0.05341017146555345,0.08625317001857379,0.03940490755456188,-0.41030593135967447
0.27234947507644736,-0.248307388017396,0.30694351890452026,0.2596513576203856,0.05568842255158083,0.08111169916377987,0.0453800456057977,-0.4121867514250554
0.32666798940407427,-0.22997737429385876,0.368291255693813,0.3192070774551302,0.10395651398097597,0.1652882921221225,0.12932484524290197,-0.3897160504987655
0.3198248162051902,-0.2630791146902163,0.36630281238395807,0.309312714088735,0.07880758293960514,0.1380119758878803,0.12269302810842088,-0.45859084671909134
0.28738134525054043,-0.24399516936060667,0.334567928773597,0.2727020460931298,0.07073485796132288,0.1116176789156402,0.07848281085600255,-0.44560882320756484
0.254707579144262,-0.2826192224750076,0.2913202104214958,0.22772430451180228,0.03354198580935475,0.06927880646516313,0.011096312179006146,-0.46269429026779335
0.29012812570896324,-0.2612072773550613,0.33921131467990995,0.2680361099928904,0.06162142739610769,0.0983990481842982,0.0526250654123371,-0.45267428287926387
0.31779480819474687,-0.21525635049565675,0.35613455105845043,0.29951252415006735,0.08949218999513843,0.1393449943956269,0.1038561925393911,-0.418466700123894
0.30832213953192716,-0.22558798298778143,0.3604160243436374,0.30299094328246867,0.0740995272355279,0.1291943039475177,0.08961024888759252,-0.4691449886466142
0.2766216498593993,-0.26637176268413043,0.31330905765124945,0.25613175758688317,0.056647845223221534,0.08528862189038527,0.03513650566479209,-0.49222016669576674
0.24099910077481915,-0.2432439690586618,0.28207625637310574,0.21712223114780005,0.0266422219245955,0.05094620925087259,-0.021067333003479696,-0.47983566396330596
0.3240800436071592,-0.20981789306215348,0.35411362670000507,0.2992505670823101,0.06462399604970767,0.11778717797174344,0.083561977555685,-0.45036674795648707
0.31572820029142606,-0.21188229529288416,0.3755601980589751,0.3247807978640084,0.09320270106914379,0.1464918105611646,0.11855109671367406,-0.42696068783496427
0.31294523669971125,-0.23566707622305974,0.34967115808190424,0.3079000172876374,0.06901551712169432,0.132972315892721,0.10535986683483987,-0.46767456736177665
0.2807814654893195,-0.23904003604079865,0.31601556620003496,0.2713785346359371,0.05251022176037339,0.10522661010237006,0.045794930405457665,-0.46728314665476695
0.2595039568606409,-0.2195238295842018,0.2893451486490165,0.23584635411093824,0.040505423933039165,0.06107474648062434,0.005515216645622537,-0.5050453048134304
0.322829356816652,-0.2059435907143702,0.36977594658185603,0.3201546576847492,0.07514648186930625,0.13779845604014718,0.09773922182694429,-0.4637016542336057
0.30932771760056177,-0.23607467482933894,0.3752812713208464,0.3321664727306942,0.08013412196349701,0.14401878486656522,0.11231079034786685,-0.4854021595730081
0.29484430094089104,-0.24464472032322768,0.3480494790737469,0.30499541998863333,0.06311536493215321,0.11594731065184526,0.07161998962141132,-0.5054294627523815
0.25970519405356157,-0.2507764831869918,0.29627251861577897,0.2611265847363724,0.036019618176707145,0.07466104187807547,0.004409146908161567,-0.4951650925118289
0.2570362345209769,-0.24344323263480927,0.2875483132090521,0.24764401696692342,0.033532812596654686,0.05874987154139682,-0.013455842126662003,-0.48189689765927474
0.31318536089865917,-0.2573886909384565,0.36668749588836985,0.3218466871855143,0.05964524067591909,0.12931840143924592,0.10230048022554446,-0.45688679725766307
0.30184945406263847,-0.25872385178719276,0.36362424291729734,0.3256239305464254,0.0709572340051984,0.13007267973433248,0.08948534734651227,-0.49286109466081957
0.2831020188696579,-0.2639213195264203,0.33481408132389207,0.29253554257254816,0.055909974269820154,0.10126237057292102,0.05768332330710924,-0.5661140504790696
0.2420624142777259,-0.254781394647016,0.28173983968275196,0.24080683374911158,0.04049048129516612,0.0463317536695164,-0.01835548576511764,-0.5710060949095171
0.2784211689910401,-0.2560786716673992,0.32531431429753493,0.2871960330220165,0.03912805172722081,0.08079273449912731,0.038291520398177764,-0.5384648356181513
0.31415908890125244,-0.24803559956055304,0.35918347304444753,0.3313844074758995,0.058049745631129454,0.11976312579378937,0.09821540536603192,-0.5515260089016724
0.3091240123363061,-0.24279923043053278,0.34190805505904637,0.31639566209273357,0.06141996198423172,0.1252417732428058,0.08992904491699842,-0.5112961234261516
0.27460602421987695,-0.23027431131892387,0.30267218085397346,0.27455998267304166,0.03594176418576803,0.0734391428617095,0.042331126822257814,-0.49021483158980966
0.2378472431772518,-0.23724375435983985,0.27563277890567534,0.23149019215288674,0.024089778939071875,0.04122583861957006,-0.027665187047405084,-0.49982385953599645
0.31304607925552125,-0.23825768334064418,0.35228866947653975,0.3271225958734154,0.05831778902528771,0.12236555668549556,0.0915632150610886,-0.4975843097536626
0.3103205724211835,-0.2322707890296826,0.3495776226783548,0.3433741538724933,0.06297090211888368,0.13812972576269858,0.10738940068440254,-0.4942338848310969
0.2920917375700321,-0.24962141671883153,0.34690649934931017,0.3224163889429231,0.06216453614090362,0.12180256825765205,0.07890076959260346,-0.5253200932052369
0.25693656166034806,-0.2503181893033021,0.2834957172838375,0.25970295307276636,0.0326494187528407,0.07276409241012487,0.018138713889294812,-0.5252761738773588
0.2464283723870776,-0.24564296021919424,0.2815593671895371,0.27651794629127713,0.040386934545628674,0.066875988382326,0.008897568453757098,-0.5001662789291589
0.309026133622291,-0.2559530471832078,0.3608625338168961,0.34703374696062744,0.07483409392103624,0.13626240991292463,0.09671068160176664,-0.5295443210874002
0.3052153959686266,-0.279779302986197,0.34746876771963775,0.3144892339065085,0.05119601435884752,0.12854431265335278,0.09611470032188035,-0.5480781886121034
0.27771438080709393,-0.28044563565961955,0.3221080974573765,0.2965445560181842,0.040300312191813875,0.10968418966657,0.055700438864418986,-0.5354777793306549
0.24626191331326622,-0.26345119670229317,0.2900656327280444,0.2625016357102254,0.03683414546397116,0.06781797851804303,0.0024099061944026323,-0.5435423650623992
0.2972174309477137,-0.2931200528116868,0.355754475205294,0.32467583971158687,0.06102314590454061,0.1304189990596449,0.09324010845727627,-0.5509336085666607
0.31712314635117467,-0.29266739735320874,0.3645668714269768,0.36798585141552864,0.06474441322194648,0.14752322887472957,0.1203703804344473,-0.5527228239997326
0.3058444140258144,-0.3012574391998214,0.36620621300455747,0.35863999320334,0.0652554498694556,0.151153739869073,0.10360444057321791,-0.5787022305178565
0.26560473854488303,-0.2653451164796825,0.326479392616188,0.30444461054628774,0.06545197896573533,0.10224093952562673,0.050463968371339075,-0.4827612483802266
0.26302585923850946,-0.2383005624988441,0.3220165207326856,0.3171406123144095,0.047770194883071694,0.09828418207181447,0.03458958321742638,-0.5072237057963943
0.332042017715849,-0.2663856758816515,0.3999442220146261,0.40424510010937115,0.09598819136946692,0.1905216716073909,0.16089173531337003,-0.49963971073527014
0.32912894893950095,-0.2669305512609687,0.39876282343793573,0.39278171037364495,0.08602670831081552,0.1890211089228722,0.1606364078326342,-0.5239494701841568
0.3018331101638987,-0.2623758251502534,0.369289903810954,0.3588376478257589,0.07057157204988516,0.16700810784927497,0.1169809076393713,-0.5232088119769771
0.2666438429505374,-0.20779197785232967,0.33197570789803643,0.3319082708872138,0.060834016891478826,0.11545082054283286,0.04673819542493114,-0.5295184576210122
0.24035667335111657,-0.19134919569507758,0.28589796461288963,0.2756243133952024,0.023476088914612985,0.0719580743967276,-0.002808623064297879,-0.5531221729192113
0.17947664874048327,-0.2295822084980983,0.2219977167546033,0.20052302953060971,-0.011159908117274587,0.0032154189921957906,-0.07305727117229795,-0.6009368819493526
0.12706494958689207,-0.21633942208826162,0.17467526987758714,0.13650866676144577,-0.0835101809789392,-0.08293283920741233,-0.17939782569810883,-0.8065290797286069
0.0765606032028649,-0.20871905260620305,0.10856350680107422,0.05127438473121577,-0.1387927269621392,-0.16570635102254985,-0.2765609839278229,-0.9198661326748269
0.09849062666270676,-0.23595393638768997,0.13195646893409052,0.08058551540809282,-0.11577168788022732,-0.1358839758337182,-0.25462950308571225,-0.8021973068811719
0.26537294712952736,-0.1557342199763371,0.3005040493118459,0.26508861914121884,-0.04221104965335701,0.023823812800092714,-0.03526529970955713,-0.832767544497154
0.266426833110138,-0.15527610103384792,0.30470581310217415,0.28063779425081536,-0.05348826293623681,0.02750419733170688,-0.035132418917861896,-0.8644769334473099
0.25385338968407156,-0.2038306870658472,0.2745462510533245,0.24401638809052176,-0.0688029389012097,-0.003376064879116819,-0.05553841313169058,-0.9008958151815252
0.1981689884635359,-0.16281072572483732,0.22079991187595743,0.1982742839783198,-0.0953814170855549,-0.043869224378114746,-0.125409101695349,-0.8575263342083025
0.2808360549154921,-0.1502341885397661,0.29873450134882823,0.28937433240901334,-0.04310404473666623,0.030083679249672042,-0.03112779049532959,-0.8365398875040678
0.298177077569472,-0.14742214567906162,0.3208718216499438,0.29917693795587297,-0.022040618245407678,0.06277176382921064,0.018235640620501474,-0.8007325762471051
0.2680582622703559,-0.20370918873024865,0.31586289158880937,0.2783957729524322,-0.04700285943787803,0.04273640615733804,-0.01418315802076727,-0.8367758926613791
0.22237659096625667,-0.22471763904711242,0.2456738747141629,0.22808282423283488,-0.05173493509494748,-0.010258480404366149,-0.06834594887618872,-0.8052971423551751
0.2872277561524399,-0.17914186825851933,0.30873027127315533,0.28546618557748066,-0.030983230428068838,0.043713744665579264,-0.006748865208570433,-0.7781604447656921
0.312505819942351,-0.16042089464629825,0.36644691367838567,0.33175907582833697,0.018923911788361444,0.1261067990789238,0.08344917554800378,-0.7133215419414054
0.2950493198481858,-0.18254371380839043,0.34018246805799623,0.34479119925374807,0.017011774587941883,0.11571634790901408,0.07564770410616488,-0.7271977556002891
0.27214758848186305,-0.17959039578383948,0.30621332004240565,0.28161303719775616,0.0013277688489743943,0.07570391003416287,0.026832948675205966,-0.7535720482511062
0.31267590950706153,-0.19176147637106405,0.3463801364244179,0.33908688474493864,0.01695677701505038,0.110401534443067,0.06906858236602943,-0.6935306768771653
0.35472097839587946,-0.166327976881643,0.39605428485761696,0.4013020249237535,0.05892199108492467,0.1917231011216132,0.15145132579037526,-0.6265850107093427
0.35391541246217306,-0.1481484689045501,0.3927513060059888,0.4043071404530653,0.06801205603598662,0.19138931723220812,0.14657582875748582,-0.6152341387981907
0.3146845355348049,-0.15685795069964112,0.37312369808572243,0.39454697731916594,0.06675241857999392,0.15297287852779684,0.10850733951908587,-0.5887592715246468
