0.04909708624402803,0.23904244990010065,0.06012371920929643,-0.006499788872460697,-0.0069899435722352125,0.013897718097938768,0.00907897473505088,0.19322797040354034
0.06102910121751576,0.22784599657222993,0.06757586631499388,0.01932414739145249,0.040141698174258195,0.08753562125017562,0.09223681895806647,0.22129617890080655
0.09221907184338635,0.3037928409084808,0.123544971920283,0.07889353992990047,0.18981627266785725,0.24545007051449028,0.26670599738801715,0.27888737452571144
0.08834271028804945,0.2917780945856856,0.11195316148524562,0.07951137588983183,0.18301183956653858,0.23206930546657478,0.23632951137705333,0.31699298003284726
0.08024235426836573,0.25420807180498456,0.10120737030694638,0.05548470847778048,0.10380958490935305,0.167338931619825,0.15884048418467733,0.2492944447631049
0.054507030023836237,0.24680120513384785,0.0749325975998382,0.022046049290774337,0.02978060537919864,0.060726522122264634,0.06692529324763655,0.20656662199225223
0.04768880622486179,0.26131272320380994,0.05834614952390293,0.001902742413455321,2.9583497530589684E-4,0.03368405786810677,0.03321208876572828,0.21736414648570757
0.07955569326149671,0.3179712574411063,0.12308168467759566,0.07658300427641568,0.1926670866010534,0.24902521050108065,0.2498296586057249,0.3336083245313692
0.08630374357411455,0.3515904546387077,0.13378738487007283,0.07963371043317291,0.18844036168777364,0.2429819637520999,0.25422154406160863,0.34927660424720497
0.08498371789065784,0.3450683121138762,0.11929555603207723,0.0700787960581842,0.14488926431871546,0.2064525600481341,0.19578769143075564,0.3141977695172818
0.07387720007312282,0.35001946694797514,0.10825126003587174,0.04038002537540222,0.06043889582940068,0.10828632746393244,0.10567410951519565,0.26687741506032475
0.07132204913514519,0.332623752267996,0.09716374162788743,0.021389972291362736,0.03915071605249749,0.08056648902266668,0.0692732883933877,0.25613982448209394
0.09288806487746655,0.3539104145067494,0.1468350090840123,0.081976784615999,0.22970324600574576,0.297969176671193,0.3045710295394664,0.3829454593336969
0.0967825624822605,0.36845293281145863,0.14572506108498315,0.0931791742723889,0.23173691504326038,0.29396872184520817,0.2982040478262492,0.3395605918396012
0.08615938993444053,0.3517833474205908,0.1292197310827946,0.08185647143779576,0.18257193627364737,0.24582850984694382,0.2475110331158204,0.3230089946616643
0.07054556216948399,0.31803426268551344,0.09479083653419454,0.04522119851048107,0.0918691487605442,0.13997931510317865,0.14388301838560474,0.23890217001091624
0.041833936954897614,0.24322398855192956,0.0638494983187147,0.006498430548852664,0.01607945132416865,0.045934843065394165,0.05762677843891213,0.20814819432237375
0.06585310340225925,0.27771817374546504,0.10506488322382201,0.07942045726160107,0.20219080453729935,0.27058885102982555,0.2855224520432849,0.28075591760264956
0.08888018107060965,0.30254158883516147,0.13516957332401416,0.10810449678872647,0.24611354804430088,0.319464341928384,0.33062374652045384,0.25842110063219553
0.07554729484383904,0.21526843632040804,0.14456566390171294,0.12369984043184468,0.17947211206274474,0.26152225240183696,0.2636324473452777,0.06990566024622921
0.03628424325824319,0.05195699064676096,0.08145533028994283,0.06062788373550118,0.06725160413334993,0.1377292962483111,0.137632461018481,-0.10661194686213155
-0.012979788730104493,-0.05410397772676946,0.00569585290830274,0.0028684513049785504,-0.024830730616377063,0.03260369261045552,0.03744993780684925,-0.12437392276165815
0.03547690761713978,-0.032746160238557365,0.049300131291213495,0.06716126651266285,0.09231287714080498,0.14018398259823991,0.13571499192671824,-0.022698319233642777
0.08731020625618961,-0.04629638028936428,0.07607152517915639,0.09334442352978749,0.22047633639260272,0.22972395505429882,0.2412249431304236,0.07964713298558077
0.033214205050918114,-0.06398786481104111,0.03660811975705025,0.036721950784264705,0.17949196311838447,0.23193869059150074,0.2347316774039828,0.08019631591296057
-0.0034684029992462194,-0.025988473177793184,0.005547486125903438,0.0036178351132167275,0.110968108395041,0.16495449669732865,0.16955378266743884,0.049292234695208596
-0.016441058509393584,0.006063574127294212,-0.005583295509993452,-0.02321625299057175,0.0249552926465545,0.06598359111197277,0.06846696503666447,0.012001386969494827
-0.015234005410948322,0.01742583008154952,-0.0030322671805786475,-0.02806786987387023,-0.017193473004627237,0.03129607216249695,0.03119488958335348,0.011563840259567231
0.021226004501904743,0.06702692770044646,0.04101318179217994,0.04084623345301426,0.1961269387494089,0.26565206386861784,0.2839959101717078,0.13484323609010063
0.02811027254546112,0.12664722375163556,0.07409585359738081,0.06396704824860672,0.2029469935397754,0.2709268215000077,0.2945805653795487,0.14527676801834322
0.03280092688548458,0.1750361057766119,0.07381812822405931,0.04829095719549564,0.1625781081308083,0.2070778822073313,0.21580925387812494,0.11865371835850541
0.015153939894090702,0.15129323833707448,0.045684734856233936,0.010081150689097922,0.07353531539009693,0.12102538472552439,0.12602853054749347,0.10168979016047403
-0.009927175554265606,0.08525796454049486,0.0018462436479021876,-0.027066881049168955,-0.017979272162960382,0.02087338126364914,0.023382285954193532,0.00905483874124165
-8.304256026560007E-4,0.05423517425843013,0.029561821961757308,0.02364107671285092,0.15191144999205566,0.22881513530218572,0.22770499081190237,0.06853376111528778
0.0140983257504349,0.052936431052215856,0.04440100770647529,0.03856945577763482,0.18777448277985007,0.25123261946471287,0.24238533305226653,0.06856055481317994
0.005498766946320639,0.032203587356342635,0.03705369042414393,0.031831038267192684,0.1453090982244497,0.21195493695336087,0.20789666776962815,0.03258432060441758
-0.023496672329279662,-0.022573017372470163,-0.0034167216882388003,-0.010028996953865978,0.05187263991860286,0.10709708047662139,0.1039573674134156,0.0017325821638277542
-0.03419268844959933,-0.03173857753154258,-0.023513992451909726,-0.041314260802256655,-0.019304212227526783,0.018377404632685876,0.011497977626940874,-0.04012482097954072
-7.569763650930976E-4,0.03335538466838928,0.026712745830158393,0.026856810149057747,0.15656853414505975,0.2131939713589724,0.2177557886214718,0.05880687842714751
0.024184621104045918,0.12008287656067249,0.06444199445947107,0.06703777497859786,0.2250963148247171,0.2693396773001236,0.2867039687566418,0.12117025331649113
0.026635607587996896,0.15722515362968187,0.06531411675539603,0.05920458040860332,0.18032332502542908,0.23446218589345202,0.2428328063149796,0.12607898778622773
0.014603538379523131,0.13831896943457656,0.05294287304025686,0.03822214027922205,0.09819661382362477,0.13658349876771314,0.1402747179246339,0.07695931283188773
2.6677651419579687E-4,0.11581694680024383,0.017399187177963276,-0.010594709302439852,0.017409298258295756,0.032059856360132935,0.022011678630585715,0.012644808432017884
0.007210536984115721,0.1270175068056555,0.04811648744230629,0.038304008150094354,0.16140304940733644,0.21667156857206576,0.23037996588058454,0.10720631935072397
0.033996829195502676,0.16104061685504117,0.07910195275250037,0.08228702686154235,0.23067810146261167,0.28957828112712697,0.2964802440258081,0.1563696673506701
0.042805968510943496,0.16984404358656113,0.07715643014887544,0.07349051190515471,0.2019884383283389,0.24429769019650754,0.2606217213594094,0.15001297177064543
0.01676215758998973,0.12219753504247297,0.04912873990412858,0.032908108191521034,0.12627397865792123,0.15379361045803752,0.15766733312714795,0.1186635980698515
-0.0165016229689776,0.02822134860413196,-0.003785817822982908,-0.023618457231602812,0.03312617824299357,0.05575928043770934,0.03695745320713348,0.018784530708791845
-0.028659697340024496,-0.0755445488214829,0.002565929374664634,-0.0013308080142469328,0.16549648153447538,0.2203910652722596,0.21282009919902728,0.11898280391393445
-0.02473074431768408,-0.09322978173730583,0.012577981197130994,0.00824538956198581,0.23325719217062213,0.26857253391539787,0.2822808370621591,0.13644086437599123
-0.03452727004954424,-0.14294678528531676,-0.017194350284301413,-0.0033217354538445723,0.19045876634126793,0.23240289129780428,0.22947373171774318,0.15463167820092635
-0.047152026180631704,-0.19429048934048868,-0.051551308903849985,-0.02936273219803823,0.10657530178585004,0.13456194903375965,0.12536779429360342,0.08486514177188227
-0.07269967845190103,-0.2671826756054334,-0.07811455315418897,-0.07487401682558345,0.031208932053730085,0.05901600272514863,0.07683559503039757,0.006561725637771182
-0.04950148494721193,-0.23573530386973243,-0.027709042843928756,-0.014473710220158871,0.22084383321735876,0.2675915692645685,0.2771338949704145,0.12955392881134423
-0.0284738051530763,-0.17409751348174685,-0.010215023311256281,-0.0012504528279128069,0.2330928476579744,0.27207654201245834,0.28662655694061284,0.13706575170186247
-0.04354892841140077,-0.16589776023784222,-0.022342921183162147,-0.013587025537990571,0.1786440469796429,0.2242581748340166,0.2190366772290618,0.137573174158925
-0.058787191854571444,-0.19737905577546988,-0.06162946473213755,-0.04543184502696382,0.09448502480051299,0.11968321738799731,0.12123165429976729,0.08121720365859848
-0.05639241715540816,-0.20538994186715528,-0.052977152946583776,-0.038076907512690425,0.12928253248875057,0.16644394805341642,0.178486307771908,0.08480362325511846
-0.04392309419286779,-0.1646068753603339,-0.019128943095798864,-0.006222246902775258,0.24126502353141163,0.2845528225160264,0.29967655130892557,0.13942485585798392
-0.04617316217547386,-0.1457434888400815,-0.031267451348242055,-0.01262640781580529,0.20908804673813314,0.2493118749558519,0.2552071651684817,0.15392319089904305
-0.05214445369316188,-0.15208176589304323,-0.04456584367562849,-0.033672242337850954,0.14678526866531422,0.16009530086291512,0.16351631713093284,0.1103954450503323
-0.0691032335789938,-0.18025405942026668,-0.07785754800883213,-0.07236541144378467,0.03195375404551842,0.04741492056202166,0.06098958731664453,0.0213252803945206
-0.06194806137226291,-0.1853761337448823,-0.06548159390229695,-0.05315363961916468,0.14855159022323916,0.17362744597121868,0.1824875189011364,0.08291708911028656
-0.042721016765900566,-0.1357442536065797,-0.03426637531196277,-0.026509707822549126,0.22895171637148026,0.25539244514839454,0.27856709383062733,0.13903895375468647
-0.05377227962917648,-0.17448737048982857,-0.051374568904322244,-0.03519838530752248,0.18942689893557726,0.2162466240030953,0.22217092410876985,0.11386939048137971
-0.07498268021018983,-0.19604546207573853,-0.07452994157379594,-0.06989156356257639,0.12025729482239414,0.14523397879746958,0.1348815505491792,0.07407949443907966
-0.08615559422023253,-0.18303832805378883,-0.09659581858074465,-0.0940023251003308,0.048977851968439456,0.06346871004220069,0.059650306150266244,0.04130222031414652
-0.06477510837216088,-0.1600658580773544,-0.05143220299712101,-0.04275113472401071,0.2157141825024283,0.2531954433531404,0.25483367434202797,0.127645270876097
-0.051892654445037004,-0.14076149229496823,-0.043806707085404135,-0.041293563270057315,0.23809242724565244,0.26084870569672414,0.26642561322998515,0.17396109276473273
-0.05923083690902714,-0.13698344545516936,-0.05954640140609517,-0.05808135056473449,0.18599113386940125,0.21051832390101521,0.20605107338149353,0.13341989653212424
-0.07396910361760242,-0.17348815844691542,-0.08092003799471745,-0.09045611065901511,0.09483847380887447,0.10248188853471077,0.09751054835187431,0.05643365244287955
-0.08922183820182437,-0.17843717614774093,-0.10219009270629206,-0.09932218291087251,0.06591186436482468,0.08586672665523629,0.08829553712847499,0.0553988405818706
-0.04855573810704285,-0.12738669829145358,-0.04560291272296578,-0.03849397819551613,0.2513384265676914,0.29665207024705936,0.2937527861143454,0.17044110381336414
-0.042209648642470475,-0.12488081002371113,-0.03419535463460448,-0.03219777822176915,0.26166424980706565,0.2812186224282897,0.2965698548524243,0.17102666147065204
-0.059863356128812814,-0.1533217047779404,-0.05987883128802793,-0.05503860327993283,0.20284148546010256,0.22074373496409477,0.22938279507399645,0.11260429704767434
-0.08174523920666166,-0.18645547990755793,-0.09040670035968643,-0.09353764279227318,0.08863487707604825,0.11887123926056653,0.12874295801653407,0.04036962129704921
-0.09644248862317503,-0.19106371017062027,-0.10693860620176021,-0.10976677374698973,0.06160085557772134,0.06143751733082989,0.062058272480814414,0.048753971002658096
-0.059349156138968476,-0.140518846767566,-0.055060288067476204,-0.04338833689476105,0.2529738501202812,0.28085692693574077,0.305222679978747,0.148635124041253
-0.0373505175240028,-0.11304290928620431,-0.03182337183499231,-0.028268768174746096,0.2643869384021855,0.293764985043829,0.3134509533193835,0.1618154627615462
-0.047078077882897355,-0.1323499725923459,-0.04017607964738187,-0.04926980514336029,0.215933210992516,0.2414945903775356,0.24439200117173826,0.1495810252169901
-0.057953399931096036,-0.12581052704078638,-0.06737066960027083,-0.07024681018573105,0.13383649957778468,0.14181933414094586,0.14373614649564564,0.08427586006045942
-0.06369777953465106,-0.12503048444181647,-0.08397835690007471,-0.09683631180217184,0.04015115961502921,0.042695051779117935,0.04665410568691307,0.031468747299779457
-0.048247212141788454,-0.06601795409751078,-0.053000240855690384,-0.06608018450188247,0.165380821330332,0.18529735204927858,0.1969413422535986,0.16153760815378812
-0.02533298765607985,-0.04246692745950498,-0.02131276969583186,-0.019529098661348894,0.26651376368726293,0.2970933122037254,0.3148024211807406,0.2041509288210842
-0.029175447039612043,-0.07426464077576753,-0.035381123073312884,-0.043958829910295684,0.23926620180712915,0.2428538828007728,0.26480365409661577,0.16565562855417998
-0.04352805444770807,-0.09584264455530124,-0.04228884185169694,-0.07208321914098774,0.14710113103881078,0.16893353921334164,0.178485490126572,0.09665307243933943
-0.051366354887592156,-0.10234394702388877,-0.07558741809165312,-0.09745911706714433,0.0769161242764455,0.07784088281152651,0.08770160000094616,0.11109527760737883
-0.044377916797103074,-0.09431871575091691,-0.05912520008807309,-0.07455305960921439,0.13171472689636998,0.14749238195369568,0.1574550003628594,0.14541981251285674
-0.027989220935016806,-0.07314776859389877,-0.02728075015617422,-0.025004594934914713,0.24448691583004292,0.27771752873431377,0.27993169206810053,0.18756592048575726
-0.03549164893764269,-0.1110522711376384,-0.03321345241011568,-0.03437736730697852,0.20099797960253232,0.2247456202600378,0.23015249430954451,0.14718598539330896
-0.04699448592106619,-0.1271827460457637,-0.05657705203071564,-0.05749579126701025,0.1209083341467006,0.15084901549748897,0.1566229707843865,0.0864271621671808
-0.053693362413058825,-0.1388544084580546,-0.07420986291674916,-0.08492957221202621,0.04481100351689575,0.06176434953683933,0.06025472640456839,0.06170692145000281
-0.046963962084282315,-0.10098167212973921,-0.06233301252576734,-0.06337182960400072,0.12270957499533038,0.13739451166140082,0.14450073804753533,0.11434494957764148
-0.011114090635690707,-0.06959583334595155,-0.014267791225300273,-0.009034821742278706,0.2452928121970048,0.2805296855935622,0.2953391188920102,0.16634176428115705
-0.016062866006299963,-0.07490295512450441,-0.008468333782752548,-0.01017175243074039,0.21379235645704575,0.25581624980399864,0.2710443219793005,0.14026283281595772
-0.01475106737346523,-0.06604829264679732,-0.028507122895427096,-0.01950389314868248,0.1589288256350242,0.18026719631293037,0.19469344748985407,0.10104595190396913
-0.02229165866238382,-0.048909638097817267,-0.03844556865777426,-0.05140801980932852,0.07914457439071323,0.09189977871595084,0.0924937932502933,0.10886634737373128
-0.011917173013816697,-0.04955659374448359,-0.021698965436587076,-0.02526808575623548,0.13229746531565065,0.16279710298809283,0.16815308122719977,0.1511106292197163
0.0193489648673702,-0.02221282909691788,0.029218723242961146,0.0317860832154783,0.2741687126097184,0.3123585398834434,0.3126888435177372,0.23088688996499446
0.018306300103746988,-0.015915199593842473,0.034163867182450486,0.027515784004584154,0.2496791393630053,0.28030321575177275,0.29323510084151627,0.21189358366482475
0.007741788354820797,-0.03712465469699966,0.023486659264930713,0.015543312332962758,0.20517193893045582,0.21424865838303733,0.22220375100683326,0.14641045962891058
0.006622671490639812,-0.025968615040827137,-0.00524755266310151,-0.020438761597024766,0.10783392878955071,0.13074489120329436,0.12623346843883737,0.1252234014138283
-4.832871800553489E-4,-0.031075018695692198,0.006166777449870979,-0.015118591272813228,0.13347153271192175,0.14359606520422816,0.16356394505514646,0.14293230323797174
0.02543035110089988,-0.013962150200674223,0.042813306842534635,0.04258624366897291,0.27948431064568746,0.3182387148703753,0.3417980217475729,0.23557947236275165
0.022432284223552743,-0.007994177959673986,0.03959386538126264,0.041448218704315726,0.2700736525890835,0.2989168072844537,0.31027105857168086,0.18102779731218746
0.019028731848632928,-0.037837983517859206,0.018830594501600125,0.019422310093510496,0.2116417186583744,0.23037221907608646,0.2346245029183246,0.19829073489819077
0.004081881229685971,-0.025507695743120604,4.368284968168448E-4,-0.01267040210708556,0.11868746188302533,0.1421709551788509,0.13903505178260017,0.1175248901714625
0.0068426068333915235,-0.030368274206861147,0.0042499195368819395,-0.007434752622580379,0.16313255250105668,0.1772953592089522,0.19427584359573274,0.15103863925157487
0.0267630607928621,-0.005098927204407626,0.03931629423516651,0.03429233702204567,0.27785504178053944,0.31513621445855444,0.32345829178632496,0.2091566151313595
0.022514706118536836,-0.009205577881203152,0.027833518881116986,0.019082675531283025,0.26129857612223956,0.28217282297631774,0.2846415138957837,0.18074356624869511
0.006038324465062762,-0.03411365825975324,0.00393047396175869,-0.009071407632766218,0.18634994476225825,0.2165259766180997,0.20787373509185392,0.16062473931523039
-0.01736912457133252,-0.06685062494421865,-0.02510491620001501,-0.04819550398274833,0.10983195497761633,0.11044152629344511,0.11592482524723781,0.08104006146263598
-7.86009687671738E-4,-0.05700852029507167,-0.006020635796316939,-0.02007639972466557,0.2062776485257144,0.23229260527294074,0.23333173351439207,0.1564954658762214
0.017824444010837243,-0.02914720374136061,0.02072119188872257,0.02151389988940139,0.30069415846175473,0.3307242391585063,0.3365213311332612,0.17901610151586472
0.01248933069969738,-0.015428857727780434,0.014818837604966856,0.011183330749934578,0.26787589867664474,0.2964919947273301,0.29906327582715136,0.20018620284227706
3.546236522394934E-4,-0.04087768935098051,-0.004691817814024675,-0.014366552089795655,0.20094408382956075,0.2184167361682338,0.21137820140991226,0.10793388165818293
-0.009441877830613775,-0.031962710491635765,-0.03091054559826702,-0.049033862395588663,0.1298267505297391,0.1306424517798225,0.12059202803770032,0.08678447799645093
0.0030208366909963945,-0.0027706780044317453,-0.0015890376593425334,-0.013840951076327032,0.23332674215080396,0.26420256192285096,0.2774520218607561,0.1780225390526806
0.02622858619515337,0.012235504226195713,0.030632409857294575,0.024259021142462617,0.32745185725361586,0.3515212163575356,0.3650292066327124,0.2300724813697359
0.01580812364774177,0.01146816396291716,0.0205647812901701,0.004664643967551459,0.3016859776977324,0.31923440686625515,0.32360582324358356,0.19551713618361183
-0.0050013173441651616,-0.04818142780525091,-0.014343877751099257,-0.028176978974878347,0.22282677922265132,0.2387348395995715,0.24070760292935925,0.1399538787909021
-0.027004762373052243,-0.09387862487304864,-0.04709228590657213,-0.056877745648684905,0.12629263821909856,0.14747211410293692,0.14744600127103552,0.08937761145377887
-0.02808444386376642,-0.07036155976451855,-0.04544027864031915,-0.054557633756701404,0.160881480944015,0.18869428177177142,0.18067384551342502,0.13069167634408724
0.007828858884265145,0.014276567530306716,0.014109453487266891,0.00474653681649119,0.31379270820022315,0.3530893042510986,0.3609797870294808,0.23456884836089043
0.005730318012613728,0.004087385125706205,0.010210519382782772,-0.002977334216838462,0.3020846921634907,0.3321291891282028,0.3442624459696637,0.2017576081378774
-0.00394859938720942,-0.023870585296485163,-0.013959766794612062,-0.031482394267656644,0.23854683112257663,0.26335339099263944,0.2669232189360605,0.12783664599712388
-0.023695250317041186,-0.03306453702550753,-0.02714147838705258,-0.0606365915532058,0.15028705339164405,0.14922165259114661,0.15923303173503014,0.11700941193569295
-0.02521692528088419,-0.033800932208612945,-0.06078232443992608,-0.08608114920344272,0.07327499293680403,0.07870848919929636,0.08108303757221852,0.08306091577954053
-0.0068176918523431135,4.3147887883936836E-4,-0.01597041621175684,-0.03517518976896053,0.2716392176291537,0.2930677848117648,0.3114633643869182,0.17013657548993177
-0.006140582978025283,-0.020797593986617277,1.451295881220796E-5,-0.02165660685893349,0.28381389937059087,0.311768634448688,0.34003720697886686,0.2038391061328189
-0.010100818863970618,-0.018294875898067442,-0.017332087209704007,-0.04931222204705821,0.22807876841062358,0.26938444498260156,0.28377368245456297,0.16211262765821352
-0.020126938378836175,-0.010088231420688099,-0.031194133606250424,-0.06339243615322854,0.15779033502449982,0.1844550731463389,0.18643687106420803,0.13687722149142012
-0.026807858380522492,0.0015240845434621314,-0.05059477329825861,-0.09852965505670114,0.0944347873125421,0.10039136523236665,0.09426249498416034,0.1214483858408522
-0.01120514770011282,0.01572642518171194,-0.024762314411687966,-0.05099285230552417,0.2196536608724463,0.25084715232678834,0.26126232742446537,0.18303449105798814
-0.008844103126844811,0.011157354554837285,-0.011385971574143483,-0.040243527409878,0.25202729726784534,0.2919266354038044,0.3054475267096305,0.20436693036517942
-0.01565749729844236,-0.006514997179581757,-0.02771454500122918,-0.05297575038805851,0.21567875062408862,0.24346492849960227,0.2513533862552429,0.173181360175663
-0.02491827737834838,-0.012795995745654487,-0.04714609787302714,-0.0747366157847321,0.13698805310563514,0.15279689109091976,0.15273681857390975,0.11570239860275647
-0.03418243910798399,-0.0013536378080174216,-0.058950706363235246,-0.09754956357135575,0.05434101014801378,0.05281017725396839,0.06927547422693424,0.08823575637651022
-0.006906140228662589,0.018812154276863495,-0.02287829394985197,-0.05320310843723805,0.22686639390718163,0.2486642613707536,0.26266369492429503,0.19297199511817598
0.004976452438894708,0.013258882145406738,-6.307938019460071E-4,-0.016896147650480083,0.2754611273599547,0.3029291826733046,0.32302433404868,0.17415244482059009
0.002444340271026909,0.007438825377023787,-0.007800881499615171,-0.03213566709556815,0.2321649932749013,0.25818442017501453,0.27468883299972363,0.15364001591697252
-0.004649813044096153,-0.010864274040691037,-0.011933164047983473,-0.04427016373547707,0.1460644931934002,0.17473006338000002,0.18334803327751145,0.14444385728895262
-0.0028415420817639765,0.022110638576030378,-0.03236084232050136,-0.07100975047944467,0.058195496195134026,0.07555238787500546,0.0936354459445564,0.09379351556293057
0.011882061171369748,0.038190121050574524,0.009985550407801403,-0.02567208275193835,0.21913479599033453,0.2507173584637042,0.2558719827062715,0.1926107811211055
0.038805471196357466,0.047642261518498645,0.042190084747174256,0.033916824599471776,0.302197933731338,0.34363067886677084,0.3443274585821489,0.1931586071904757
0.04262273042032183,0.06425749903053528,0.044388066470676876,0.039652923516793045,0.2687646249325482,0.301512887969024,0.3066849967466326,0.19295254420805047
0.04954576797123648,0.08419539095503942,0.044687437026323586,0.01894598550076522,0.19459251290148158,0.22984952312133788,0.21396418020074753,0.1813628891863874
0.023574401673130383,0.015597093275087619,0.019440190941784265,-0.010786797378489359,0.1081654278052292,0.14124695468359766,0.138985873761772,0.13713876582320256
0.03528746696568006,0.03273329289609297,0.03156013551461448,0.016898485443162463,0.20139970170105884,0.22714509477997313,0.23969639242011204,0.16412402763395417
0.07424260883749922,0.07797840711601844,0.08162283659955873,0.08117833938499305,0.31092408047474684,0.37166962165681794,0.3839122532303244,0.2241357433762455
0.07834563754921715,0.1037146427870936,0.0960729873747844,0.08748731010482029,0.2860159379384053,0.33516163847394087,0.357624466619673,0.20049551073915053
0.07888934746427537,0.1000829742609704,0.08850069229910464,0.07070871943459336,0.2257941932795976,0.2605855988201422,0.2627454919661367,0.202639829447022
0.06685380353391887,0.11129988282252758,0.06411804982223362,0.04550917315330319,0.13017253223462877,0.15044184043025127,0.1556623140994663,0.12825450219804646
0.05641273203399674,0.08693912452225892,0.05320017115150605,0.045223893765101754,0.151073392438422,0.18333235469378142,0.19845326842842978,0.17221666870067837
0.08799234960045202,0.09773418226427895,0.1098671092929369,0.10546846474853223,0.3008759798407966,0.35947314540693087,0.3726694769177475,0.24169705705541822
0.09565599327295571,0.10972687980061648,0.11416999274606308,0.10912886215516263,0.27399069725027203,0.3242907440311238,0.3343330840284477,0.21593485756252212
0.08788787649369627,0.10654899772885833,0.10409136732846319,0.08015068117070619,0.22443687670279228,0.2529367162192845,0.2585683989650064,0.18945260276487763
0.0772752621898618,0.09266774819589084,0.07529803151740114,0.05418374646413784,0.12012323990851773,0.15415945010916163,0.156323526559156,0.13717235814100587
0.07967823660105731,0.08285160281237441,0.07461270592080055,0.06596583127251043,0.18774293849882903,0.2200657347727372,0.23555752435745697,0.17328266401031658
0.10059508923650928,0.11167924319661832,0.11594522107316663,0.11043577689614137,0.29471149201100977,0.3377269253003825,0.34685670252598877,0.22787375604907273
0.10528877528113496,0.10682692778400597,0.12180395446401353,0.10655157721752527,0.2621831227608566,0.3015259299935504,0.31111119803578474,0.19032767546227036
0.0881806989062646,0.1096420594486793,0.09707925877864691,0.08101304115669172,0.2033994913232985,0.2284485435951401,0.22950969820393036,0.16120718795930877
0.07355628592687546,0.08510435380046363,0.064821739938641,0.05112455078653322,0.11096567106708816,0.1298867270955204,0.13630312709946996,0.13528236903639518
0.08939447681286397,0.10586139657871738,0.10753577109910618,0.10021267834938859,0.2605415608045806,0.3021713338703086,0.318719285578963,0.19966073790718275
0.12027970201022958,0.12410773802077629,0.14199476680845702,0.1374703526256648,0.3303868371488497,0.38188339953227013,0.3882125597278101,0.24766510008336357
0.10944689121832724,0.13621680811579365,0.1310402789555181,0.1261124086553608,0.2948900524756463,0.3389444413604902,0.3414144493772776,0.21080338044878105
0.09878252049140789,0.08842825249580141,0.10483183610136368,0.08994394506412935,0.21515284573247126,0.24766244030553258,0.2509358190693377,0.14249887299628178
0.07099175616860649,0.05018257903365718,0.08919038272247722,0.07730764523529887,0.16183095742871584,0.19087908180471327,0.2060568427416103,0.11613001391325939
0.11452008370134627,0.0934362096008883,0.1524658438071588,0.14704698228143603,0.3335892192377157,0.3956511368633787,0.41074948854972276,0.2104590327043337
0.13823472407413923,0.13382692708135796,0.16241313999011972,0.16323225729715102,0.3693015187825022,0.4198973733088473,0.4368959185941962,0.24159967618272885
0.12992806619899233,0.13292235338544472,0.15326349738395822,0.14443067343929344,0.321791453969753,0.37173309843474533,0.3844964494645998,0.22065053667208706
0.115712096844922,0.11661906507999259,0.1318960662360635,0.1203309605888345,0.24732290233239562,0.28514558279407,0.28557565609688573,0.14731650763858267
0.10662648255598081,0.12677539164482055,0.11355299099988247,0.09952056797433918,0.18708611080646215,0.221145491684479,0.23197228668638656,0.13416156406013077
0.14322282985475338,0.17602965009573288,0.17012332311690967,0.17037622627391572,0.3832596357116463,0.43425914620362616,0.45406109068473455,0.24844874573519957
0.15440662668991165,0.20975633401421337,0.20427623895594926,0.18718915688497828,0.41496855032548297,0.4663310608150987,0.47483340207964186,0.28200191122453205
0.14470929471753535,0.19945200215351877,0.18208142268195626,0.15963041664754973,0.34746103296096825,0.4078771308807732,0.42273647334239417,0.2259851332673591
0.13171952425797293,0.15922064488614043,0.14692488313089994,0.1374526455713862,0.26393555019751225,0.3171519584101424,0.33161590444739575,0.18104269152104424
0.10659121642512223,0.1430922186923347,0.12168375685911556,0.10300055045363685,0.19624749699110597,0.23381164232970603,0.23491015759515815,0.1588108926683694
0.12559774574306629,0.1774429843203435,0.1668597535014537,0.13887920993606864,0.31134545298620603,0.36727988366630343,0.40438100668259697,0.21685705607562802
0.143214348512022,0.1941850574811047,0.1808155449162742,0.1708074731601501,0.3965466951803122,0.4626097793162086,0.4777358900034403,0.24737490069256532
0.1332267085370851,0.1906164102091886,0.17503976355763665,0.1594277805223558,0.35139384661856515,0.41580758684670244,0.4323458266611956,0.2157010263477892
0.12151947589769127,0.14822758000667102,0.1508253088498353,0.12708215874668044,0.2860070659094982,0.3367791807291437,0.3442453839414418,0.153740809932061
0.1161165934928003,0.17754123850410627,0.13345899653129817,0.10415678459333487,0.2128205573764254,0.25432087787893776,0.26151908082645764,0.1390725144935897
0.12107810837079191,0.1497275072721372,0.14310770091407188,0.1188683934828126,0.29178729711931134,0.34706092933496874,0.36657103106031547,0.2018402044246587
0.13998833868062713,0.17464199765689173,0.1749274642441152,0.16208458973707593,0.3712465278728285,0.43779133137786597,0.45782469037114726,0.22013142773428462
0.12723183364652046,0.17389340708228754,0.1739174118258157,0.1523663586860296,0.32457363116652876,0.3849147694419881,0.4134489194618034,0.20806947167351794
0.12150745834438331,0.1610511242528547,0.15314038865458712,0.13179323892639197,0.2840102364652939,0.31928119822849,0.3315313788518197,0.15126882963008845
0.11887634898718631,0.20399172480405212,0.1339239068812588,0.09875530614333046,0.18645907254286562,0.2291621059891652,0.23060681607916483,0.13130353395329797
0.12224081529829009,0.22877910479227517,0.16111270084696533,0.13015927376354924,0.23302531107196295,0.28146169679000116,0.29529761019183826,0.1883033599814737
0.1516828081105357,0.23979996322643152,0.19885595161248174,0.17513608031771213,0.3884781884896478,0.45570919960354195,0.4834296858214587,0.2300404165630142
0.14712989133815454,0.22249041230732516,0.18776619096252833,0.17170674421602214,0.36418141295674944,0.43324987417475824,0.4424498511568359,0.23208834774787573
0.14294065981760146,0.23334785377203854,0.18635454267362975,0.15350336208723295,0.3062563703171891,0.383494100423132,0.36979051818509256,0.22723604221137672
0.130910578699136,0.21113445351507332,0.1523206895836208,0.1250922762669203,0.2369729735266953,0.27965757975068906,0.25989543316063507,0.19516398740424873
0.11078602807158264,0.1724538954363475,0.12238735952739127,0.09296564109569919,0.14825135433420134,0.19388001814545952,0.19670709912638792,0.13911108658841734
0.1236970440894965,0.12974255607138413,0.16162836816943524,0.14629705911542598,0.33748154155216603,0.41585320786910285,0.4247905880519812,0.2752340004309678
0.1437886037286249,0.18316202685383282,0.19433458595543518,0.18761858454321015,0.38733806843594915,0.45938935115728374,0.45299322421803445,0.2597795064222325
0.15921987506694069,0.27251701127112854,0.20837876761979846,0.1845231661827564,0.35741913423219335,0.42125418498113953,0.41412880814375513,0.2901755792043065
0.1456194354634516,0.2794996930254199,0.18790042963887724,0.16180180309320877,0.2686834073960474,0.32466937877681223,0.3227091543470064,0.26259967698110054
0.1373997184758809,0.30032225878076774,0.16972593365652872,0.12742019772325813,0.1743452676830534,0.21040017077647238,0.20386452936654403,0.2212025239245057
0.12350239711776675,0.2729904986831915,0.16283773054091363,0.13084182606997002,0.2105014849856111,0.2518153316175749,0.2638505857785409,0.22164372747101413
0.15493693520610685,0.28756187848363496,0.21279947032847785,0.1868347718057373,0.3791173764605973,0.43633313709167976,0.4413661851553436,0.3151766252638734
0.16089476853417087,0.25822459329256325,0.20343756096229307,0.18902623104216798,0.35229721301877454,0.40832249454794634,0.40094669414495676,0.3108503601018857
0.14234689955953675,0.259524480549711,0.19314814367034808,0.16615608452117112,0.27380103013020424,0.342687341418711,0.3346806829517872,0.284404033574546
0.1283332020960732,0.2634954868410289,0.1613236422285328,0.13237906730437538,0.18740545387152366,0.23367868576490217,0.22319835945005448,0.23570183895291974
0.11400592077556647,0.22303154519262564,0.1509571569605731,0.12230266888746857,0.1643620053773212,0.2198836954548667,0.21601007740240408,0.21151611499129636
0.17762184524113664,0.3153922395796188,0.24128848720005203,0.23505739062310926,0.35573964995238244,0.4128956864214793,0.43678615956312716,0.29118513064351725
0.17299747939668728,0.33950080335638344,0.23822194638709462,0.22355498288033238,0.3429600531336513,0.39266922334858284,0.4034051908776789,0.2914837725803663
0.1594196370129517,0.31604297478835636,0.20761513632949932,0.17430828427618356,0.2690530231648027,0.3191260903890047,0.32391104218306727,0.25674293071130366
0.134604468355424,0.3025258803551293,0.16780394114280328,0.13450637679637314,0.17083780957006728,0.19627060691028242,0.1989462097886735,0.21651984438524757
0.12703877520333157,0.23457609575952915,0.15173836599377769,0.11034301272228292,0.15667421251771352,0.18067040900069495,0.185256195438652,0.19960506476311943
0.15930537916478577,0.26937976581362677,0.21598982300183675,0.18747700785033197,0.3498955854258363,0.4090283121857678,0.414270534180275,0.28006440582719855
0.17486885689654413,0.29588534980440623,0.2201366320915365,0.19577641921171632,0.33593717828454955,0.3964775574547793,0.3929802844487019,0.28797504555166253
0.1544752788813169,0.2582114116109679,0.20406904866092213,0.17388426995295694,0.2696112534817307,0.3321360070781847,0.32823324712286805,0.22546302890484005
0.1389843181524731,0.2404108652657318,0.16940437185485097,0.12812655054790476,0.17707304138587296,0.23470885389594107,0.21260808274990786,0.17168273219852176
0.13226650888946423,0.2692070341161567,0.15619469376179776,0.12815574062377508,0.1268608897440836,0.16595798199487896,0.17236864306100758,0.19091313998654552
0.17363018287730006,0.358490906757321,0.24780978398224518,0.2163577977887763,0.3592701908288445,0.4048743583719473,0.4166889199540864,0.3051205687078451
0.17859737817067178,0.3594101824031613,0.23485932035004356,0.22116587273952865,0.3634654576855962,0.4073687116446634,0.41224018031940013,0.2968007729806451
0.1577327920797416,0.2655932989184451,0.19850473690125117,0.18240528802929967,0.30361485569604496,0.3547451769712829,0.34824609328585154,0.28204126265283713
0.15530316630895366,0.3042388779487568,0.1818283333476554,0.147227038434463,0.20955872325471095,0.2506654482184685,0.2493901800137447,0.22966774466486362
0.13958257765595672,0.32487743062268115,0.16137471720355703,0.11970220385546289,0.12488177590114391,0.15408012737625076,0.1500876696814211,0.21735190165176643
0.16476845319272468,0.35366050567121654,0.20875889991169355,0.18146563811780592,0.3461495825795119,0.3940937333441215,0.39883726220978355,0.30875446888255464
0.18019231927544482,0.33625809310386506,0.22236688789731904,0.18861648734803887,0.33954847598015253,0.4192375302619582,0.40989779743463656,0.3053545320657129
0.1739626524925811,0.34654502971710427,0.21364952240118065,0.1701572620773004,0.30287226617234436,0.36129870124615227,0.36866166810097667,0.29833103819728807
0.14422699402056635,0.27057935018543194,0.17470578445673904,0.13446595662925062,0.22937765966380583,0.27262169395791536,0.2673965350787168,0.24200480618833314
0.13255665972404834,0.29415361513647986,0.16750715217512743,0.10852483246509381,0.17968710417726075,0.20735584289918255,0.20251088437827394,0.2265081498658374
0.17854355757814006,0.35538264463797486,0.2180053590389274,0.19006058352930402,0.37196675554025954,0.422763296366008,0.41535438829555826,0.3390041476256813
0.17862989992288478,0.3328868443135572,0.2205861436459168,0.1908828067825477,0.35575913945952664,0.41413771001862004,0.4047433625695952,0.27863275005371185
0.1687810378726735,0.32945048712063596,0.20665731915502145,0.17580524305427192,0.3110516616431645,0.3653572914086101,0.3451376982777677,0.2773718436471465
0.15588416900140936,0.3366978740698181,0.18920470645541673,0.14711865867888957,0.2250527004060115,0.27096475580543683,0.2714657547449155,0.24597813537158567
0.1498527582483037,0.31793992137720944,0.16679842641570067,0.11449165627307126,0.18780233976596133,0.21461088118220578,0.20665400295971015,0.19701696043206543
0.17940176156917328,0.3308356033223949,0.21860401464407495,0.18466012803889775,0.3707371143967678,0.44541254684130227,0.45055295428633907,0.30903068823470325
0.1684625131361457,0.2890304604121149,0.20798535337053492,0.19025691103668502,0.37688680489496446,0.44454285275804695,0.45456992055063294,0.2872919773851182
0.16292487204818148,0.2927623742853862,0.205509346315982,0.177470392823172,0.35026004271921335,0.3974313629032405,0.39981651783510574,0.27829565507780174
0.15936593114743242,0.340682228948722,0.18923897238095783,0.1494079571045468,0.26758107364679357,0.3151680053835103,0.3106381303252181,0.254473111987007
0.15666709112366328,0.36249394340330554,0.18659933436751724,0.13743451647475163,0.24127617438810442,0.2964357745076376,0.2799685929852253,0.22409799241326125
0.19060180995611387,0.4001113177613727,0.24749995297299004,0.21438267678897144,0.4042371121054371,0.4709010898835676,0.4781090771858981,0.3124524365662792
0.19308924269001354,0.4188228969872843,0.25308474273993664,0.2124908488203945,0.3993211387048601,0.4739570324051431,0.4725140529572859,0.2978358770426705
0.19226546410872092,0.4608568852461969,0.25074384466636473,0.209823716057159,0.36252259632430717,0.4278949341238034,0.4214667264062958,0.3359810384156278
0.17962792102481834,0.4470152498355697,0.23238895002361123,0.1750363642966838,0.292086840906824,0.3402479592803273,0.3447480077383469,0.3212590792137381
0.17095454867274765,0.3908682246585615,0.22165371232643324,0.17738552180404513,0.31960859884857373,0.3768930142456994,0.37752800078611526,0.34155960200769064
0.19868103876106233,0.40849378881942067,0.2576049877956691,0.22763687033200186,0.4512398002436664,0.5274986565361065,0.5319726021755651,0.36588547302070995
0.1960860154615319,0.3930883226255476,0.2547595299863515,0.2335705372719722,0.4311205986297841,0.5055353251378029,0.5255593286773664,0.3393784329989337
0.19895704726819777,0.4089694238245669,0.2567461809157306,0.2108637366655195,0.3860281144194286,0.4549136803789453,0.45319887174660706,0.34480971286099366
0.174834042778268,0.36674406510766827,0.22074726157324048,0.1835360481027131,0.30081565181020076,0.3820647126096535,0.3691665632750665,0.3249866719230574
0.16521883378257807,0.3615522769233463,0.2114015438790193,0.1741598212436013,0.29429496314886044,0.3767224520846559,0.37156063922563914,0.3207310640722404
0.20200023714221702,0.37885442437728833,0.26891684461293586,0.25251189282051767,0.4683562433962958,0.5652545034505,0.5698408355981956,0.34790193684851667
0.20011917818126743,0.3466785076288783,0.26765621516771415,0.24943478022573828,0.48059047286923107,0.5691601628734112,0.5620789739407429,0.3657940327292957
0.212591727785308,0.39750373362601626,0.27131898316270886,0.23794433421048192,0.43758697621332504,0.5280526919094407,0.5258468493568773,0.35685910500497287
0.20035646489940162,0.4292385050189306,0.25782858264433783,0.22843197948298732,0.37400363618280147,0.4400299335510714,0.43483003095506617,0.3134199537876592
0.1894953031566359,0.39872867594525196,0.22977689078818533,0.1945662227919278,0.2991679971349574,0.37023591628608643,0.3748624983103308,0.30929729657622135
0.21158198354237903,0.42092581654464833,0.2701109564835963,0.256971691965467,0.47549801995511154,0.5667663387082745,0.5659409482728085,0.3973368496156221
0.23667179474954625,0.48040694860340905,0.31313238727391773,0.2881173665782897,0.4993707806325786,0.6083336736378829,0.6120210998544072,0.4169764707409746
0.23296383851799612,0.49734973715687447,0.30781287890260467,0.2801107043914097,0.4713829898592372,0.5649871720378714,0.5772127549631647,0.42897263231216265
0.21758812844161238,0.4593203851382113,0.28055306628769494,0.25492641721759557,0.3838982448806918,0.4674449036357772,0.4756371680814605,0.374421708977404
0.1934503331792117,0.44204511655465756,0.2449650350452297,0.218077641617538,0.2974873283136338,0.35893101632351326,0.3746596790831274,0.3222563562640467
0.20142621839673105,0.4380341292830655,0.26088697291230084,0.23539024560614938,0.3861418383204215,0.4515748358269364,0.4681019700460233,0.34382524814248105
0.22634195109399433,0.45494203915123016,0.3032725216422678,0.2771386939979592,0.4912061298463247,0.5970570232173528,0.5939698054019016,0.4276885901136195
0.22255417344332165,0.45885415057134016,0.2968806047317801,0.2753642072814537,0.45769419259102645,0.5538135737168449,0.5625080339256479,0.4203828759569328
0.2088358279582842,0.4353614192638742,0.2806198270569301,0.24301674254071315,0.38671420782605137,0.4736532172782708,0.4895414743619064,0.3605847250706715
0.18880785634177655,0.40001556873188715,0.24362586037376585,0.20713121179329536,0.30678420947957835,0.3848112690445476,0.39069183947458486,0.29452571999944827
0.17082351968821743,0.3649391193897351,0.22672249327602934,0.19403605015663833,0.2852386197970615,0.35668901115781476,0.3689834099536084,0.3010174211911526
0.21123001964409607,0.4123915224451744,0.2856732381732825,0.25694415844240026,0.4775551224058404,0.5711555518972081,0.5790566950013153,0.38507822979555456
0.2131389354424593,0.4168024685353767,0.28080187100521886,0.25438789665354444,0.45360866908295266,0.5484695700297234,0.560775974335803,0.3725730722491216
0.18949371699822953,0.34507720821042803,0.24651832132148552,0.23247872990812532,0.4027828353420578,0.4934059005051441,0.4838671855366629,0.31277901192036994
0.1761020773575972,0.33497041455053317,0.22080576068697538,0.19475086734413852,0.31071617351612774,0.37836771169289973,0.38036867992671186,0.29240858175186857
0.158997461925938,0.3327723371209233,0.1923491998517627,0.16129285905216023,0.2070454071608577,0.2811518247471062,0.2694305810755956,0.2491691562018009
0.17880417721445224,0.37338952705821193,0.22215628816338642,0.19521685917177856,0.33987067438355645,0.4168375934911038,0.4187235129846253,0.3174554826311546
0.20954467032332055,0.42049211057526525,0.279418146451468,0.23946828468658743,0.46380078173974826,0.5575186630739645,0.5693319851814715,0.39326338542107575
0.20417969914106707,0.4212304639903159,0.27370999130097656,0.2464441523951023,0.43741086457745953,0.5180452846729824,0.5231301688942197,0.392366531886298
0.20332052235853254,0.41758116489336755,0.25273948614466657,0.21731473860318218,0.35592057741307753,0.43049648921228434,0.42880113314665935,0.3434635200416485
0.1789849332821784,0.3917160644943324,0.21175102812082444,0.17345419859122962,0.25136626471588136,0.31239562667064685,0.30161523595547846,0.30032035725121803
0.14848959472663673,0.37255067229759276,0.1792176810441242,0.13731073928002496,0.14786893072101448,0.20516159376837517,0.1966587025588957,0.22904861688254374
0.16477406889607696,0.38142710314916883,0.21554975597779574,0.15675702553652027,0.27699059752775806,0.3572342431616126,0.3598842375224329,0.31602365018243495
0.19879681446179678,0.4224084812213251,0.2515278040755355,0.2219403170092301,0.42186838661639214,0.5166503801923658,0.5229212853999711,0.38608755890559154
0.19196339284285435,0.38990788832030804,0.24898630972741292,0.21709359426022812,0.383901101339561,0.4639350770361655,0.4734929116704822,0.32849883921456957
0.17296449714495618,0.3259088414222869,0.20780190376082372,0.1671750826958127,0.2933132721023437,0.36482079940099954,0.37717383745739064,0.29077142576906334
0.1440488704997345,0.2817261836471137,0.1664980790567289,0.12747534546300998,0.18642211951517074,0.24770264439305145,0.23641216726733924,0.22770386146835941
0.11518246581567033,0.2555971489546548,0.12586209977453305,0.08542656183494438,0.08694403653639726,0.1336641358997303,0.12128336338807039,0.16323373082764667
0.12429181422611271,0.26067446581856507,0.14892450707755717,0.10584768533004646,0.1646248744642939,0.22784450407497397,0.23239003276341436,0.24892630139052982
0.16151515482174988,0.30463624907108533,0.2050458151424332,0.17774365913011853,0.37234735914096095,0.44537998857627703,0.45050067125742754,0.34302079238899474
0.15644745770460888,0.2917725217146262,0.19443342083368081,0.170212069338476,0.3512009221868271,0.4100362697882838,0.4141434913098477,0.3125154536102759
0.16955712930147662,0.3458051785302064,0.21997509262453033,0.18386332932714283,0.27022412852794064,0.32505450979553074,0.33748829493402804,0.2864349892903221
0.13987618563181212,0.2964491555739118,0.16788295279629675,0.11684470764941142,0.16239181835070438,0.2005514956034689,0.19722324711926964,0.22173933165372045
0.10281442204108791,0.20294434877100723,0.11658012675504222,0.06906568950384703,0.04973816895253051,0.10891905039594112,0.10155386086587118,0.14682175839047257
0.09350783770590868,0.14860412301127912,0.11522486729914815,0.07424307695187506,0.15679485767324497,0.2185694241431701,0.22382725257601765,0.1876959887186024
0.09209297695946914,0.005766555246544392,0.11326630622462211,0.11193789952245095,0.2906912290982651,0.3762012774236649,0.38404408213375296,0.19020140358983417
0.11110419907014346,0.0773441020442304,0.13526722762026766,0.11826926419521737,0.2357397544037834,0.31772190510945597,0.31963579365048644,0.1265107667940729
0.1067678627582769,0.11049673764098851,0.12164848348811291,0.09912388919264506,0.1551669819476929,0.22223871317404087,0.21619486246336478,0.06516226703121995
0.06704455537662372,0.015081812242908124,0.072401718729872,0.04598839251473462,0.0454641515680661,0.11672398911229635,0.08840161448963338,0.0609550512555706
0.04156766505112158,-0.038852703989603964,0.04212229400103054,0.018097505465695454,0.003991037256323743,0.05962391409967738,0.04898899394058853,0.03584544923988783
0.07663205199153118,-0.028498089884458663,0.08730544511111443,0.09121861075724653,0.24418806649473446,0.3354763523909821,0.3399067707607353,0.1541396649479656
0.07490728654701442,-0.04361276701873111,0.09577853108397842,0.10107617506425634,0.25269959615282583,0.32629488423014336,0.3177234853188049,0.1677873968560003
0.07233142093543625,-0.05344776435039009,0.0900926624793016,0.07492843557179636,0.1808625527372848,0.2650705491323313,0.25061511380279444,0.1516288101869927
0.06025983367900417,-0.04642123569053572,0.061406419399200274,0.04557882489753004,0.0867843771054395,0.14325871032145454,0.13226271255816657,0.07484603824406764
0.045106049121511414,-0.1149281311471019,0.03512466756799655,0.023217291999725873,0.030575386375171834,0.09583326776232909,0.07558762529095367,0.05555647908222197
0.0735180211211579,-0.10572607713142379,0.08255513051081306,0.0962750821401744,0.24746047377619898,0.33801802584119023,0.34618073905733604,0.1549044296809043
0.07546714236876632,-0.10878418000524874,0.08436821055979815,0.09721446489301065,0.24081874522013852,0.31274914538947696,0.32661458690574957,0.1355286480777026
0.06706123208943757,-0.07758915149426715,0.08218532094164442,0.08642491212456901,0.19501275715572663,0.2664467058474509,0.2786130379385737,0.09363908169505654
0.05609386589501641,-0.09263413254797483,0.06092468231642002,0.05547546669747298,0.10427229295137648,0.16113336052199512,0.15842796307699833,0.09229077708833178
0.06051036182041837,-0.09177601137047292,0.067384970981403,0.07411641472781609,0.14294751506434772,0.20871309781612862,0.22911695413501987,0.10138398870641836
0.08536177014803065,-0.09119774603102446,0.11691345526855489,0.13597931730905657,0.29812162227422095,0.3949745717688834,0.386738970032556,0.1478121696038392
0.08832689589204222,-0.09057097059570778,0.11415577965956733,0.13120216580346328,0.27639463948120274,0.37784061668459457,0.3696915354163891,0.17232748005149867
0.06408406708041241,-0.18857158005708244,0.0798169469094964,0.09572024416607161,0.21050659888979184,0.29832396792795113,0.29863157361605897,0.12378923981525682
0.007006698484080254,-0.3570809691072914,0.001927082883745268,0.04575349124015288,0.08876305508609827,0.1770038126956801,0.17035174188499486,0.03536121902176936
-0.0026974177984017134,-0.40156427587152543,-0.001505226944205157,0.047334256528726956,0.14247921761088467,0.24718819042977574,0.25815867230103184,0.04780029659720489
0.033467700166538585,-0.3911894437463339,0.06021571844656409,0.11926337666589476,0.31525201511517803,0.4296677429195179,0.42193235295939746,0.10964731404470475
0.06503983791286166,-0.29192872300667233,0.09382126627981541,0.15118201149861207,0.3041266273302449,0.41182894919223434,0.42212755773682553,0.13527093797908063
0.07956359593161072,-0.21360904034161177,0.10855563773538593,0.14152906560023604,0.2585053223282173,0.3553545124786535,0.3702211800415941,0.11492382141585403
0.0713411605889834,-0.19410871819739117,0.08721830286129442,0.1242034597086123,0.17719921364357993,0.2663854117565345,0.2655244175530209,0.09602570836401074
0.08182767916373761,-0.2069516701790431,0.10799747975691673,0.13482643334544728,0.21528100845894188,0.314474992078601,0.3255974290984559,0.11398924867968126
0.12128787457617268,-0.15928738833226355,0.16959946410870252,0.2122709961479418,0.3906294548643106,0.5111192547459459,0.5170987667108262,0.2041828215757418
0.1345040112282369,-0.12604901934576168,0.1878980306793898,0.22824170426984977,0.36993369944916643,0.5003150172377155,0.5076952662330302,0.1674179077259046
0.14267837017381244,-0.035215476402429224,0.20720230323393715,0.21814435723848888,0.3428953573549629,0.44832507670953464,0.44530429158569085,0.22068072769359412
0.12572716899160988,-0.057855282958346056,0.17120569507017555,0.20110820565960572,0.2529356521104047,0.35550259064634826,0.3435856925413958,0.15212849329739556
0.10472333075362739,-0.10647392695387671,0.12831353284072022,0.16275374304402285,0.16236993560945673,0.2628673462556155,0.263632361480473,0.07033391106742817
0.12320978368060229,-0.06495596027445179,0.16986115592328083,0.21008042044656405,0.3040226309785811,0.4241872521285027,0.42075378156228505,0.17249715426325546
0.16906373001066682,-0.02123883776048897,0.22962411630460838,0.2726147571814351,0.42817553707003597,0.5467693260997252,0.549169711662145,0.23337684589942176
0.1610327497465055,0.002733870569524917,0.23711377969240588,0.2757329480174401,0.39808687364399786,0.5150782493698296,0.5252659429291723,0.23363951801156868
0.15969044923936193,0.005918971603404553,0.22160073584642587,0.2602494696353638,0.3354802907775971,0.45248740558324363,0.42926155393182364,0.1567592297098608
0.1547129844231927,-0.013393409219215176,0.19795182803436778,0.22222818901237976,0.24869274298570698,0.35606895072709255,0.34056734568450975,0.1019802727280266
0.1304211609231078,-0.03496981022564348,0.16759828456395146,0.18338538181766642,0.1684310126781423,0.2526601896208442,0.23451259725937557,0.06836999462551135
0.12719994924565,-0.08935766526029063,0.17819000142483715,0.20870623278457245,0.28680546162166815,0.39380921768092614,0.39481708444305463,0.1383253895411976
0.16323823317287858,0.009358448594513466,0.24149267762286566,0.2636623553732592,0.4040711884226334,0.5186177657406907,0.5187691597433497,0.2037933916505913
0.17832951361732186,0.06425512607520172,0.24395802104225212,0.2721327893603209,0.3676273660477902,0.4940677479167659,0.4821479546715146,0.17228406672511054
0.1692634988439163,0.060476763952340716,0.22261807012599716,0.24627336610837164,0.3134331117310733,0.41177690098402564,0.39999011634621884,0.16490725717297233
0.14358170961519814,0.021536257595472914,0.1864403995032644,0.1927792157227202,0.203873541121284,0.3004012567440988,0.2795554215826672,0.128531001026559
0.11505503674019507,-5.251072836635236E-4,0.15453286351164197,0.1459633941250777,0.0962040560465292,0.1844743133257412,0.15632138991644276,0.05794838902594955
0.12945728705886608,0.023034257064200626,0.19031339039173067,0.19229844978922694,0.2614969518250476,0.37244574328440594,0.3662675133733011,0.14997538213401657
0.1422123755911896,0.016964765898589668,0.2139218320354605,0.21962969559601314,0.34707068582412404,0.4490588466869385,0.4349291997602476,0.15118154273090756
0.13322787582669604,0.02831724807030737,0.1952351174059505,0.20177541417975947,0.304036059916996,0.39759289823228966,0.38729006239210456,0.15673905874727198
0.11836226114052459,-0.03384043368264256,0.15524000281962336,0.1698774656487969,0.23077618681742146,0.3045938744805051,0.2832776704353861,0.10491257009971153
0.08916887502650082,-0.06159800555735017,0.12361700655664039,0.1190683854073518,0.13759103676683662,0.2112105530071529,0.20073214365034794,0.0844008595418015
0.0901955405413479,-0.0770585916111381,0.1284532766168603,0.13366050693109727,0.18892334847745995,0.27697675283188283,0.25540261330611347,0.09929661819435744
0.11637451604701737,-0.08075917766879678,0.16683397630526708,0.17745650597411883,0.3228018417515825,0.4272994881728084,0.3963946813146595,0.14076937711175372
0.09231987285572377,-0.11745476111831611,0.13755343574113982,0.1649815565685404,0.28146611700266677,0.36625123687638766,0.3414053142898982,0.13260008290159903
0.08693293588925516,-0.08857532791184711,0.12250875120524511,0.13630126904900858,0.2118323068393968,0.28563926658116573,0.26957095849993484,0.09404576399686404
0.06704959803534241,-0.0993414900598224,0.09539235119355474,0.09535955327766686,0.11256536744383547,0.18465187142139744,0.15701539431171302,0.038561999367575525
0.08223979545164825,-0.0848622729644752,0.11728021128361832,0.1252151129128965,0.18319231442012185,0.26065192468911474,0.2512046950008292,0.07677035657928041
0.11493939325130495,-0.01809613335774468,0.17131614282320984,0.1962385738304379,0.34632231195405916,0.43302989140970205,0.42799265975105727,0.16564367851729656
0.12327468820596624,-6.545236275397326E-5,0.17544147941107657,0.18874577187049393,0.3260769115249963,0.40771833360851994,0.4043700723043021,0.18004650892339177
0.11845688098922405,-0.004615654473125948,0.15409488754127318,0.16187539262925543,0.23905078854427028,0.3377849985891256,0.32586098742828246,0.15105179098856192
0.08063077873013888,-0.08887471922488256,0.10782491664843458,0.11768790732440441,0.1608755069753734,0.22337543015484992,0.19929743968510882,0.05851783586236107
0.09752455958000164,-0.028570453822668575,0.1462918521314962,0.14653668739931242,0.23235087482981617,0.3061602074149971,0.3060040008307779,0.11104334033940755
0.14228198759868838,0.024007926503729266,0.19780880156031855,0.20876670990254975,0.3762727391359172,0.47624074295152347,0.47526190337587476,0.2058151888080143
0.13957022554669432,0.057608902770623444,0.20773423489639872,0.21066487798486697,0.35958587919690493,0.43601876592585626,0.4424632473581712,0.21637347251129752
0.1307894788998264,0.03462297490302878,0.18411650249862233,0.1884708538749922,0.2846727971010872,0.3674854605712139,0.3497876752313191,0.12603931298545135
0.11643793296816313,0.011482934723763591,0.14526980481270144,0.1499741274273077,0.17442934609368108,0.2558045805421941,0.23820567909445958,0.06883302518054218
0.09122767121875848,-0.017572979367768533,0.11978194328624782,0.11580610136523468,0.1152519611834012,0.17183315068895516,0.15107382727535906,0.02043424860766136
0.12963526426767494,0.0035785357339227636,0.1779232996059275,0.18487135944987163,0.3381990226283469,0.4267762536828047,0.4280058100839193,0.18497485993950433
0.14096124028585663,0.019254512591807882,0.1939738740022856,0.20797065878958398,0.3794625058671674,0.4662474801009067,0.45837855392839366,0.22281067006700556
0.1352466159502738,-0.005109702887948752,0.17984761045978215,0.19290453572037308,0.3335611473210962,0.4147901488597907,0.41142914118682755,0.17011279300979995
0.11543869973317006,-0.003273062665256579,0.1614620078676855,0.16189298351660075,0.2430962352002884,0.30774293945915,0.30319723382181424,0.09707436056879994
0.11389717891263754,-0.013621939614603168,0.13567211705883578,0.12805908732619126,0.14341451562158883,0.22287716796340393,0.20040886460126944,0.06660459326817694
0.0860320222686323,-0.03156806050101252,0.1079094799157092,0.097720821276365,0.06537687193752195,0.12701959111368982,0.11233328456426758,0.056476257818227585
0.1194012683421757,0.01548677954290922,0.16548637136081534,0.16361546295806845,0.30743535179862336,0.39456176587366115,0.37356765988751856,0.19771658092475713
0.13960536053184944,0.024702002714804223,0.1917440942139022,0.1942573689816557,0.3388460880369212,0.45685832144228167,0.431618494588506,0.20634746357381628
0.13481105789865777,0.03564109028872259,0.17694182334798153,0.18561371943193458,0.31491699383067634,0.3993269405197972,0.3787403187097743,0.17251325182429775
0.12659288760685405,0.04445734309429538,0.16740254401277982,0.1506863043155902,0.22516377966701512,0.2964031200617034,0.28298288338626254,0.14581847316237131
0.10452381550008495,0.01791517420150697,0.1315124222077348,0.11314440759031975,0.1323201239099083,0.19098528595292769,0.1771750448641971,0.09006554017120232
0.08718322332516612,-0.00328143543385059,0.09032655730290873,0.07349126583313345,0.03579323345698919,0.07346864192017707,0.05420663834180414,0.03434760061670343
0.10206724378941448,-0.00967383266800726,0.13161897633958508,0.10193034962591196,0.16968858763554215,0.2466360843698483,0.2372156602358388,0.13756386707388615
0.12372018397980689,0.02546430062038715,0.17478677275305712,0.15936369682489118,0.31988463383455107,0.4046761816681165,0.3861401129667263,0.19386053374317466
0.12590454654242672,0.01803364309380511,0.16309925466545627,0.15412111856393088,0.29236424838417285,0.36530613940718454,0.346380535365381,0.1587951545862494
0.10771991655649119,-0.006871104368282808,0.1286036318150105,0.12846743780290548,0.21118213592213397,0.26995574454347926,0.24760379926169196,0.13489233601709238
0.08065144497482021,-0.032741543465283365,0.10592595789366013,0.0932251200181144,0.091295158765841,0.15278663437400491,0.12229379078954673,0.04311511836699947
0.0667296258935916,-0.06378554863554803,0.06766987510661199,0.04769033838338935,0.01046603063276405,0.050803333231790385,0.017419329236884815,0.020961093767438987
0.08287162408763217,-0.05808284289540798,0.1003668234877967,0.08682812792494626,0.16213045535917497,0.23488425794214177,0.20027128858709248,0.09497129214805113
0.09130072214544323,-0.06712671472784992,0.12403455811879302,0.1233942589912374,0.28837695215283377,0.34607974938813874,0.3217291019862363,0.13220675200896032
0.07640190299342435,-0.1427295658052491,0.10036943553075377,0.11292789109241548,0.23438012126460808,0.3030091033364575,0.2830493763042937,0.08465758329438766
0.07531747271848593,-0.09146938888118965,0.09315545772315399,0.0819704842189253,0.1547001094556815,0.20995631665819814,0.18887949919823996,0.07588507179586479
0.06646372726921759,-0.10780240804056403,0.07392235584697479,0.05230905015327003,0.0719243542563695,0.10470874814959154,0.08504821146846513,0.015954064707355033
0.05273324200366601,-0.09598502086415223,0.055922441280612814,0.03690335512678958,0.029851295008892414,0.06107720486794274,0.04210547359053729,0.012679211907070866
0.09596040480218505,-0.05255394639414405,0.12003350331256053,0.11104398666251447,0.2915336468121545,0.351026216606521,0.3239148137265242,0.13919687046834828
0.1067046832880187,-0.055848231723857306,0.14254741062330106,0.13181047772809218,0.2955748389301357,0.36867982566011775,0.34468476116322894,0.14057143122016333
0.10681069844763938,-0.02824455081367107,0.1320843765127782,0.1275182593833993,0.2549881011335352,0.3151121342650242,0.29752996397650117,0.15421215537133381
0.09830565582108519,-0.01931233042735706,0.11910123664928805,0.09556677988175089,0.18108169278241543,0.2387266088333815,0.19977153777497883,0.12049203690603957
0.09185010680030223,-0.00997295507851368,0.09138282609489637,0.07602949569004028,0.09412171524435664,0.14246814883644332,0.10840456411203211,0.07271079511612574
0.08525794209463777,-0.030831510441704502,0.09144635855999048,0.07255830218206824,0.13761691293739453,0.18006360548390005,0.16095584023568432,0.09820344040618278
0.11525438153078704,-0.018066215115245685,0.14618302441560296,0.13934119343445606,0.32154120662594154,0.4050476343414835,0.39232235077611866,0.1619309812630715
0.12536640873463992,-0.001143015942927695,0.16856794972269273,0.15823695964385387,0.3288361460645742,0.4013285513852089,0.3789217201745821,0.1640635802150379
0.1226129822673565,-0.00622842600628307,0.14363458664576312,0.1298626751101738,0.28092490132077674,0.34862225560809107,0.32278210659964124,0.1442699675918733
0.09104098638266545,-0.07390678553405032,0.11184711800449561,0.09525093853841428,0.18991046479055593,0.2540169130268599,0.21104493232905414,0.0929733667632766
0.08644885345058051,-0.06429740586948945,0.08747097230532083,0.07250120782738617,0.11526399888940844,0.15207134052536325,0.11691677282336813,0.03532931957367803
0.07330390778551757,-0.07766561027010811,0.07392353296564598,0.049947630025798995,0.06619424126231817,0.11640669950977621,0.08859765399269616,0.02360416727505997
0.11668753067973357,-0.027583342713871195,0.14439738802584337,0.13941708036300365,0.3311762467892847,0.4031399779986604,0.3874661489164363,0.20339857374154002
0.1278559031510322,0.0023313808868718703,0.15680982048112274,0.16370321933320398,0.3648688197467563,0.4183479463747777,0.40817605058061945,0.20336738086892314
0.12200683011064258,-0.044150584972026015,0.14773798123926896,0.1476218658410052,0.31703707405467263,0.3940293148029123,0.35735875664377686,0.19373052220152143
0.11285684698971027,-0.02898567643336153,0.13855479201283136,0.11830969460057507,0.2423814094790749,0.286846921733827,0.24613330276609058,0.13061626710691293
0.09932742606347335,-0.042657498958917885,0.10576466640230361,0.08448351851867719,0.14571580332194636,0.19357945330876758,0.1544062816164186,0.037612953295595705
0.0900202687058376,-0.006183475082470288,0.08901498487820868,0.06249843492166092,0.07079466710535552,0.1165922374089134,0.07959164890611106,0.05346844626638908
0.13497710451971764,0.05025282697585169,0.15726342092835016,0.141124644058354,0.30440187295585514,0.375228690702378,0.35426595352620066,0.22983017835632005
0.13982399741043355,0.06718477721695373,0.18550551536710086,0.17146594809386093,0.35793705607139364,0.43425975422323,0.4110315857169552,0.2275855537081804
0.14049989638981994,0.031699080728349205,0.17155280697402386,0.15835958097649488,0.3203496675917112,0.3902817196345113,0.3597087498968362,0.16583764192315387
0.12370656279133282,0.03191983329754014,0.1476848752648754,0.1376931796897814,0.24926955751468077,0.30726848001575835,0.2674188655277362,0.1352721426772744
0.11223347612972523,0.04427211092317876,0.1309399686473147,0.11223301576913589,0.15769610502776704,0.20521681095360716,0.18560982755905048,0.08861043090602898
0.1023478194390718,0.041340432586480375,0.09891757743067622,0.07654650619866224,0.07077083123710012,0.11335912811989031,0.07789294865660315,0.08783984991960443
0.12061623308156322,0.04666572862611294,0.1413427408024529,0.13386991682877192,0.2522343722910582,0.3185177837974078,0.30530589675679987,0.18143569178029922
0.12425337617352085,0.015295446033217013,0.15510823418433273,0.15826997383247537,0.31758907164601197,0.3954641399476072,0.37407943494184404,0.18467278293414627
0.1195443811321628,-0.005578424688937015,0.15290097487759102,0.14332540317267697,0.30450119403905307,0.3678135866612918,0.34581809093641896,0.17400558027511018
0.11583519622984735,0.011636884476795919,0.14189047627637436,0.12735368278085862,0.23374340001976326,0.28501932764178434,0.26456928692161685,0.16214632012494648
0.10716291280228395,0.008071943725299926,0.11203205252946294,0.09790890382361932,0.15465448802785398,0.19576538219810236,0.1747403350578538,0.13335065623207706
0.08326733764649154,-0.024987454474568502,0.09096378377771047,0.05719997072643619,0.0822055586952436,0.12133864345246768,0.08859116679523397,0.06491838284760407
0.12442527114234347,0.009734457894947793,0.14762530695728068,0.1434674380661928,0.30760062300662167,0.37620054713019335,0.3568695322292035,0.15392522636565145
0.1325413830070591,0.016057002182055684,0.15785906189639226,0.15673278891961717,0.3445415138786001,0.4079390285145535,0.40963010342423006,0.20618093132082832
0.13624514205281482,0.0481831826374126,0.1636614342410905,0.16463910374436258,0.32136411568796364,0.3710405089542392,0.3641300420740501,0.2144328846014206
0.13084972217345478,0.06906572972495477,0.1581477507759489,0.13379991672768493,0.23964711301843142,0.27230768026710384,0.271995358915724,0.1715170018921479
0.10592004837066181,0.022826791318085377,0.11884064459691236,0.09468631816342091,0.1415779806730313,0.18521981316589736,0.15188955253308492,0.06882567184037566
0.07656314473999204,-0.017254803501733126,0.08638493209193962,0.0675966650964739,0.07197151809438557,0.10512268822074426,0.07831184327325322,0.029815900371884987
0.12758148276740255,0.03350001946476936,0.15965008027730648,0.1482781930006065,0.32224049247684483,0.3920112392865757,0.38302536328983994,0.22332946113254903
0.15201796867632245,0.09255353428801617,0.19512945383580743,0.1843019117772729,0.37772732398442715,0.4457401477621697,0.4399098622718827,0.23295563863600194
0.15395152602915932,0.12224580685779489,0.18834106475680504,0.18622105401348013,0.3415859733364543,0.4007815161836321,0.3923717847448094,0.22624445635323748
0.1358031137784726,0.07468287799578793,0.16837751103549337,0.1591496118699114,0.27369303804991174,0.30891515009322895,0.2857164728789336,0.18452994914883286
0.11647894922056254,0.04634226013697236,0.13579242136367203,0.12045203866591911,0.1652352963412149,0.2237366591826086,0.18853461328997495,0.12024665214982296
0.10761319504697821,0.05702963664620168,0.11991209002449374,0.08886169590635619,0.10072340508826183,0.13499174817325812,0.11487840571052554,0.12299956432893137
0.1528691604273114,0.12267479997090518,0.1799166938983197,0.1799695791096459,0.33362455264623886,0.40249939110208105,0.38643302661018397,0.24817050740695976
0.15734506956157931,0.11464095403050857,0.19907771455472778,0.19265878977589418,0.3888205194985491,0.4620685646902879,0.4407674180114202,0.24486114309518384
0.15181423809780548,0.067363035033681,0.19031341563577076,0.1920536087692949,0.3596219076704505,0.42016591057616437,0.40363540675660364,0.20149116387536856
0.14529734915420464,0.04315625500116565,0.1613289496121958,0.16051471975387938,0.2746325272768227,0.33337315710544285,0.30427671187870525,0.1597384071144206
0.12698726769061755,0.047928222203707314,0.14269066315488066,0.12254219465739688,0.19103209998572476,0.24007032786996718,0.22275347583210986,0.16078942754091105
0.10237096466743317,-0.006087766129394682,0.11128892807568533,0.09101202119532893,0.10637672890843791,0.14721296548969737,0.1279861723377798,0.09424369815144548
0.1398066985341072,0.03247034607935922,0.1651689342074317,0.16177602376609596,0.32352609512171376,0.4062896347136789,0.3907668537649751,0.21565459025014075
0.14553138463743578,0.019782942222484754,0.18101872878862488,0.18786064395797847,0.37393755997766,0.4535147463523467,0.4498045217869707,0.20398867126000333
0.13890212448792058,0.004969904160580498,0.1814727490362052,0.18127170015424687,0.33993359553994823,0.4158798910672128,0.4091050581048008,0.18931742507733074
0.13208774595215705,-0.002925260814960709,0.16181035647671688,0.1627543075604686,0.273379657815913,0.3212944798594324,0.3239380390238792,0.1913784435773545
0.11094220234845069,-0.0075907000361619716,0.13164050943039063,0.12974410038637746,0.1918687797706073,0.2501956250124062,0.24025415491994404,0.14097027576387033
0.10104487676132376,-0.01221216948909383,0.12195641188369898,0.12069999972591852,0.1782640802998387,0.23681253031202643,0.23220928499761462,0.12666549897654492
0.14257112966928367,0.02902415104104934,0.18579311885430294,0.19662951828334996,0.36376996379115034,0.44701928020997095,0.4428773009463155,0.22829143996701484
0.15414845173422922,0.052566617903812625,0.19198815097402314,0.1901748185391418,0.3662424606296102,0.4457597254209027,0.4369754593004976,0.2365381710865238
0.153759806486493,0.06885547180732393,0.19173599086264012,0.18101701860267724,0.32030649011154705,0.38035845839251103,0.36590545957778364,0.2141387743786055
0.1361415341362606,0.06742572340168328,0.1624706001342763,0.1467418323501065,0.22633466362878282,0.2779159930628424,0.2646267509490335,0.15110623319161726
0.11665512260798329,0.03936930694143827,0.13811283452540496,0.11185402633978528,0.13159938388102993,0.17913761054568622,0.17624242908545545,0.09494771783036518
0.12962936564536892,0.028226431828504418,0.1533652943567964,0.14713743343710134,0.23746643101830808,0.3199745463378587,0.3161102679917848,0.1779910943882817
0.17180369970008613,0.0958185514535989,0.21233024317227395,0.21667381713884082,0.4060585763159413,0.48318374444179946,0.47919730833190766,0.2947658315861916
0.17643550069206507,0.12415611774528232,0.22274070159083578,0.2166842819593961,0.39642811431138725,0.47778851422460006,0.46765474351711717,0.2536072530370051
0.16425997618495766,0.12232245481651857,0.212287282246725,0.20407118568168878,0.3288849081791261,0.40821138528309947,0.3841343570613144,0.2049858881555266
0.15290630347524936,0.1114000951613801,0.18010695161410517,0.16968950087668758,0.23023749842583466,0.3030335591891033,0.29364518852418,0.16725101054945257
0.12399905485456614,0.058315339521024835,0.1488717681040512,0.13260131023127872,0.16095755162949638,0.20372011489124706,0.19490083671830508,0.14613287204333797
0.13975154971204426,0.06788497068832992,0.18052454825559544,0.18587284637778445,0.3204918898393351,0.40083041661386504,0.40151231746660565,0.21791862246670782
0.182198685079627,0.16619430329350976,0.24374565176745872,0.23577244284147597,0.4321845256306673,0.5073942443959074,0.5229415831942755,0.2838002056322724
0.19406777158733904,0.19023217777980506,0.25500500701984474,0.2387123876066799,0.39473860162128416,0.4903556292597832,0.48436277033394554,0.2626442272374979
0.17877956899809913,0.19124074247978468,0.23187795095932168,0.22160087223133879,0.34701656964844824,0.4095763300060642,0.3967995709329658,0.24586489958872124
0.16463872642877297,0.18938462893035635,0.19150945652899523,0.18463152766825136,0.2497519981655385,0.32247995744639163,0.3066478737609827,0.19781277694267854
0.1333647484690382,0.06105155372877276,0.15246099912745759,0.1323975762069855,0.14589527920461054,0.2011790921071429,0.18940575434654255,0.13072152766056153
0.13088200654081886,0.11670143508460393,0.17125198489227164,0.1559067986018012,0.24723137563798628,0.3164268145944887,0.3152516770814263,0.18711193216641042
0.17526248421588497,0.1806811556158145,0.24106504952542598,0.22097221913871168,0.41548731615159873,0.5140280908799193,0.5091624149604435,0.2674121164821077
0.19796302738971602,0.22211791050136584,0.24747677809433105,0.23043603779110697,0.3886848064230839,0.4745968728613622,0.4884147428572301,0.27235542541575775
0.1515148036144541,0.13025208765024102,0.20943297291751942,0.20744480817581445,0.32849326744225066,0.4179934324127834,0.4124093334356873,0.24476861449288984
0.14047711876294158,0.10002255363824414,0.18701027855925784,0.1734461641409289,0.23781850487447698,0.3114794445137604,0.2964448176346063,0.19808642835332815
0.1179394867410601,0.07929079688855423,0.1510127754961395,0.13375249861389488,0.14426673569297774,0.21325768426834346,0.20426437347636278,0.11764495006079613
0.13909302618137148,0.11212834246190784,0.18495068813970608,0.17563372834630114,0.294453178857162,0.36998761724152657,0.37664624526576407,0.21384300112623292
0.16658741686082815,0.17086205856675266,0.22315210264678115,0.21580240304712317,0.39081295200067123,0.47578173026646786,0.4957518761046569,0.28003953245159874
0.16296477028574635,0.17232809508947589,0.22141861591915318,0.20801407274201744,0.3626547714265501,0.4361952105437046,0.446895219197579,0.2810648339167896
0.1439690074850178,0.14823541558123876,0.19695426369341063,0.18631804434735838,0.26742800118777277,0.3415878181736507,0.35616692999380317,0.18051254662052482
0.13026544302655133,0.11529261067609169,0.16058465718629278,0.14501641290902295,0.1917155497832562,0.23895184355031474,0.24455313121199246,0.1320766676046385
0.11720921612731691,0.09647133022934437,0.14740772750174846,0.1357448340782066,0.17759388488870023,0.23559921008379023,0.2393243261616601,0.15271453203794008
0.15394929042989525,0.17028950311706761,0.21169116824529627,0.2067982866574838,0.3934390819465573,0.4757087752686237,0.4912951634109384,0.281056860659366
0.17957776075163617,0.1669960398789661,0.2233521511114207,0.2240547738565401,0.3849521503061029,0.47655467876461677,0.4906743681910856,0.2568951748675848
0.16040197677740992,0.1457566142154165,0.21073488130956702,0.20416109899578327,0.3467148114787983,0.4126644616292676,0.4232010339741862,0.21070360016492204
0.13948219603417872,0.1343220008665441,0.18749798731169137,0.1880185224697861,0.26410813233212427,0.3174868887676135,0.31402049447148506,0.1630851995789485
0.12759647050441503,0.11375721913460009,0.15602274272102323,0.14776183991136166,0.16769534807485453,0.22396624842798796,0.21900066175343708,0.1423545209769064
0.12798138619802477,0.10395988385869456,0.15345452507356694,0.1497461973457313,0.1965184338937934,0.2669814083750831,0.26821314701961874,0.16834300611506106
0.15452695755992324,0.11242071604990395,0.2042353262056304,0.21079408101878033,0.39769463187561266,0.4851111576742584,0.4941814698323538,0.2481426040216309
0.16270986107948981,0.12810071521382888,0.22037088304966437,0.22651458701886035,0.40158144835,0.47912176672482326,0.4965956297885358,0.23427528039591672
0.16796350326437998,0.1474595741489213,0.213216872471188,0.2146007425995075,0.34511820200912974,0.42013407855581897,0.42073232474524075,0.23936373737894512
0.1556485926829498,0.18478627133141026,0.18920320585731903,0.19876641192359726,0.2615273277853017,0.3308566165740649,0.33582761998692234,0.21627005010120415
0.13089634445485804,0.15661571752147185,0.16655213800353535,0.15215862290775367,0.1860033228575771,0.23329373573097203,0.22946581756604215,0.15726001674566742
0.14237264588602716,0.1249712958044767,0.17076315028945135,0.17719811592737475,0.24174640493673463,0.3140594804736427,0.3092434750638229,0.17639561070342993
0.1734165673900226,0.17386196394908104,0.2261974922097106,0.2445785218421585,0.41254218173583784,0.49980304470763104,0.5262118776861863,0.25688518050567993
0.18943991955582964,0.21487644042692147,0.24485565065430825,0.2500046911502666,0.4058699243445615,0.48681811178304857,0.5016497637627929,0.27225774047079376
0.18532133863557249,0.22941390916018317,0.2278686859546748,0.23371116956119137,0.34566116083920045,0.42808438960955136,0.4391033889763331,0.28512750634330547
0.16801508971239462,0.18990085083983307,0.20451765662370713,0.18584071650500578,0.2632729807349169,0.3286269191801174,0.32064260614657086,0.1885963187159349
0.13814808983463336,0.13760870308382156,0.16497489032229645,0.15263661641192813,0.17501957031574095,0.2172993838182674,0.22308549729296023,0.13475955538920337
0.135549032654059,0.14676222452280155,0.17243019626842693,0.16088607547494316,0.22337109412964873,0.2684511694995535,0.2859306037109244,0.17521236731357548
0.17343915029186505,0.1906331660645179,0.22437426505461094,0.22781428165253645,0.3994389885324622,0.47402659616533094,0.49640101454148094,0.27811846409557944
0.17315778698961432,0.1945256624457893,0.22401239517957558,0.2334163771225617,0.38684708383816035,0.4584611698266088,0.46782095169862964,0.2737443881421993
0.15381845202749606,0.12606929645315718,0.19919055346788975,0.2090764284506838,0.31998474986163805,0.3852798827686793,0.39270065363097384,0.21805568188358476
0.13854940243591507,0.0950862560085034,0.16683592948786646,0.1697753623399726,0.2229498300534425,0.2830231931123587,0.2916696513086713,0.1765974198498588
0.12140614650159491,0.11727378362654883,0.14180629600602446,0.14030992257560077,0.14874476120970304,0.20052959382055446,0.200294736362852,0.136916068271631
0.15331780841428347,0.14249508820412962,0.1898771009994254,0.18623886728077843,0.3328511131224647,0.3931100759755501,0.4117292347884264,0.2511826771878259
0.17992969565365902,0.1812906029561726,0.22022645137672991,0.2189864931334291,0.3815829386142969,0.45094828909295653,0.46549586085247263,0.2752763421772548
0.1624010264002651,0.1746499189156156,0.2144108090204492,0.21042884062669048,0.3248921098739843,0.3972669841409539,0.40782001427991643,0.23849511786694977
0.16064756491903404,0.15910471507538723,0.18752031979556827,0.18030072678581077,0.2367612169252609,0.28999989546672855,0.2880299079912686,0.15131760993702142
0.14014584423185755,0.15764796286865954,0.16517024569331354,0.14627150830179836,0.1502853728673702,0.19120076264430658,0.19894054249105048,0.14768699982315026
0.14310960537438527,0.1749399865462643,0.172063390114586,0.1592472478263154,0.19372504255054887,0.22947848601048498,0.2317118131295517,0.17598465279092929
0.18546337873551505,0.2007276996125439,0.23382635985127,0.22900720960002352,0.4029020271076779,0.4557524387679224,0.4664139554400757,0.2921846705525465
0.18812669312500646,0.2040078806644402,0.23853248425993778,0.23927237793163003,0.380712446975129,0.4455917241392467,0.45561589314867385,0.2470805905307981
0.17981511753482976,0.21468451401636934,0.21951733108249383,0.2173813524133543,0.3159473679826411,0.3817974804901067,0.379709910935091,0.2402170317678284
0.16546769758566426,0.19429835858301803,0.193412810730971,0.19203699601254887,0.22473369902708262,0.2646756841492771,0.28037841428287796,0.20705513587283358
0.1436074729341917,0.19357956053602401,0.16329940532298493,0.15615256310398518,0.14509267606581694,0.18194135734366002,0.16767686081723762,0.179492407953108
0.1746654391978155,0.17755558125624743,0.21448192338406818,0.2042142424145621,0.3192194908816684,0.3814221274732098,0.3905116373086355,0.24850909173641272
0.19141719332410162,0.1970541823025268,0.24721395787108316,0.25992591861481684,0.404258573481322,0.46898100423111444,0.4805006105877427,0.2851098971119025
0.18424055135643663,0.19383555961023144,0.22858953648804964,0.2458731424374483,0.36389941594109165,0.4267374957234567,0.43894861815688524,0.26369387759360413
0.17994836430967384,0.2006316704767208,0.21418532970576096,0.21545697286908583,0.2944783555415633,0.3467816949382504,0.3401865181824718,0.22884175240834476
0.16593605521422888,0.17721100184954208,0.18448281492706442,0.18259474741883447,0.19147794494061507,0.24776698851443998,0.23003508441429876,0.189554486429845
0.1461536101148769,0.15449204845025638,0.1670113261246064,0.16334736060575067,0.1685689506978208,0.20606640889186695,0.20848589314626526,0.15905333838907615
0.19056282088165913,0.1864864704484103,0.23949651609651115,0.24733983265346476,0.3841316706815035,0.4673103950324127,0.4655821707699354,0.26346104064911874
0.20389308622904923,0.22892941278808954,0.24973734578735354,0.26436029586183696,0.4020768974923545,0.4561790127135957,0.44886703045163234,0.2953685633322889
0.20257745632390717,0.24042686964167906,0.2533833317988394,0.24165541561249937,0.3480387435491485,0.4143644997704713,0.4029420146384199,0.2729133209840575
0.1824493339731607,0.21987235691509419,0.22292941995097082,0.21866005502234442,0.23279123822118575,0.3002126186898858,0.3007912713624984,0.19838815812613358
0.16452098588875397,0.23054939015288212,0.1944500257149861,0.18414130871636897,0.1671056352279508,0.19467524277399278,0.20009796243196068,0.1691913005104163
0.19495283789246853,0.2604502488257239,0.2307884809902504,0.22686047920603586,0.32784036957363294,0.3907502311813684,0.39005682584714796,0.27211529219978536
0.21417584882424773,0.3186753258406675,0.2765887827146259,0.26094764606903914,0.4075676818784998,0.4737665677001804,0.47491315848605353,0.32682247282237586
0.20677625588456994,0.2744075966666659,0.2599652725182299,0.24981968196303048,0.3650577858874186,0.4208105518413511,0.42322001897554995,0.2787675119138148
0.1914156189757968,0.2373725536611583,0.22558101718140153,0.22006028817554923,0.28073032756496163,0.3372116299006712,0.33750233143888286,0.20367000223504328
0.16776454893023926,0.18976059934608963,0.19763980040682716,0.18909989592431897,0.17933868674724435,0.2388442190870656,0.23577985156574438,0.1370583017001878
0.19045546001652228,0.232031348920421,0.235801245461368,0.23269611052699968,0.33553831713797,0.40025790476084705,0.3801207174470931,0.2772904160292464
0.2191948273451177,0.2830122191441237,0.2803390716354695,0.27579396480161483,0.41342360990899446,0.5023866802595717,0.50309275759552,0.3021997342065862
0.21140939439132078,0.23995575786195086,0.27225106835183643,0.2731788539992474,0.38521117874867505,0.459101966219766,0.46962637032678173,0.2811738908225836
0.1942879835664165,0.20412216985187048,0.24487233340167838,0.24201015232889228,0.3071726503873712,0.37877682675455426,0.3658579533862776,0.21164893962305703
0.1859904317776841,0.18265782286497012,0.21757492968431852,0.21349485506577628,0.23207614026797216,0.2913123867509074,0.28126140597000976,0.19830024353420478
0.18919681428596055,0.23127427993264757,0.23014330594705384,0.22117936460034696,0.29777172780841554,0.3631156304158216,0.35095663194467125,0.24375862923794928
0.23150230651684406,0.31653404523045725,0.2988009642324376,0.294132924631761,0.4544578517259032,0.5467330707671968,0.5407610344764997,0.32564172266332664
0.23587386371778862,0.3148861973262115,0.30916632136621025,0.30925957172889285,0.44827533772988615,0.5358587545019192,0.5396400787245066,0.3185196120439686
0.2359639801106954,0.30972291310132166,0.2886931927288461,0.2866772815870675,0.38993719732999915,0.46841819416469016,0.46997352682259863,0.2672435529438771
0.2188214593368148,0.3093983134002951,0.2728671947175308,0.2562266771251316,0.3100586259697764,0.3861832554877898,0.3625955328642733,0.26444982907504855
0.20586697138818144,0.3102743473584782,0.2485812931585501,0.22396738697342494,0.26296504423464956,0.3129491856195058,0.3051678270689762,0.257632872727643
0.23489233824419448,0.3328056225464965,0.2985705243378686,0.2970669318381159,0.4589794310444674,0.5353517397537939,0.5348696369949661,0.3541442928881749
0.2440431315607838,0.3333987733817608,0.31689502835968825,0.3151739237775944,0.48187310149253615,0.5719183537882843,0.5499034939788209,0.3363704876096536
0.2375930167469174,0.326104588972902,0.3072115331576428,0.2928123514958838,0.4438115115046381,0.528315606972576,0.5225467880096735,0.329947626224208
0.2248750757629649,0.31991719989969913,0.2743282534845625,0.2638138021059243,0.36891974282038675,0.4292247481794445,0.4397780170450835,0.28973240047032994
0.19531739113521526,0.30537882433679814,0.24969562550704175,0.2248116722295544,0.2905476145376952,0.35217239825759344,0.3393991290965892,0.29283827592043643
0.19048262078166436,0.2610191838332004,0.22569592059189988,0.20245166222674243,0.2606141495478423,0.3163560968797552,0.3104642713666569,0.25384015860182185
0.21312284168037762,0.2847410222247806,0.27454908690164875,0.26469765608523205,0.46705857784750204,0.5374104849619973,0.5428865917577052,0.33209025383318536
0.21474833918026248,0.2936004184664739,0.28287445901294045,0.2738672688392379,0.45722632685634196,0.5403040534155181,0.5269843343921294,0.33334936069726817
0.20630648664780657,0.29889464124440046,0.2722414685819349,0.2513008865860904,0.4203826755690531,0.48288339960445537,0.4782577262497684,0.35254437507313
0.185508649241698,0.2899214499548032,0.24370545572535565,0.2098347404765626,0.3210339420149008,0.388145490258559,0.3821740926462483,0.3021280752007357
0.16498579642074862,0.20077504196935061,0.19590364116507808,0.16173205740132823,0.24031530666699882,0.27592430242839455,0.2680659268574197,0.2202565318530529
0.17296048806241024,0.16948676309009658,0.22341808041497035,0.20423454378477815,0.37423542210787997,0.462925090643838,0.4668607560791793,0.2576945857003905
0.19924784391290074,0.24923861159261446,0.25458452901479645,0.2306364302682347,0.4437204441623347,0.5131774841459359,0.5152743224145508,0.31970091532833134
0.19076670079081678,0.2731478053090529,0.25613857274696417,0.22260387831991593,0.39674942333230756,0.4555238062064958,0.46190477109012473,0.329670956185149
0.17925037479898018,0.24579775506809604,0.2138418522811412,0.19154969048436543,0.32623382496272274,0.3707769850797097,0.36056351020553434,0.2515022627042563
0.15091705121646698,0.22861964522090478,0.18018158017080027,0.15412744276945725,0.21108903152705108,0.26809072457262284,0.25429239632227685,0.19095786326040354
0.1470442515087822,0.2103330832194068,0.17889979260533237,0.14175074223666495,0.24313321382474218,0.28780181273285893,0.2879596679906677,0.2091252387404519
0.19906979420412535,0.26574596777333837,0.2509323144812949,0.2142300684947091,0.4550841564736162,0.5172513901971751,0.5077618994754409,0.3299231207479981
0.2025601409157447,0.31601153240512503,0.25365225729719654,0.22160488627810118,0.43558118820647557,0.50180801427337,0.49932373482192005,0.32071396527757545
0.19325835559583118,0.3047649534791178,0.23352912448234292,0.1865670165368803,0.37185888733000133,0.4298042001371839,0.41719977639572353,0.3034222220219882
0.1690854694505871,0.274818291933284,0.20547149263489536,0.1619566589911705,0.26719375082996505,0.31198575041903687,0.3094255088968677,0.21420333295901883
0.15344164178085123,0.25281063439716767,0.18824477837900194,0.131732240797665,0.18716868497655756,0.22740634137573162,0.21142106601477262,0.1927061830527241
0.1921025899620716,0.30621571631608224,0.23806843101979186,0.2008957716689148,0.4128656776108867,0.47772836487999715,0.47621748723099533,0.34842032574029613
0.2049242355529107,0.3214820504557123,0.25978959344221964,0.22780275619769774,0.441104271428935,0.5024970003011919,0.515266607812258,0.3628480423691737
0.1949962517252341,0.33103309540054127,0.24609480227204286,0.2130551990186556,0.36885505525043305,0.4502484617734014,0.448299654501788,0.289758299202832
0.1816110657712496,0.2934995349382494,0.21541531211208578,0.18022199479376302,0.29639753018403514,0.3477078901576864,0.3385066240662483,0.2197325734645358
0.16536540237210193,0.2744123217285107,0.19460134490117925,0.14546177719178355,0.19294620352346742,0.24853344116321296,0.2314225238598991,0.20865771910237446
0.16143136438078715,0.240774564132027,0.18753292624363427,0.16651246662337107,0.28415165020849914,0.3432680073744091,0.3277039819842526,0.256461310167537
0.1926298149584501,0.2912109457385061,0.2425681434631357,0.2263579127728238,0.41686749104731596,0.48935532601108855,0.496567192281051,0.331925739498588
0.19545462212759568,0.3064621024707727,0.2437217150651747,0.22052480644044267,0.3854068605270994,0.44676384786657486,0.44843525152829783,0.28954075574348404
0.18784072123699447,0.29389593775674516,0.22463723687831016,0.1942605067946621,0.3179468532605474,0.3721107373975553,0.35426761116571315,0.248689386984869
0.16486790236341475,0.2790921118700392,0.19557810063965902,0.15557894821933232,0.22415566936544848,0.26891993739228226,0.26453638952587977,0.24037240542128904
0.16743166178353847,0.2604248705916332,0.19491223525741674,0.1547688582947527,0.23347658688105943,0.28585644395115556,0.29385541525953063,0.24624280132387596
0.19541576632524568,0.3269514101686281,0.25029264293634423,0.2185071272750717,0.4001259634490891,0.47030457919816965,0.47667918875981236,0.30514388929883435
0.20511829104592638,0.3272858636986846,0.24243600967397547,0.2269519776196427,0.38157419658432906,0.4366866768693387,0.44175541130595297,0.31283659266139535
0.18516376491343325,0.32101632647254436,0.23005078494219805,0.1999480764167084,0.32861287217360974,0.3691499092887319,0.36490706701719067,0.27252204267801683
0.17029873344565105,0.278480890181084,0.20363958053848713,0.16446664570056174,0.22065521486158152,0.258018085819937,0.26389542935031407,0.26528510640563624
0.1822024998850116,0.30626951252376017,0.20415325672545712,0.1766370729408011,0.27958856473968513,0.32686358488735767,0.3154406448538026,0.2780389124596856
0.21289501568470617,0.3620374653910691,0.27474389650570846,0.24438684350337708,0.41744503341446293,0.4861565669923487,0.486423788332653,0.3473531713940346
0.22017844687552887,0.3812468303016089,0.2702986279324881,0.242119770207273,0.3846207882033194,0.45481827033502653,0.45126903315288747,0.32897742085140425
0.21028775291815147,0.39388745236379274,0.25987779480047474,0.21854457824177445,0.33048159987811615,0.3775432860161309,0.3802060545705258,0.34005215719711546
0.19447699218788364,0.3717829959219504,0.2278726942410624,0.19058604997247786,0.23551949157447502,0.27948468529963366,0.26335782507717337,0.2681170921676058
0.1975053240010812,0.36844909356177746,0.23899847533077942,0.20578247133739283,0.2950113318791016,0.3484918347060069,0.3519738381297439,0.2849562841449994
0.22791268680969662,0.3998836454021825,0.289235455631885,0.26869278305356814,0.44751156131536046,0.5035469091793545,0.5098015183146729,0.3359375546756303
0.24741365108236846,0.39647389869269245,0.3054993004183321,0.27163843609372174,0.42676933475311746,0.4868950791423104,0.4851921955032728,0.3490999863582694
0.22769812096782024,0.416215630371651,0.2871404151135733,0.24736689181539054,0.3631762158687639,0.41970097294996517,0.4285792082062605,0.30733538492394163
0.20402479145722108,0.3577318733735774,0.25241511903100816,0.21198755580245818,0.2763168895371406,0.3148069874429721,0.30952523808698124,0.22984152119106183
0.20667433894702375,0.32563949801006103,0.2524404798195556,0.22929202963136935,0.29443969854192326,0.36157751536179844,0.36846720071992534,0.250613750598351
0.2406460327167438,0.38304463688935964,0.309303466422487,0.2924410841158957,0.4578927948243117,0.5328014392805465,0.5321416198210691,0.33922017712522323
0.2571965498461529,0.4182685270597213,0.3236466445381844,0.29335467426555945,0.4572437650984555,0.5152479640182616,0.5168630554799512,0.3384243341853106
0.24515608696514327,0.4199648665372308,0.3051729551567738,0.27460505693819726,0.3936387596829005,0.44358899587081335,0.4366189300690203,0.33824778297595964
0.20580631182799833,0.31415485960284145,0.2566061257461672,0.23125865191666078,0.28914254538040746,0.3658802302343881,0.34890747785277715,0.23728644727619239
0.2039664641960101,0.27358895668351496,0.2470322677280224,0.2137302591696814,0.3095649054137366,0.36229994559966233,0.3723729942529378,0.24468596257361935
0.24293110734901122,0.3678454001399065,0.3240894152681376,0.2870220438352441,0.4705773861770232,0.539349331218934,0.5550617960560476,0.3666409130703699
0.2617436957985714,0.4413913938616661,0.328909854153488,0.3021845386009104,0.4546681567457995,0.5233942477024986,0.5318915633052643,0.38616543101325534
0.24917909281185832,0.4450280749341793,0.31832421748522294,0.2737309048078938,0.39460011195599054,0.46787816032147667,0.4667643671674392,0.3437490308245536
0.23391986741262638,0.39236040988323917,0.2880157767581437,0.244436481866101,0.32386313916879633,0.3688366961737556,0.38463834662734764,0.2696633740485115
0.23222050514495654,0.40765755535261905,0.2927674120784809,0.25595672412366055,0.3786006741041675,0.42495198018049396,0.4309731126988331,0.31354194718577033
0.26699125768755233,0.46095974188317806,0.35003029484401316,0.3039370138151016,0.4929545106982094,0.5540605412635213,0.5707198411400858,0.3954049687432557
0.26652214207170516,0.47965812858462253,0.3318858296914375,0.29314418806843345,0.4672795480046521,0.5211575342711231,0.5315786814495758,0.38346055359323694
0.24228285155733195,0.4316342190769718,0.30919716964083666,0.26155615432471524,0.40880842896223746,0.45207586002449,0.4515297992990606,0.31341803901515897
0.22136262369809673,0.35571865866405267,0.27906998582136555,0.2249630222431146,0.30432145184847886,0.3472884617334982,0.33928982206390756,0.2491420930169444
0.24321945065186426,0.38819550490865706,0.30752116097935606,0.25794712085052257,0.4236035196773734,0.4896982357177103,0.49660380627058864,0.3210844794171827
0.27680284878163686,0.46041517240033764,0.35635448297301053,0.3161017058214495,0.5166907187087434,0.5961888608600778,0.6028274299594923,0.40273005414698687
0.27606150383859496,0.4812668997148995,0.35807973774522933,0.2986367503229657,0.4896220085023349,0.558189963624877,0.5634134263971883,0.3974740083400461
0.2532133309027247,0.42226702870294414,0.3212515256775122,0.2674259308135071,0.42242623396285006,0.4832167570369089,0.4775773505744626,0.3116843650937332
0.23919150186311863,0.3990140347485326,0.292949544670679,0.2375171209419948,0.32681235994343855,0.39046693206187544,0.3895524181755659,0.2439733585988812
0.25458484787884783,0.42265653738622616,0.32266043810307177,0.2599064107896558,0.42556696140796757,0.5028673586804286,0.5132754584702794,0.3423263513625949
0.2908451490925078,0.5192673875901913,0.3887384112460867,0.318611493134556,0.5494129102915957,0.6250851492707244,0.6411757512328683,0.43582680214326613
0.2844755097108214,0.508043761362926,0.3754130672575236,0.3151445240003666,0.5230211845835055,0.5884659476371669,0.6058065655215051,0.4322978721764927
0.25597454356706784,0.40007493261837346,0.3285337887191409,0.2735558856854679,0.427678609296737,0.5041896978862759,0.508376162860869,0.32024867927149675
0.23437692366095947,0.39902650333186007,0.30698651991394915,0.24471400378423108,0.34177999092809175,0.3991624644570695,0.39871205748880406,0.26196781238174416
0.24367551558754497,0.44561767134049624,0.31052142275492695,0.24469361686210078,0.34794770940715536,0.40306961831636207,0.40065388052577844,0.3178933812724043
0.2869658109534958,0.5277266759220208,0.37375257746106133,0.31771557993016675,0.5224229700959601,0.6036599863465386,0.6106669687030267,0.4285969934661784
0.2863749651167259,0.5246507899271945,0.3678556215929607,0.31355828774452543,0.5122584114875774,0.581301322280055,0.5794128989945257,0.391292354436304
0.2672117509883864,0.45619928557018874,0.34785945948999336,0.2816355244939365,0.44667935714916146,0.5074577965752914,0.5117100435816128,0.33479649836404113
0.26061263096859777,0.46604802936910655,0.32249631734774326,0.2537846541159955,0.3629812559443488,0.42480703133649295,0.4205829349167085,0.29947521838317426
0.2529163605964505,0.4600234600459869,0.30752128643334126,0.24910246681158194,0.3511541555896905,0.40252254237112417,0.4041101681092741,0.343050521185575
0.2691281133903066,0.4491131223177287,0.34307817917200994,0.2905774364864717,0.5024314606244176,0.5698836128873257,0.5906004461403755,0.3924359341642426
0.2617127200345457,0.42467563321270774,0.33466153239290897,0.2964304559608789,0.4749085428628671,0.5473463601660212,0.5444055848871816,0.3700701623842393
0.2510017730884261,0.40122979166766026,0.31440316919946687,0.2613020577024081,0.41375557222074816,0.4726046886789559,0.4659948775467999,0.2996280142267008
0.24113700122962073,0.43076840720567205,0.29721143289076474,0.23801391956486542,0.32188014394448433,0.3872159386704058,0.36430135085862536,0.2893012296031184
0.23709114949800447,0.43598076556088305,0.2952096258080471,0.24072622514701253,0.33769935855499544,0.39842279366878885,0.39276300364910927,0.3155319830947804
0.2815659134845996,0.5027959694038471,0.35880588915884976,0.30001550150081596,0.49575693632499745,0.5597162495848715,0.5873187263864683,0.381163457389491
0.2754185175680816,0.46295377626158185,0.34199990108200495,0.29636341860049287,0.47376102970746053,0.5399165907564412,0.5456350991392217,0.34284405721896966
0.2629140047071454,0.4620829351249706,0.3258635817597917,0.2807196166186348,0.40702588118506605,0.4718320736704692,0.4612961043671746,0.3116556430892683
0.23908695920570683,0.3817019875589893,0.2900283842234509,0.23841383057200516,0.32387779841243847,0.36868163567518275,0.36495876543275857,0.2858450221914841
0.237629024221625,0.3994732586712885,0.2751165994445391,0.22959800580588996,0.31250238358070226,0.3665595820323864,0.36099842528076664,0.2921020837274659
0.2714987596277239,0.47682413326824635,0.34877496931231444,0.30627590984260844,0.4985667672003832,0.5677639790287102,0.5742697142508391,0.3646125653882609
0.28589305364079765,0.4882824167536747,0.36105041543432004,0.3061703719250569,0.47716526100705386,0.549234023977421,0.563276696883365,0.34222150565555143
0.27388607486914834,0.47133231459354336,0.32926841331598933,0.29033939774225265,0.4129810914571314,0.4801302815656277,0.4756980670675599,0.3441359229568991
0.2532232306158623,0.4300405909635601,0.30338039825219787,0.2561210259702902,0.3205282343650889,0.37832475634355667,0.3764315788671671,0.3121011673786903
0.24002743039959867,0.42567605927811947,0.28891489154049343,0.2298271749044422,0.26450736701343186,0.3138380693581831,0.31076848516325567,0.28312875721156777
0.27153668283743865,0.44516175265489294,0.343644325537456,0.30032338476705367,0.4764634305129068,0.5438874076744846,0.5616463819758846,0.3827127366429381
0.2814109245179088,0.4400302135039355,0.34920401611571467,0.31129479560773193,0.4747363328365775,0.5507335112993265,0.5540306835346283,0.362409000678972
0.27277726630795973,0.46272519181204336,0.3386717134730748,0.3021723166677311,0.42056202229270545,0.4922857279882072,0.4939199520378118,0.3634653110806009
0.25365491664205647,0.454025149859862,0.3178807092975123,0.2644645443272959,0.334732419250703,0.3888069626599795,0.37454655582876883,0.33137552966900935
0.24359392836407232,0.4328559152766081,0.2816620395213573,0.23482422103246747,0.23760432237057616,0.29075074910146026,0.2914772631115353,0.2781867334374819
0.2599842059872894,0.4189650819334927,0.33640956998369964,0.2851274003889444,0.43252096490027453,0.4995419610905263,0.5058811150256386,0.3392927775167301
0.2511024703205038,0.3672435681112042,0.3267991245310729,0.28358710637317386,0.43056735082379777,0.49531856919689426,0.5068245765871389,0.3475053199946096
0.24649848904678487,0.3577559426307111,0.3128670818145894,0.2765114261784651,0.37682759300393914,0.4469064678150926,0.45912763167569237,0.3398352904443561
0.22960438970812597,0.33244309762679014,0.27888771045723865,0.23938170532788694,0.28107882253858996,0.3468644637919683,0.3411565565615857,0.30505090061403567
0.2146293707097727,0.3093011471349537,0.263725458552666,0.21353886455778126,0.23883374423395362,0.2931482819458701,0.29014296895765285,0.24105358871017224
0.2512488825977424,0.3477836978641819,0.3182983765701672,0.28509377661930224,0.44199409039616877,0.49666124576213616,0.5096295584361373,0.33737568061660306
0.2550516419123788,0.3743121536817882,0.3339819177262509,0.285299595776797,0.41741687104545694,0.4865882988682752,0.49199695289788387,0.3318341150305647
0.2571934488459227,0.3973230865089695,0.31617659533420617,0.2761759654347894,0.35405538293575195,0.42787457728520567,0.4187543972607501,0.31613058247783077
0.2400457001034309,0.39019461004468103,0.2860624199617693,0.23412923146009532,0.2539597528532921,0.29969789905802907,0.2831193752492982,0.27062968661931447
0.23443919441684322,0.3903890496878264,0.2976035070338587,0.24157381750546192,0.29428348231562373,0.34594492001447574,0.350119947764476,0.2849708755259847
0.2730755811132278,0.4505596038752211,0.3585223524929557,0.30764942167534853,0.4645031029398621,0.5346057766953598,0.535323335254675,0.3871246760862048
0.2773732414784924,0.48841158775510246,0.3606050126098875,0.3125527239684989,0.4415369084042243,0.5023522311518306,0.5082192788842386,0.35927687582115375
0.2683344360053824,0.48743029044759556,0.3433285493717491,0.2902866545522369,0.3761299103195168,0.4173447105588435,0.4211812886548782,0.34637898924405264
0.2551920710912521,0.43226246470191143,0.3112694733107883,0.24996113132670858,0.2599999018500986,0.3096376386355825,0.3022464802022381,0.27755492917217234
0.2603999068418218,0.4335286848076009,0.3277203122441973,0.2784318097392705,0.37388499292286936,0.4377848140706252,0.4371577327388998,0.3219808985725918
0.2940577050275251,0.4878856417290639,0.3793608949008316,0.33559115692566405,0.48785920931319476,0.5562418156709382,0.5666257122896188,0.4116177042162931
0.2925368711893014,0.4983502346581282,0.37828159591659083,0.3230028241047315,0.4488281025014365,0.5254898025138056,0.5109224801543829,0.3992005883711428
0.2819840413365802,0.47288090544878636,0.3527319361658011,0.29220932056726945,0.375961593623822,0.4198259014691219,0.4215293915255277,0.3570383394391866
0.25156469380605384,0.4227187561497325,0.30600077676682674,0.25018864502485344,0.25373073224790754,0.30204277767289633,0.2983091274768807,0.23759495155210342
0.26244459264894465,0.42513499841032915,0.3332253163174995,0.29115822931347773,0.39038236368046675,0.46309886411005274,0.4511740774758843,0.3177835625961282
0.2816447168569046,0.47259907777333904,0.37897173695972663,0.33408524909066883,0.4861264912930331,0.5571879882344403,0.5532745346282868,0.39488866836714315
0.268437592401643,0.44839592345572893,0.3665593762288853,0.3062990199409433,0.4414032792323142,0.5137298927877091,0.5171217691812622,0.3314352942519635
0.25899204644814233,0.3923948723008147,0.32918862526920767,0.2774720007178882,0.36962996076990623,0.4239317382877531,0.41191636947406474,0.3063038289492388
0.24017472010375582,0.35300533336058815,0.30608654531153,0.2413348137044008,0.2569362492712126,0.3270643429277279,0.32179701774536373,0.24280148515769756
0.2666000754373026,0.429711192434978,0.3564576508482523,0.30294153199352597,0.4500618349126176,0.5168663589430231,0.52505412953405,0.36116451789832077
0.2830434301380999,0.4714283615639776,0.379603102126312,0.3229949394523039,0.4687248963339817,0.5382041756113158,0.5458834299669443,0.41085547501108355
0.28051853532731413,0.4675321571953588,0.36203467166388986,0.311698611952296,0.43514934257859356,0.5005665536118741,0.48380096191385064,0.37564338201105135
0.25475046044991395,0.4295584205250251,0.32544936295001003,0.27003995408250503,0.3301369196239299,0.3770379044166992,0.3888990163110072,0.3192349924627668
0.262844264933742,0.457797903348449,0.3339576261477903,0.28782059596618137,0.3742892378996156,0.4332382277038774,0.4362667436261193,0.3300371950874864
0.3005295782946072,0.5086442378794416,0.39089603791879723,0.3380830978665835,0.5219093505760748,0.5846167298919626,0.5832121753240682,0.4262078362792111
0.305011218667527,0.5277045787916469,0.39444892338327686,0.3351967353399258,0.4838530098992937,0.5476735063631294,0.5583267854823781,0.4206783630918549
0.2884317776805323,0.4785242697101555,0.35985232094763264,0.30861830944895274,0.4208065125345522,0.47668098931686076,0.4765345411621618,0.3556249260873236
0.2651748760200119,0.43510236678088265,0.3251021701478951,0.27611059628227297,0.33186512301134274,0.3776010192502172,0.3676392967900347,0.299163607239826
0.28885632454223426,0.46678888832830934,0.38479842316385043,0.32965750609758665,0.5000308666603751,0.5691595616045569,0.5783769583506986,0.3823893978321589
0.31450867769491314,0.5252407174308275,0.41210777617069116,0.3671426341713979,0.5470529638428803,0.6325250505474258,0.6306628947416449,0.41581207423422195
0.30998901683858393,0.5068417738653397,0.3996978056581886,0.3537887114777945,0.5153187323822849,0.5874963097740522,0.5797157641939068,0.39056029407265436
0.2920351404072426,0.5093180757520117,0.37168990458451256,0.3257840378236486,0.42275480955318384,0.47522885451911795,0.48447325462021795,0.3421293278374227
0.26828082298986783,0.43542132348111295,0.3336555221189884,0.2872435786876161,0.3418605543617892,0.4065640946785942,0.39474724009119583,0.24680290850750441
0.3064151157824238,0.4874713403541612,0.39555308081618074,0.35266297801917124,0.5347400910184621,0.6017756157848901,0.6121957115401533,0.39048002544547145
0.32531773890666155,0.5525157546431891,0.4352299675277712,0.39077616645566227,0.5792243756577206,0.6649862476406301,0.6741959517639367,0.45369007917844273
0.32722602332347484,0.5776943922477933,0.41949485903417555,0.3862862818842187,0.5334401893678423,0.6096754117304294,0.6193164198383186,0.3963790024539007
0.3131813828030081,0.5374876843361817,0.3942562876529088,0.34388832540575576,0.44740547146411574,0.5262764570444466,0.48987113910349694,0.3329789243695346
0.29589792303921164,0.5262335718761837,0.3629106100801051,0.30312954790232643,0.37360599604655975,0.4212544519858373,0.406565314197865,0.29500193749963355
0.30585752936575944,0.5675292113626956,0.3864621269119387,0.3332019446108373,0.4525870553181377,0.5226804266313022,0.5178657253293355,0.391945527141638
0.3438595255146194,0.6126755314641119,0.435099811131509,0.39044876004018486,0.5872744622369117,0.6681367900962183,0.6711651589085905,0.4575184177390966
0.339151692139058,0.5908646590101015,0.4373501828346175,0.3827356803436306,0.5506423781401331,0.6344831132205491,0.6203196981237055,0.40676864792856515
0.32369779139823235,0.5865252884972962,0.40828576676924366,0.358001644412887,0.4868201203687964,0.5435929196940708,0.5409925996367664,0.34666942809853657
0.3065203946134249,0.588636499987393,0.3787400402083534,0.31537799901901054,0.4016878438139223,0.4536835968739107,0.4596389135716347,0.3271176894044406
0.27959016559008115,0.5693845164463873,0.3571714280644347,0.2885488546009237,0.3182550649004589,0.3738175630352219,0.35442933751201594,0.2921560469380066
0.30732387189670174,0.6110066064793503,0.41063430698856357,0.350370020332537,0.5113572013269041,0.5911568814705619,0.579583429212764,0.4194979432459982
0.31418918933833634,0.550510585303479,0.40359541015242323,0.34736540145108386,0.5261802410932831,0.6150992419038521,0.6046380657772666,0.3619324698019788
0.2920401974142843,0.516536488741618,0.38929497722752754,0.3241739070791564,0.47942073132264357,0.5574957317243115,0.5372747324831895,0.337431230031023
0.2923141018444932,0.538890011351713,0.36104849047492593,0.3059857233203776,0.40408243060746774,0.45875774403272196,0.4560198822607293,0.32740881500439345
0.27563245154543586,0.551597993461152,0.34618961399454934,0.27301488235182747,0.3181769137992528,0.37760615878954285,0.35219222633725833,0.32580933610401897
0.2856769893349025,0.5326894156910451,0.3633027060838778,0.29890195895269384,0.4355881400700411,0.5036028123015159,0.5078106055596495,0.373581714393805
0.2906397923739817,0.5455071422666157,0.3784048917272102,0.3232935258201966,0.4997260172703783,0.56561208470527,0.5582398077318738,0.3781990724997629
0.28856161015694637,0.5459911636304633,0.37279759057227774,0.3086496965035891,0.45532546762137266,0.5190208867621294,0.5288004313058585,0.3844631372446738
0.27769580922234066,0.5595245171671313,0.343313237053069,0.2815477322105006,0.38631243477243554,0.4244034594716607,0.4163051508561983,0.36571688322701984
0.2726250296433416,0.5556714749424598,0.32496935558490386,0.2398995014813305,0.29625678509620756,0.3322007255635641,0.31395495830820347,0.33051224809980606
0.29751222275895944,0.5866061403525482,0.3677750600354373,0.30701304959230896,0.45963460244814397,0.5406359138497385,0.5286829126128801,0.4027347336288176
0.30375524485105465,0.5927516810701554,0.38451298000311707,0.327791823506125,0.5019753249059383,0.5686394834064181,0.5579009230967861,0.41355030129861287
0.30811625723293967,0.6159211985346218,0.3829021890493894,0.31582592779845237,0.4494726106760262,0.515235037124772,0.5149361457497852,0.4075848851181836
0.2936573667075736,0.6307109272806648,0.35816243066940107,0.28728726516592906,0.3656808715086506,0.41894003344106334,0.40603528242410547,0.3632963513247778
0.26806519260408007,0.540773388415612,0.32884401132875346,0.24679914706002412,0.27835724050135224,0.3334740139204451,0.3395897446661762,0.32351993778634436
0.2981369658853485,0.5628246018021362,0.37827867315805824,0.3142878783246694,0.47571370363229826,0.5701085631269525,0.5691150532713216,0.38137541084438303
0.3008324008039018,0.5820521215914574,0.3941600353009418,0.33142534320806233,0.49592568590325053,0.5798432340926154,0.5823760235784557,0.39960253066884155
0.2979727102955548,0.5894421022412064,0.3787126515451854,0.30775099231986164,0.4543091145300253,0.5185590264458135,0.5068932105521055,0.3801655901750606
0.2891047762898729,0.5870273648748503,0.3613977268638918,0.27808752432118417,0.35617130315203066,0.42638779033970586,0.41190655544944754,0.35725517784602573
0.27746434921576346,0.5869762158652652,0.34104822281557334,0.2481335942303854,0.2822377173064841,0.3361016092356589,0.32707708070042596,0.3233489253621324
0.30807708272485224,0.6117825577371252,0.39068585352825086,0.31868769362260996,0.47313686453669046,0.5647010316318084,0.5594465165391838,0.3979738401984349
0.31757661263332154,0.6212745457670488,0.3996646722399319,0.33509991440307263,0.5059967608387793,0.5801103293295117,0.5867520037610042,0.4099463263861315
0.3065584694960362,0.6009928868499828,0.39114341371346173,0.31657145114834395,0.44758773120441425,0.5177392468462524,0.5116499730612354,0.4286830190547592
0.28113776051212525,0.5535512602270705,0.3442927129462365,0.27470820358294606,0.3513265407220127,0.41395775871546564,0.39885149964625793,0.3673651114734577
0.26778996980705644,0.5575028764294613,0.32223896673803054,0.23278838417095793,0.2479992186897863,0.3065941152045043,0.2829449029873912,0.29064767472680475
0.293360686505969,0.5833254173885551,0.3698804461028641,0.2910505151831986,0.42381346306043455,0.5068673014953453,0.5201826455833441,0.3703596971671938
0.30775669611715695,0.6279399368265692,0.3908707268711495,0.3201038706526379,0.492830537379087,0.5567346746615858,0.5573277195484853,0.4185180485053828
0.3011870019878443,0.6290211831288786,0.3904731528092279,0.3020700765442559,0.44098439095116704,0.5129554900506701,0.5228701915870685,0.41620155964084693
0.2905239162406585,0.6097536845121525,0.3557599483472534,0.26468789664182324,0.35269633554902996,0.41549565172284103,0.4022654636251199,0.3329281119862472
0.2592715585285162,0.5595644171678276,0.3259911872804583,0.22075901286038907,0.25345207567598027,0.31567827168589324,0.3076525733982772,0.2839808345770164
0.2922925277694725,0.6146682558655546,0.373761306038792,0.29319577405550373,0.45271825097163393,0.5115080084538921,0.5137498052779109,0.3905491235818946
0.31054214698802823,0.6249564101326472,0.3875762599706451,0.3089016277589683,0.45603945816736613,0.5266511801319168,0.5310203656921083,0.4063864212456061
0.28928718549377763,0.5354615871587037,0.35718014699269107,0.2746541917983282,0.41238039967266005,0.4671590357655168,0.4663834776350151,0.3644223853145377
0.273562875899427,0.5439199960528455,0.3334217215911224,0.24121525954360665,0.31346696979993327,0.3723786766421191,0.36343945212805223,0.2747578892450026
0.2676878837317712,0.5499837604055194,0.33249281374212775,0.24051071539137936,0.30234713041918837,0.3668917583681774,0.35071905815263815,0.2844799291117245
0.30657485410508006,0.6113037679958014,0.39017677908346154,0.3215832672481907,0.49083752314079426,0.5754662722113331,0.5722665787174763,0.42224820306040217
0.3200654276265813,0.639060044319561,0.4011296230818524,0.32926192058020853,0.47903279983805375,0.5544346980877282,0.5497249813893206,0.4309599319805827
0.3092356107709685,0.6213062394714725,0.37814986459295724,0.31003679322351724,0.425436534662965,0.4833643988024249,0.47077042680528697,0.35660755832581525
0.2891224198893693,0.5991234574682016,0.35552075086014645,0.2724904652111434,0.3249126217612407,0.3765797058996727,0.3735823651534259,0.2797280149475029
0.29485726445648,0.6114957586572128,0.36372676031618373,0.29063723536775854,0.35676342181268583,0.42830230414021536,0.4356362844460335,0.30945564444225715
0.3426021371218467,0.6892610856528361,0.43739248072152476,0.3740059715703534,0.5362913123663481,0.6208727170770797,0.6066184316889485,0.42201126726829313
0.3469089766491545,0.6948985060517616,0.4481226714700833,0.38399846836873186,0.5036385243022844,0.6068808521107126,0.6005107806869734,0.42632084453819236
0.32738451837362725,0.6010114023061786,0.41076760488321656,0.3548252202636248,0.4478133106593245,0.5335363236739804,0.5360835654896171,0.3580743616129011
0.3094876327659271,0.5718959543497585,0.39295294465370023,0.3186084643793911,0.3679562550068906,0.44810856074713523,0.43106221152229324,0.3121741991720477
0.3112594273449891,0.6149336093028849,0.3969763656557933,0.3263681948987225,0.4004915102358352,0.4565480161683654,0.4632262394389377,0.35950173820700126
0.3853055653307707,0.7589069794277884,0.4855615369358799,0.42801629762672605,0.5744144544236502,0.6730534016242422,0.669407757964844,0.4694009469551173
0.39052749392355895,0.7615860612028812,0.49688511647168054,0.42357513306520245,0.5597673055920339,0.6595370471129717,0.6679858467183037,0.43934901406039273
0.3747225248844757,0.6934595084115105,0.4619727569442468,0.4043743572363198,0.5052822904353484,0.6035692803161814,0.5770041052083565,0.39103118747138554
0.3582769956744596,0.6656977264866969,0.43861853853973953,0.37417226666581754,0.43075688570509546,0.5058374226791709,0.47681224715883047,0.3584061759809756
0.34806874343938643,0.7117541640913951,0.42364481010356864,0.3454274610031094,0.3569406754016387,0.42272898541471604,0.4091113014909994,0.3597404265401041
0.378523610830915,0.7626300201324296,0.4727157057546955,0.41804070039710595,0.5271466671930591,0.6342955949859499,0.6303996256165743,0.47466579625894306
0.393097856762475,0.7669431201370636,0.5100092458291182,0.4492365959809836,0.5808561159134422,0.6844463912158312,0.6821960812714954,0.4476233304796739
0.3893240324013324,0.7390734049870769,0.4927269082969532,0.43896202943132,0.5367696914036629,0.637231411453383,0.6263478450421448,0.3745648587320392
0.38006402228953345,0.7178891297413302,0.4635841008756571,0.40857000475619343,0.45394169193066575,0.5574085102579085,0.5532461422247571,0.35985476214594514
0.353106119294768,0.6935981104963468,0.4329379212527244,0.3714539096522375,0.3888349912526568,0.45541812796508313,0.44610673397640666,0.4065031960410385
0.3820642095613897,0.7229581290862657,0.4739299987875829,0.4158248508827494,0.47967524951529134,0.5869387912956847,0.5798366948860021,0.4591254482400037
0.3938575554096031,0.7250860297769325,0.502253337646645,0.44964599275288547,0.5641038136617587,0.6667589260580341,0.6735604974056688,0.4475443516177341
0.38655732861322084,0.7171227051143192,0.4948777426289527,0.444451247340624,0.5268488599452936,0.6326317039102083,0.6178679891684332,0.4108479860954233
0.3835926497136342,0.7383410882569864,0.4776569573403791,0.4152071790518168,0.4590761165911318,0.5600370427373385,0.5395908492307033,0.42606133938501256
0.3671352777639028,0.7574180145013716,0.46115474078571667,0.38721995699410805,0.38480651592875115,0.4660592043082217,0.46210528154681096,0.39812815997716056
0.38067620817385145,0.7519782441361198,0.4821961654337473,0.4220784148399385,0.49569171917421506,0.5987643715116578,0.6066528152002448,0.4360399484029857
0.39722246931881866,0.7278443085711935,0.5133782337750945,0.4588676259385703,0.5575753020009645,0.6989039475013705,0.7072815617312368,0.44415692010789876
0.38723459386826453,0.7042156849997392,0.4876416788066945,0.44667025732642524,0.530407604135202,0.6463790655280817,0.6485378288729806,0.41159399301059113
0.3861277699119138,0.7626986747144233,0.4884998467019755,0.4265893466336847,0.4835756447177093,0.5671795076586024,0.5615873117539583,0.4634135422737755
0.3722698592045164,0.7549847027673064,0.4599504451569049,0.39315384866711545,0.3924899428933954,0.47618886337180477,0.46343240290779186,0.3980810430871226
0.36299826113075717,0.7120349495946695,0.4590264837633925,0.3830977839243961,0.40702795644981404,0.48813373649920455,0.4840142481568531,0.39065607579899486
0.40100895495841404,0.7472165299834272,0.5122763297886032,0.4532987983907348,0.5792714169140561,0.6959871467189204,0.6953436669484523,0.4230559291070775
0.39376377344815466,0.7337304306306621,0.5131864071441474,0.4536248791644904,0.5638096872834026,0.681137027660352,0.6908817193800143,0.45719002270753545
0.37364017505438146,0.7263646637817942,0.49256959876491496,0.43783675617615914,0.5030141004265848,0.6136756729501397,0.6161350642661673,0.42800621449520604
0.3617806668393392,0.6880410741065859,0.45433997950644683,0.38129487048386274,0.416418038563032,0.503357299599317,0.48422186358220143,0.3710515657921153
0.33469034153589705,0.6501583832346174,0.4115406402227169,0.3399231360087748,0.3142130898770562,0.396901663357229,0.3827198582245811,0.2881091582279104
0.35801991650127135,0.6815502914388949,0.44965616844605494,0.38938822669054785,0.4355316046627971,0.54182882024169,0.5488811734510309,0.37723198024320737
0.3824163469465897,0.7356576458915483,0.49088948716362374,0.4405902930549359,0.5707369396341938,0.6866978951526869,0.6920841577473958,0.45866174689455685
0.38121196519957745,0.751392442579955,0.489724717483558,0.427171515863841,0.540379118428411,0.653004627434554,0.6587217438994256,0.48505657883179504
0.3656934806887194,0.7126186366564214,0.4674814982515528,0.3930869229740432,0.46115352229839757,0.5550598628639112,0.5645895992167944,0.4043193417017177
0.32936622686124506,0.6255896761030063,0.42192275506429355,0.3460055334268243,0.3560076868417444,0.4377047162384001,0.4297211471202637,0.31732137985107217
0.31491065502601767,0.5963171406845605,0.4004351581283134,0.3329965702131297,0.3400641999135216,0.43507266482769924,0.42421013375435745,0.3404674291226459
0.34122937483125515,0.609520561331964,0.43739976762208294,0.39655632835619575,0.5460257783147511,0.6522476388461895,0.6629262256014244,0.4601940137587194
0.3060828955917961,0.46792421664541983,0.3951723161131157,0.3551895186154979,0.5257291126442568,0.6197732920523238,0.6236161178744722,0.444509690457427
0.2812441762216186,0.34682435283223423,0.3443135355022463,0.31600548370075315,0.42659309210578406,0.5325496132483938,0.5301359264383567,0.35453869469684846
0.2580999696001495,0.3215153777169065,0.312685775796665,0.28262986753202757,0.3292745240538546,0.4155759964412077,0.38663796995396604,0.2842757803354598
0.261706483536148,0.36886017866462506,0.3281461495984558,0.28924829903226923,0.36173835497491497,0.45768252185406455,0.4620555570447919,0.30772706282696327
0.3047493475098795,0.4363457117107917,0.3914514197496844,0.3568757828583753,0.5392991893507875,0.6331008622043183,0.6446584765110436,0.4097208807867589
0.304020299707398,0.4616677601271958,0.3938867491741355,0.35646412330107713,0.5003683165140931,0.6043242034573668,0.6100021986199818,0.3859183071674672
0.2839681168486709,0.38755096944948364,0.36138788025240687,0.3275246665877363,0.42088318913978484,0.5173742273246125,0.5094170348141246,0.2852859745589597
0.2760991019548703,0.43502243677002045,0.35282855015073644,0.3030547074985519,0.32844533398295783,0.42082864024729116,0.42836033655448336,0.2692666015951228
0.30699642951199396,0.5161439915726893,0.4056152173377577,0.36416578691939056,0.501488803467445,0.625430678621574,0.6359476330953199,0.3973295254324435
0.32261472106009814,0.5423009878608294,0.4177366978791411,0.3758178500810515,0.5377660935573694,0.6388438343029141,0.6481917128972415,0.38251350782189014
0.30036019701337313,0.47869359616032015,0.39620685414603446,0.3511160146155153,0.45353567966899466,0.5580129509559324,0.5761818447596943,0.3325018499984355
0.25647352670674317,0.2934250682541424,0.3218486717965681,0.29232771135693053,0.3384034101284805,0.460226835567337,0.44695052651496425,0.19268472873885203
0.22236178568782025,0.1921894013786316,0.2851627580835528,0.2632332484637651,0.3214784886542764,0.4398174749823226,0.4497412933399274,0.1953619524559051
0.2562214759670875,0.25643345171049814,0.3386907775681832,0.32101502976662893,0.5063133251223556,0.6033440864739454,0.6175497190690638,0.3133370551164752
0.2647107902496509,0.26934492537168486,0.3338823461738228,0.32630041566500995,0.4451206366928977,0.5790959666517859,0.5673173245090781,0.3000949667734928
0.25112853551382913,0.26496792932315333,0.31888976156618626,0.27934889717571476,0.3917158196933258,0.4955810787276115,0.4876519038686331,0.23119728960330344
0.2330306064890229,0.23098711468659167,0.28563482127281686,0.2621059863398192,0.3054671662365101,0.39047032030106954,0.39430852197051247,0.20435812809046563
0.25886797646585236,0.2909548169892051,0.3298896610316822,0.3095748129770545,0.4285920802245302,0.5592607213014185,0.563298939225851,0.2959070403033827
0.27338324068123454,0.3492809396442128,0.3630099005142914,0.3430225281129563,0.4981016303833901,0.6159358427248346,0.6126806977385806,0.339048056219455
0.27192802001429367,0.3226822988098413,0.356750951781315,0.325721871364761,0.44923202078120983,0.5769214750536508,0.5770951749162087,0.32275872499933567
