0.01650816255984841,-0.026800367853257394,0.02987126666834749,0.022315682318436614,0.005857237483094628,0.0011655924993018833,-0.005276361010723624,0.011528111100822917
0.012732949412165786,-0.022553418132539933,0.04068685330349102,0.025201817437764527,0.010573360618919,0.006285332991497073,5.950788136745996E-4,0.019362907960623937
0.009514819483530525,-0.019331798659712494,0.043483622425445824,0.027013312023606094,0.005671116397057126,0.0022797842836448524,0.0071187219144248914,0.02403910019610029
0.013611122412939667,-0.00903820372271951,0.04294534574314238,0.029722410153464166,0.007535225708844357,0.0018380705306224143,0.014564916371807075,0.012183871718181603
0.011425042719237985,-0.01628249483311368,0.04017020357923636,0.027576776836726397,0.010599680348073619,0.00448344762653551,0.004245338568536971,0.003810202476762026
0.004664234802416008,-0.01975437417967224,0.038695695695681306,0.02985579521166032,0.010991874922277357,0.003512953344920296,0.004518154933882517,0.011904988231980612
0.010900000703790266,-0.01258470869505569,0.0333016658068208,0.037449075757386714,0.015290085271462436,0.008067010958384862,0.017278459820755557,0.023000244369290056
0.019912155855712835,-0.011236117027776755,0.0397816577903934,0.04155778341297023,0.01076451371455226,0.011106747775134021,0.00871620147483212,0.02668957709649099
0.01974950815063134,-0.026569562101170254,0.052849764281292844,0.045903881164600153,0.02113574500766294,0.011496036634490232,9.670742564637187E-4,0.030237784660491034
0.019636534582253243,-0.042399333851308674,0.05340668853174001,0.042460973717888796,0.018516601257360855,0.010718777955526977,0.013010676813922574,0.02759843625490598
0.017377972884597605,-0.028543354944261953,0.047143361554977406,0.039225133620888496,0.017541674867368764,0.023152400194577455,0.016704774750901142,0.028503802885879857
0.01703397883951085,-0.009818443449233341,0.03841605740329983,0.04743362331267316,0.023423739834175224,0.021665198813565274,0.02736748979614303,0.030051578203463564
0.013428624824109529,0.003915222462149586,0.037486364273947234,0.045494343155660595,0.028913642386693778,0.02265761982653508,0.016731470840344657,0.022777268630404135
0.014196112856759422,0.0010458426823886377,0.033948438290138085,0.04230208163941497,0.027055154354953342,0.020992894865078424,0.019676632402513144,0.023135361700410854
0.012409580925082271,-0.008603057316826984,0.028017853368006888,0.040058603582693426,0.025094701637634134,0.018559853748219644,0.018938307003533765,0.01814675896889628
0.015503675139439939,5.884281902313628E-4,0.035108947472194396,0.04488095632011719,0.028798985775439715,0.022496772844172706,0.02183994863295375,0.030793979077879185
0.016781610948253832,0.004547447632423201,0.04491107385418369,0.041279959648272246,0.026818705602734888,0.02055877601365021,0.015882641791643577,0.025206396941298257
0.013536274082408187,0.013269272004458925,0.02266389476120914,0.04490548519896551,0.03183642449019484,0.02347204503414585,0.0287290240245222,0.021373244946403705
0.014374720758260599,-0.004234993793617361,0.03307662345438316,0.04090358100751747,0.026139664615757053,0.015667546941132402,0.02134938001267961,0.021344459087334233
0.015187335590548086,-0.008010308070511044,0.03753543248999236,0.039141317620089044,0.025629542908327033,0.025466366607251326,0.019019375127530175,0.024860619863870708
0.0135090703488935,0.004332948192982765,0.03905258336610379,0.0445886769441243,0.031541858756069574,0.01991430458371597,0.023384409538579756,0.0357531981663539
0.02779213304965651,0.008274358919216853,0.047886427573405714,0.044760771021932266,0.028932262726514644,0.02035261837068166,0.027505648116056682,0.030421246645550477
0.01909132088977527,0.001074749024046107,0.037428847193247336,0.045059587633985834,0.029239667987214515,0.020411095052981717,0.021374086735592924,0.03510987025608981
0.0166364707342418,-0.0047214128648294645,0.03494398147622985,0.04299021768561458,0.018957292809576663,0.018760528290203957,0.01057403016996374,0.023047582843999475
0.014517578255377514,-0.0024151650202699497,0.052756624067000386,0.04913742980951944,0.034015679614095615,0.024600191248153873,0.02326410992872257,0.026837601605247608
0.019108356687971957,-0.0019429769772871953,0.04991244098679598,0.045880411609407756,0.0327998629535263,0.01654893253486928,0.020529896468771458,0.03253576115605426
0.018561815664956294,0.01126637821253353,0.04638444976688987,0.0442706827942532,0.029630848771771197,0.014791222641581211,0.014580802567745695,0.03195477493539136
0.016519806644291764,3.5510576513950366E-4,0.038454398629355,0.036767831088292784,0.02839881224998292,0.0122261661352176,0.005646447595721355,0.02368080392477156
0.011813082433245504,-0.0022041888230001296,0.038269982012587994,0.03948965922819677,0.025377972235420543,0.012032787423802243,0.010075637594528144,0.02576205026682963
0.01961123343499523,0.0031220775894339726,0.034005772727442034,0.04050697646214567,0.022668626494680114,0.012963899951777685,0.013273708818962735,0.02727332540785043
0.013020171612022412,0.010684031392692157,0.04488570393221303,0.037144726751679194,0.01895781640162182,0.00735310694028922,0.006794021178861441,0.016182169289062874
0.012939655466087998,0.0027545708490139785,0.030210610221131893,0.02993758670543863,0.017251395216254833,2.4531118980108393E-4,0.007202722692187639,0.01712994254210908
0.011096900923648158,-7.862060272457722E-4,0.03751544850703926,0.024781239110109248,0.017546993231297464,-1.600334595503271E-5,5.063016194083748E-4,0.017890048354170764
0.008288608902626693,0.006050617579430529,0.036438928667949316,0.036026533266384546,0.02456909193162019,0.008257707218114066,0.004988853231339377,0.020367853483779057
0.018253020729744333,0.012929510392112353,0.030904828373097333,0.0332329906409899,0.023786756472373976,0.003993116914539171,1.9597179307137395E-4,0.025252913927365585
0.014317568334898948,0.010370780636840715,0.026833116870938152,0.029725900816567924,0.015061936121405797,0.004230719493774585,-0.004072960681577097,0.01878222010395791
0.009761376755634548,0.0015685436965210172,0.020759153425552568,0.02386766841417554,0.014001685014637763,-0.0015040901748252856,1.31016262551408E-4,0.017963439742986725
0.01659184613017878,0.004415359992870269,0.03724345964965497,0.029361066882079692,0.02036353021796906,0.006663231947828348,0.0081754222317453,0.02998435377626532
0.01506511436647167,0.014058470499863397,0.03860218899064918,0.028619157688762754,0.018368448774376486,0.007885164170641154,0.006840464402193278,0.022948029019161195
0.013914553614656008,0.005159427649809568,0.03654659286809793,0.023807704543943427,0.015933132400849485,0.005561179651151444,0.006286260362965765,0.021325271591090537
0.011135452503038774,0.0051323778671352235,0.03443372475361122,0.025685295709610357,0.019540320659947544,0.007079846510328089,0.005681345676463167,0.023414742186517793
0.022577521412446337,0.007802236378456899,0.034273487200536086,0.031063118000288475,0.022680172574778827,0.008113896754840125,0.009162412370602448,0.02566255774467404
0.02290069726697674,0.022539652048964767,0.04616079709574042,0.03974107115392753,0.027851321938722737,0.020040326749935663,0.01641132910888721,0.046664371417128085
0.03112934820679186,0.03070413554621538,0.05968504691901663,0.05405765776812725,0.03274690519608004,0.026445614942016926,0.022896252449483286,0.04884302110199843
0.038255218794028566,0.04339550374299922,0.05247518502907439,0.051841055072779266,0.030227785650719124,0.02695234146267511,0.025858455853459448,0.036820423899643004
0.01788216761200989,0.02766669413421263,0.0427913435812038,0.03854695370643188,0.02584674088800301,0.016307489422066487,0.0135880277759425,0.022961149316767515
0.024797664236809937,0.02899403271325314,0.03888320127310887,0.031874948512966565,0.02296329189930409,0.010317281649496352,0.01014108917271621,0.01832486399206736
0.022905181842536166,0.017888171955334032,0.0460815236317855,0.028683650800708477,0.02075193535081246,0.008285798554267657,0.010656053621235272,0.0064102133814240144
0.024779323579268816,-0.0028776972289299334,0.05700609217769793,0.028385253054505902,0.01985513879135199,0.0134536489068918,0.010601178614955985,0.00392777254254417
0.015637719246123314,0.012650911055215442,0.042208010077618215,0.02858081753323535,0.021918857272782363,0.01882999724241312,0.0192287985469097,-0.012678007489048166
0.028255075032992162,0.013236182476438645,0.06142300009312304,0.052705570422795,0.031013342201864334,0.038530031133668194,0.052959255190192914,0.00466619773559996
0.03022157619975493,-0.012505751193173067,0.08552303833784783,0.0517519959439095,0.029320433997478926,0.038728578392082796,0.051750905469404807,-0.03266044227154733
0.025772445208351983,-0.022859145085350623,0.05702663784214018,0.03471877159279633,0.018175430526865943,0.03282805568505953,0.04806958068807345,-0.030206941513213
0.011452967278464194,-0.005634117561299644,0.009873575223360385,0.018836089970833882,0.019726077802126023,0.029726833157711352,0.04566440451192213,-0.019213582681066495
0.01862460397306885,0.05920600304608009,0.022898438876649014,0.0740458390662558,0.06456422953865208,0.08538773147082043,0.0874122434882519,0.10572287986462788
0.016437178384961445,0.05053025273862341,0.02125420664963923,0.05600514642664252,0.05455395929353504,0.06009225810950563,0.04526637889568837,0.10201369116196968
0.02023736251677367,0.041980416054066015,0.024675169120270894,0.02705963359098841,0.02674694741586735,0.014568700135783109,0.006062937334771091,0.007188774583870164
0.020246338863421184,0.014228232541637194,0.04491130473703554,0.021901702007060462,0.020104482253789992,0.01667815779424746,0.0137999861378676,-0.014581548753792622
0.033028138182344145,0.011294985096511568,0.06264159761641533,0.035942045734015,0.03050728425648,0.03360411691289986,0.02379415059084831,-0.007357279470894358
0.036468766816634086,-0.009801849908387313,0.06510916420945895,0.033321208337485635,0.03453467490226704,0.038336226850543595,0.03395639468446258,-0.01669861059032755
0.035206997422436805,-0.009223997381216235,0.053480697986693505,0.030234886538645995,0.03708461161296131,0.04472268395937847,0.038835803931832114,-0.009522776234561726
0.023973473541412545,0.01774724137610631,0.03916333185359988,0.02311357220746009,0.04205534243558498,0.04212342449242608,0.0469810779150932,-0.030971314986446858
0.02454403476674552,0.05950019542809838,0.0266239416805646,0.02148577356444747,0.03795551919919631,0.05598459073201628,0.05810938462165293,-0.023368909111183958
0.020066501740775074,0.06314370436733911,0.021100800270332433,0.02104272472187107,0.0468921147356182,0.04851857199064011,0.04807012127360703,-0.025586712445412562
0.01762855864128382,0.05472645936395461,0.01083148487394593,0.02070211509178066,0.038583770559202986,0.04727084139819604,0.06025766867198681,-0.02207189682011354
0.029174569911916567,0.04595455923990677,0.023449618731565355,0.023877415045394913,0.04146058788284496,0.056187331923595124,0.05887323241899191,-0.02169624822538695
0.030018022425257338,0.050546734089142044,0.026032469189319424,0.02172962244403659,0.047957440568006424,0.05211377669595271,0.06733881980364304,-0.0011846248162400237
0.025006204750955816,0.0511641222873051,0.016857653365752106,0.018711995583354377,0.05127562971229997,0.05770491203064938,0.0679994889460198,-0.009515086803378987
0.022764188710782462,0.03457307170147481,-0.0015527993218407102,0.012864832811860485,0.04623950971937139,0.056016208094188856,0.06261052195530689,-0.024508965593761676
0.01961777735762286,0.03336548787683669,0.003086808907428122,0.014052130303728075,0.049591780580830136,0.05684331212121258,0.059697314825179704,-0.019936181598046582
0.0182329131545701,0.03427496853598941,0.021712636164798984,0.014008014181715309,0.045783553214543624,0.054672282158613666,0.061519929139534496,-0.010395496744228275
0.019827857146720078,0.030161425278617912,0.010170809737192784,0.013367534152156612,0.042278827240421736,0.05791274720414932,0.058649802533454164,-0.019971455781692914
0.010244444549339609,0.020805417628006022,0.010705680890795707,0.011755177893884337,0.047632478290356536,0.048305196826907565,0.06242384429489645,-0.031004967285599715
0.0193321754310826,0.02231311175712941,0.011476320682064594,0.010349998651459448,0.04763015398401324,0.057217964173510515,0.06801060657164625,-0.018633741996331735
0.015270025534987458,0.012756091111899032,-0.0014768209238702364,0.013919555941838515,0.05007863542245447,0.05418508120677461,0.0626527055123403,-0.016202476555845557
0.013689680442134877,0.011205159175856181,0.011338002143110466,-6.042484161284827E-5,0.04306442541291969,0.05119482694615606,0.055427918309810024,-0.028127856683536144
0.010673712767114962,-0.0018677690423221343,-0.001409477133898086,0.001680194611488599,0.04145311610518371,0.040296380531874794,0.05090357537884488,-0.025782703649720802
0.0037914219796497447,0.009350479590471198,9.382331199454825E-4,0.003993550247215708,0.042905412108943185,0.04949099295255021,0.05942422356143947,-0.014786297784564171
0.006273300099603932,0.005322107573165963,-0.0010102134318543871,0.0018910669585438967,0.04469104898703596,0.04703863446033102,0.05872022782715276,-0.024845618113018855
0.009133668179503852,0.0011994351947606115,-0.001991619296019321,-0.0019710731836964776,0.03928220815034562,0.049012183914845436,0.05990899075574233,-0.02466812687083634
0.0018122736753000085,-0.010148458735580446,-0.00519321597707215,-0.004498593761793974,0.04134136522025448,0.043583454361073776,0.05870994234670586,-0.023424652386853335
0.00911043899555219,-0.00569785976836533,-0.008437144704381188,7.186602494057175E-4,0.04203980060746102,0.049988484199668164,0.06132979345846123,-0.015142052768584838
0.007990123505231315,-0.006295948312246692,-0.009725784404775652,-0.005261756108927851,0.04181576885161792,0.044194896015931566,0.05265028501458482,-0.027395680543498727
6.128405219080576E-4,-0.013094897251745135,-0.018575866163040654,-0.007707956289948824,0.03845525694424836,0.04612586821430058,0.05425518710697531,-0.02323708934892628
0.0034884966845849974,-0.01849474716898886,-0.013375449227157077,-0.010014220832348696,0.03678546614921323,0.04086790186892824,0.05148252497703937,-0.0344291044375472
0.010023458963488526,-0.007909444786773061,-0.0045569319055409185,3.970764617141438E-4,0.037025407249842976,0.04979806022819971,0.057907366289843935,-0.023433864422833572
0.0031331652834348917,-0.014226312447506264,-0.004437142333176817,-0.008352753140767227,0.03859092235736841,0.04255618069515835,0.05589217515728538,-0.023686039588828405
0.0065580392760057945,-0.02100328903410482,-0.017697116527275084,-0.00682508866413489,0.028171856180148273,0.04367793850566299,0.05039685832803545,-0.03247586251055126
-0.0011493136320112048,-0.025888503539526406,-0.02301490294584943,-0.011236233923263289,0.025999320038299648,0.031807393359010346,0.042717998940691435,-0.04570900746271302
7.920306503727071E-4,-0.017540674650135625,-0.014177415124537993,-0.005642231046638486,0.03159520018222923,0.03878665475280639,0.05303222038834571,-0.023891421073728575
0.001125425414671098,-0.017984143879881523,-0.022676520030142498,-0.012084048489055537,0.03336857321372843,0.03651449801066491,0.04066426495361033,-0.03123141861047643
4.6518434132668875E-4,-0.01977888430911042,-0.015536963965706758,-0.007338674744864368,0.027568574486493625,0.03376748474796736,0.049918499810002404,-0.03329382398170326
-0.004201983093840315,-0.024501513567971138,-0.019173833530669048,-0.01434764836705941,0.02276075177933745,0.03471217144308808,0.03973242503834874,-0.03810665900245296
-0.002159713757010326,-0.023017286726204036,-0.017500409623489,-0.005595326938483256,0.028105569622600097,0.038993234776273415,0.045007038845250896,-0.03809187023774481
-0.007150567123448511,-0.024560882516339456,-0.01856765528296473,-0.0074972522631311265,0.028603574593633108,0.03462439895697318,0.034736079922123395,-0.03041573506212297
-0.001459716167182945,-0.020601269423566874,-0.01564791362663308,-0.008646665352665929,0.030390626817508478,0.029131319905682827,0.044220988730228124,-0.040701797932640296
-0.0013413773569526494,-0.02707252043817035,-0.016122629104399454,-0.016688354028074694,0.018980492068044672,0.030307761431799224,0.03827793044915173,-0.04115441353850342
-0.006705008501100066,-0.03292171129690122,-0.023875448749192313,-0.010063789299008792,0.021094792053795774,0.027054999905614892,0.04189874243803632,-0.04642764638684216
3.477954032945865E-4,-0.025935404295525682,-0.014770229889533772,-0.011887691237664274,0.029282055128791867,0.031572009851512636,0.0408694584877408,-0.032323469608585606
-0.0018896798626410567,-0.030351324033260914,-0.008670713514763569,-0.010520371484023988,0.024042124091941484,0.028036642692620718,0.03817467169383909,-0.03659681350292025
-1.0666812106010477E-5,-0.023162660812623623,-0.012248658542804429,-0.01369216882177449,0.0176846294600496,0.024817018536290175,0.035136435536102954,-0.04283842618248019
-0.01018123164964961,-0.033441450483855356,-0.010761582814282494,-0.010094733361554782,0.02861357097513393,0.023218191533859053,0.03356408173668339,-0.042320708496867816
-0.005725177196482789,-0.027448019877074348,-0.015483712087990993,-0.006197948005459299,0.02653251282768459,0.0308545000417175,0.04078682501468779,-0.03247207378023345
-0.004751292031366015,-0.0291973406176286,-0.01183278201957546,-0.006007225818746827,0.024711666353458433,0.0294829785130104,0.032294923098700676,-0.04082628327247032
0.0012294284202655707,-0.031042523061508363,-0.010498504575688506,-0.005142488432921659,0.02405607109306444,0.027870844504306293,0.04319517880185933,-0.038948404433012056
-0.006726547748785274,-0.034368345345969956,-0.013574757039062585,-0.00870028612255985,0.02440002132872334,0.022254492922084795,0.034913452513255866,-0.0376988811176393
-0.005642828124014604,-0.031688756431698946,-0.006342465040212875,-0.0039100367204011974,0.026347477970308366,0.03150602910209235,0.04104394365490856,-0.036856934102063886
-0.005885894056933714,-0.02543080919674226,-0.012231624022255255,4.1958771700774096E-4,0.027016353305645106,0.02742500083564479,0.03689635058743817,-0.022005960913835942
-0.002653635313150324,-0.024214755641938437,-0.017741963617344782,9.678077779684604E-4,0.017263920862765778,0.029784928737757024,0.044153038486851634,-0.03242777775769078
-0.007676725926747956,-0.03244990157386955,-0.01091664069246133,0.0011651054871071877,0.025126552106253447,0.021213646912230183,0.029435285803608387,-0.03651611541572081
-0.0037023706041633604,-0.029661245612484958,-0.01347808293215346,7.290269504941473E-4,0.023492294777887095,0.02544532252045228,0.043916396866425365,-0.032832563894108026
0.0013690293973054955,-0.019756777765052837,-0.012949915099545066,-0.0034904759467351038,0.029762274401170852,0.024331497151416276,0.03268910825267145,-0.028003597767922446
-0.0015461933055620966,-0.023951677580134924,-0.011962219364690089,-0.0018878605772393365,0.026132019574796272,0.03097977655078084,0.03577119874929275,-0.024918886093517827
-0.006342311647578269,-0.03239378601996128,-0.014463521351526414,0.0027104328000324483,0.020774594109408066,0.02346756479348999,0.03244993303966027,-0.026166462883902716
-0.012927875161764316,-0.034738833141584685,-0.0074804898425311255,-0.0049910173872010416,0.027667016592771404,0.024906051366626922,0.03157607358694548,-0.03358156507772667
-0.002277440619241151,-0.023556074560299234,-0.01253451643736598,7.927137456607028E-4,0.0292500799205322,0.02749426276367574,0.03964456559314646,-0.027060237446512238
-0.004417500045238433,-0.026331158841899818,-0.00941194790464628,0.002074788146526543,0.024836363334309986,0.02940063332336411,0.038336984008409784,-0.027434093410228306
0.004248564234184165,-0.022886308914679278,-0.005470244148385117,0.004034132366655325,0.024466149937921917,0.023690523341698966,0.037811657417033656,-0.0215219571854842
-0.004182416803356278,-0.028302957466357293,-0.011623697763924027,0.0021099734589381143,0.019922294228462416,0.021349164689805994,0.03843517651749099,-0.02686184512804226
-0.003937489543656545,-0.03411306505785998,-0.006792797556429788,0.0052347411603798,0.02437481148247016,0.02573814485748962,0.03437340191349048,-0.03811103956848249
0.005334470014446457,-0.031161393363305007,-0.006567785213888878,0.005676311822420082,0.027546998990390682,0.027285220959836008,0.04186937897563616,-0.020459586590398836
-0.005565820938952684,-0.03155401457900257,-0.004918421604274942,0.003932545717921608,0.026227012857065978,0.025702135213911532,0.03247252333929842,-0.024673493452755595
-0.0034916075001586795,-0.030205747446021888,-0.005306257709980043,0.0016342942359084559,0.024116109333606188,0.024235005049263063,0.03553474541118738,-0.028379804949129422
-0.0033386191475421574,-0.03258244200708151,-0.007085589018891613,-0.0036112004591418454,0.024794010096898085,0.02294304044383588,0.0360299717910763,-0.036691041854030326
-0.006233653296195439,-0.02807939782186444,-0.008300388058746807,0.0038081342114281644,0.02630836356529568,0.02586395962889547,0.03651828041048104,-0.026350062377154
-0.004524711871398091,-0.02643278856919291,-0.004617611537548836,7.838697059967503E-5,0.0293917715156168,0.02712626220502067,0.03548120406469419,-0.023514791673559465
-0.005313393889827792,-0.030312409332448872,-2.106376993742868E-4,7.70755282008292E-4,0.03027884753663337,0.016229368579588836,0.03039003267337274,-0.02129167008482284
-0.005779622806419161,-0.03740347194998604,-0.01021775075435834,9.969015267065002E-4,0.022060528004573112,0.017355659600472223,0.032530204382809645,-0.027035935388916035
-0.007785265256816606,-0.029146117421058063,-0.01913836791061882,-0.005116757822264436,0.01919528080707948,0.016578946221313163,0.031569634855149395,-0.025998681909922907
-0.0028250077351392685,-0.029323007586735266,-0.012659348540598992,0.0014369819945260335,0.02933860810081774,0.02219013896538895,0.038654685868841236,-0.015313968296426927
-0.0010285467678208253,-0.02150859216181152,-0.014346350931879913,6.088538707402466E-4,0.030023141778353645,0.024194702054867987,0.0327058678855298,-0.019168449530697858
-0.0020759143119733923,-0.019577799195601167,-0.007296745756203621,-0.0012795893211673321,0.02870706398566825,0.02101972879418149,0.03487754582710316,-0.02535569509047997
-0.008412459963789982,-0.03215737278151303,-0.01795686443608971,-0.008110308500434945,0.02503455162594523,0.019949469131460392,0.02966092833982512,-0.02691593911059739
-0.006650008575156373,-0.025501806624738204,-0.008912488250256999,-3.898721882339357E-4,0.02876350351093032,0.025107090168199828,0.031265452269118206,-0.020499684857522616
0.002388876143237781,-0.014195067393638102,-0.00839275051655329,-0.002783810837646944,0.02658124070761292,0.01925164783636446,0.039415908905302145,-0.014454908677163763
-0.0023714787035261304,-0.03125630885390347,-0.008118073685264677,-0.001495640559595249,0.025217293266190967,0.013533007470172533,0.03179720146357757,-0.012368982875755474
-0.0035090602917231344,-0.023943252626120716,-0.0060007919915504035,-0.005287824571423154,0.031210962010470834,0.01193673514734551,0.03267711084030145,-0.020851473404718712
-0.004151044717904894,-0.027896834276589517,-0.010680488067383535,-0.010093241122812206,0.02892584509877496,0.012192075510513621,0.026259032431953388,-0.026050927327982143
-3.4006747473204756E-4,-0.019940376308709012,-0.005782968389150261,-0.0038812567706950525,0.023598462014850736,0.019863957071499464,0.04214512639491811,-0.018434879721524355
8.68653901564599E-6,-0.0180033424951724,-0.006956988360101334,0.0029111751399892847,0.031159456966518163,0.01950273348007279,0.029644902839241948,-0.007436425197285085
-0.004269298907354144,-0.022242037912570168,-0.006747902188800745,-0.0050718978765891464,0.029928119271919004,0.012965449507786239,0.030443766821976227,-0.01851115879899779
-9.284948968565688E-4,-0.019099963542982826,-0.014503755653807779,-0.011909252726427861,0.025854749976334752,0.012205976927479698,0.02882857423334482,-0.024036542063089986
-0.008381822104951468,-0.026883750180720645,-0.010342771788758294,-0.004372075673993097,0.02096961827606756,0.014530661076496003,0.0330642864277194,-0.021854561420378945
-0.0010189613488253732,-0.02199322541182847,-0.009525371079549302,-0.007993092596059246,0.03094469473629346,0.017880241424078507,0.028617177651526833,-0.012985869749007888
-0.002075418016022269,-0.020912696659440472,-0.00316111588757554,-0.002828591250163536,0.0263517975428839,0.018453651987786958,0.02506406148717102,-0.007558006216518104
0.0023245660016222936,-0.022832849137551486,-0.008587244043978018,-0.006071050826161559,0.02518025158922687,0.018516364547689654,0.03004126313043416,-0.01659663043690248
-0.007978019381672183,-0.028320529440439127,-0.01579804287936764,-0.011270040207871668,0.025521380789320793,0.01688023005831848,0.024301545840312695,-0.022352580787546174
-0.009878387431864323,-0.028353933123104413,-0.014280840021167777,-0.011209385548245208,0.02963266420764857,0.014813779139587915,0.029261990122271538,-0.018211017051669113
-6.535165047222891E-4,-0.01914963603893616,-0.007569100038698915,-0.002644111629206544,0.03248669214605294,0.02258281068658331,0.0351250521344395,-0.011712918618121917
0.0038347157153708292,-0.01787526805232809,-0.007649596382832909,-0.0023901481181810634,0.03005267340514001,0.02198366989926833,0.03351477407139429,-0.01232075096046038
-0.003979718672747756,-0.021043663793409093,-0.013957698186890124,-0.00570274233990126,0.031539064016230293,0.017328143206105085,0.035759392615240575,-0.025572278999261795
-0.007386283402793561,-0.027853250072444442,-0.006919323349254678,-0.003955496393615491,0.028369787353562423,0.016186742489315814,0.035645887353133794,-0.024112441165346037
0.0035655549304094043,-0.03188300792123511,-0.003368021735200054,-0.002649192417330453,0.029961809441006376,0.021459833156038822,0.03308308340942657,-0.013217872740888112
-0.001956849388578911,-0.0179007724627585,-0.0013518671690166144,0.005508040828977528,0.03273490627585598,0.023460971870136977,0.035879786657316726,-0.0038952497235940214
-0.0030750639202142883,-0.020302062920355076,-0.004049774389203354,-5.892492927855827E-4,0.0364868910466048,0.020445122431231297,0.041239197395052794,-0.006882092805735882
0.005073838389084233,-0.020464426128020265,-0.004540124387282018,-0.004143400164295623,0.03389725721281619,0.02142879381900475,0.032990119740471224,-0.015692301683854527
-0.007415776408311602,-0.030906028394287063,-0.003197025400030081,-0.002804550883171023,0.02436118876947061,0.01910311196546302,0.030124895676540312,-0.011391742690266191
-0.0013345960706790823,-0.022262881172001602,-7.164073839648052E-4,-0.005811813309019564,0.02684615769107731,0.024824323010897254,0.03277826890132739,-0.01659779969646077
0.0015298776897344321,-0.010524198903818453,0.0017303471516832989,-0.0028576510616015087,0.027386015077184123,0.021414172754116136,0.03738121306307777,-0.004829106883409022
0.003386604248441179,-0.013931684889979966,-0.0025604061164682785,0.0042834077176737515,0.027801412194493818,0.021987780220698527,0.03063064081004242,-0.0060771721241109425
-0.0026445883799059012,-0.02102709298056741,-0.007539746549566345,-0.0060931085765718795,0.030850158350391326,0.02426132252610526,0.03287989258497352,-0.010314422750041035
0.007452410720252313,-0.01985655907018417,-0.006443213382310383,-0.007026409529250668,0.02847192578165469,0.01971813692453128,0.02261365843705106,-0.013939246062450512
5.541291982026958E-4,-0.01807696284748068,-0.007212571613500612,-8.972116015693711E-4,0.03241825173327375,0.020433397515237976,0.038536113898726965,-0.010932603781897308
0.0017817874097870107,-0.01857554515708557,-0.0044978976494036895,-0.005080195423481095,0.03381754827171816,0.02730089317295579,0.03587526988942173,-0.008147676649496442
-0.007189619647126105,-0.02467807656258516,-0.005903268564374984,-0.002575921689214438,0.030640429537266672,0.0247859403749256,0.03497977048980167,-0.01133822855571349
0.0013296734630536232,-0.02430099573680155,-0.006435735568188774,-0.0029581115580379997,0.029102349588679313,0.021174562847749403,0.0228853570442473,-0.0194053489717111
-0.004564533908948439,-0.03728551538979194,-0.00470624176674011,-0.011677417531295793,0.03282664416638978,0.02196433102981542,0.03029254633549104,-0.01827278803737242
-3.4695205932443597E-4,-0.028846320685787956,-0.008474605184473953,-0.0037953164115970494,0.03919314225760055,0.02283463155526645,0.03576438767961056,-0.014135134177647264
3.659544631364052E-4,-0.023008747447098788,-0.011559350463992835,-0.001108630332011511,0.027612292424959658,0.024627727953269327,0.036179514657079144,-0.008203819517262444
-3.8894428163073285E-4,-0.02327720525235227,-0.00830026220123885,-9.616436100193753E-4,0.02785202233544901,0.02577359093568061,0.03480853015803994,-0.009233776019281409
-0.002408682431062519,-0.03363315127058822,-0.006326192737900673,-0.007821746335372947,0.030314183391088257,0.020979540332769903,0.03602047173421002,-0.019488416087162796
-0.005931097019907694,-0.02278349391676349,-0.011486332961103744,-0.002797525871204477,0.029374682666148778,0.019430648386700472,0.02900644494181053,-0.013161801648753472
0.0026944025408739292,-0.02599053726001067,-0.015031867483546929,7.879549495875151E-4,0.033261291140154574,0.0211708344235976,0.03397349377299689,-0.006484862685501256
-0.0022532311880226223,-0.021600144136582983,-0.007626822300310119,-0.004240943043185149,0.033188032252569125,0.02474229475233103,0.03986004741888355,-0.012876829719398497
-0.003519204038715998,-0.024584927780542446,-0.0027719801737161385,-0.0031057124817482156,0.026674360055848292,0.02490139724421925,0.03492713590894819,-0.012054775537650426
-0.007046287738660787,-0.027027300939105412,-0.013472841558387296,-0.008903544192478723,0.030200188565004123,0.021719407048218727,0.031127658798616006,-0.017540675436223136
-2.2766016966672219E-4,-0.024920770982019863,-0.006468214599163691,0.00101812623643885,0.034236744513236696,0.027977853016106783,0.0435589943581286,-0.014909943582289018
0.0033060057769186304,-0.019261939641822053,-0.009856584424888277,0.002990005266862902,0.03340268798034928,0.02956378888171437,0.030798826966166166,-0.0050197327114561005
0.007340169166794467,-0.01891654970146856,-0.0017400563854035275,0.003095343645027933,0.03230306464440085,0.026056629275147267,0.03300658980157436,-0.005498268500867551
-0.0012702474014018,-0.019272121336138846,-0.013688685163847929,-0.0018787715171595543,0.03373228293801487,0.020837214793150826,0.03648718130869766,-0.013601361581215552
0.0025142783003113535,-0.022545804160620398,0.0026314195620997603,-4.3547825120657883E-5,0.025693449737724975,0.015649013908241746,0.02608401804660792,-0.017864870547786817
0.0028407547327405944,-0.01762463384364514,-0.0028550634588788227,9.285541485530129E-4,0.03202575691583748,0.024275198391913867,0.0367095019947086,-0.006093377768758444
0.0012994522269249996,-0.01894912460912738,0.0010832538921375942,0.00658464684277045,0.027503329551814018,0.01894842443493234,0.03757071362791646,-0.014201637102111347
0.0032994876940467687,-0.015741590519056606,-0.002796554927040449,0.0039621801121403335,0.037098017611804555,0.020889297465087813,0.024220406215499125,-0.017346595969888245
-0.003178094560091192,-0.020476998248142524,-0.012689434550002083,-0.005849860042780298,0.03357087770243563,0.01593378505079928,0.016187284779525954,-0.014247270176714797
-0.001985351636106503,-0.021453740181305057,-0.00496941633708438,-0.010331362762671176,0.03408243694332,0.019141691559218604,0.025156137796887804,-0.010436471413907366
0.005605354401593083,-0.01312780358102883,1.3591765583232198E-4,-0.004250584549963305,0.03045120243169735,0.01689049581900785,0.02648449050270254,-0.0056677159149773355
0.008880629844227729,-0.008278939370450369,-0.003019458172923812,0.0022344257475024076,0.03016929440313376,0.015398068683614341,0.027553638501483044,-0.012409959059949906
0.005096460376519057,-0.018532281470961694,-0.002731776179498691,-0.008113969517302356,0.02732541856953791,0.012817440514867166,0.02038910648389397,-0.018765982117232842
0.0010924011254175583,-0.012986978493478615,-0.01554598685030869,-0.007537988091708377,0.02713332245494087,0.009105762982621831,0.008356557536913355,-0.01782726050798689
0.0026547073708198267,-0.01566272555209197,-0.003169801529475892,-0.0019805492050570138,0.033441317770170245,0.016824713254066048,0.0249100403367241,-0.010027927451543638
0.00828816848386544,-0.018065307801360297,0.002146919739815208,-0.001973276574985239,0.03504626061677256,0.016443907235179897,0.020093598187202695,-0.003943602400385517
0.008176863751368418,-0.008504130607057212,-0.0014991928571992143,-0.004790294574701865,0.03176500341839609,0.010512136361789852,0.016087434252664307,-0.004858948229493883
0.00988249097492415,-0.026611383338515007,0.012258714657084953,-0.014881624379702961,0.02475986130017439,0.006743392767808104,0.013270660878925554,0.006527180843590064
0.005418344545801498,-0.02755419934075276,0.001198982060406655,-0.010412130874726248,0.024874674256693655,0.007404659506028416,0.016424809134784227,-0.003082013206316643
0.011021930413086082,-0.01355911366418522,-4.905144589744856E-4,0.001028082175358574,0.02626690747189482,0.009316454076978996,0.020958105246324597,0.009367598735958028
0.0073300637033336105,-0.008539642689162835,-0.01020501981439954,-0.0027316545412665615,0.032545793518490344,0.011014077519933881,0.01776685215716449,5.450812375729322E-4
0.004519645962083992,-0.003044364642881766,-0.00948088961692062,-0.016350594888244873,0.02722638613152404,0.003459779255638552,0.020274869690292227,-0.007969795891333668
-2.081981223897038E-4,-0.018507115353193056,-0.004914710068855005,-0.016376588147666685,0.024618217960358648,0.007549399748730232,0.009240060814263398,-0.01888218146171376
0.0036681768114538043,-0.014187973714585776,-0.00564009645120007,-0.015174620002159522,0.030520581792351203,0.00414514263379466,0.015165632193374311,-0.004943346745583233
0.0076670914888441345,0.0016290296274126268,4.4470182331619564E-4,-0.012953614089969449,0.02816782356160225,0.005923392493538585,0.01211821575358296,7.669337993287291E-4
0.009674348633625963,-0.007940430760622456,-0.005229409559218208,-0.012523811151285568,0.026527879153751106,0.009989111388461511,0.012096418491136808,-0.011606012875709955
0.0011340518266503442,-0.004247367251749978,-0.012942160511598048,-0.018335615537367515,0.028948751049852454,0.0014491464509569026,0.00678862033039658,-0.014883147150576797
0.002285878287873623,-0.013616765838235447,-0.013081097592063006,-0.021029335641036307,0.022508813465496564,0.007508274051230178,0.014885056518952573,-0.005373763010464631
0.0017694532183177606,-0.00268211076290334,-0.017600093057410525,-0.01013937295346608,0.028510785316900787,0.00764322046012024,0.01654451487134512,0.003900506468916205
-0.0011991237996984766,0.007887883757251716,-0.01962046047436109,-0.01720658067763962,0.028344171513149538,0.0109382059852091,0.010811090463421167,0.003054317634001521
-0.002982403167369672,0.009632729731090812,-0.0159925583668682,-0.02032367161118589,0.030101677795620167,0.004987013168283332,0.009829993325450733,-1.250504586896456E-4
-0.0032338538514957984,0.0050711295432086766,-0.03233479962789886,-0.02418763284082063,0.02184183188235398,0.003910282052462607,0.00682822684744759,-0.012061550431840703
-0.0025780342448574406,0.01772891720653363,-0.03011501589639238,-0.021848653311481416,0.0327607610738109,0.016255288936842027,0.022379615792800286,-0.015099604967879104
-4.183608989358148E-4,0.02833006450295918,-0.03422948109735339,-0.022862329746079525,0.03175929113978659,0.014074415999991667,0.015475383428738887,-0.0051030463385963514
-0.0018245711001578385,0.012757978293615437,-0.03502590103914018,-0.02093543885108098,0.03064656305668543,0.01259957428163944,0.015780037058596364,-0.006092960933466328
-0.008481314895455838,0.007335081609664454,-0.030190900487498184,-0.012797693198656923,0.029146163955047686,0.009382986269765484,0.015627365229929496,-0.007446543354845727
-0.001710826962425536,-0.006466457925937534,-0.02624718584457821,-0.018215218599313607,0.02832789194892099,0.00945212061106952,0.01931657783006756,-0.008219603290590802
-0.004681294130646142,0.013147576513196398,-0.02443583795120189,-0.01573534944112471,0.031119393254203678,0.014700382926206639,0.028083425349323357,0.0020699856186260244
-0.0063474324806623355,0.01583167505516268,-0.027500850210394487,-0.014698448966068754,0.033298108322747634,0.012850509443753837,0.02249813280470795,-0.001856948417330985
-0.0014613437927769241,0.006204612459167332,-0.02177191978604853,-0.01614522585114428,0.027228175925600055,0.011655242107551346,0.020599945543627637,-0.0015718285543972668
-0.010486926268613337,-3.775649360244996E-5,-0.033573321883571525,-0.02170334667993742,0.026816680326298498,0.012538168269367378,0.02116061515744389,-0.0070728906591698325
-0.008817743043170756,7.681314591593502E-4,-0.03424655808703951,-0.00966579798803404,0.023257461493490224,0.01382111490749975,0.020872599848734998,-0.007357131827375455
-0.0020143727277324645,0.020073840194113388,-0.02038747410137922,-0.012640523594587203,0.025514285694182282,0.019434388063574035,0.03310890650963997,0.006785696012636664
-8.414857829997427E-4,0.015777650166276948,-0.025379084991578857,-0.010077951819673482,0.03054291324073541,0.014758867560077016,0.028454468107478714,0.008499913313307971
0.002462079018323962,0.012141000577668567,-0.026875444108993334,-0.012137377366889239,0.02924415986047706,0.013067306131881557,0.018311193862767812,0.0062765361901716615
-0.004598838976877023,0.004278396763070646,-0.03670977717935671,-0.019622964414766738,0.02061172327148217,0.013185827810092718,0.020245495687869694,-0.010040272606419189
-0.00800604086440228,0.00422522968259984,-0.0301000919379034,-0.011153609380040251,0.025929893995038214,0.019292230584852486,0.023979385891088775,-0.008905257665499699
-0.006853218551374409,0.015103193078521473,-0.02438916635719108,-0.014841755724972145,0.02898820732709701,0.01773400140802793,0.02462008154956424,-0.005882135556765653
0.0012696929511403184,0.01403467536037557,-0.028569752760524175,-0.011055664103146515,0.02956344161971087,0.015932867059777155,0.026896720473763427,-0.004959311142680321
-0.0031939636703667584,0.007979812993358475,-0.026762157052885035,-0.015371511525194906,0.024585542166186348,0.01067669504202062,0.024539863939963345,-0.008263992064665155
-0.010498084995581818,-1.6646575594996425E-4,-0.028213861994903482,-0.02132036613549541,0.02142683425009902,0.011341417619109232,0.024097418994468947,-0.012390605029911862
-0.012383696283983506,-0.0030821301670753273,-0.03133725222432769,-0.018992101839526366,0.019752709955732483,0.01664184086396992,0.02286282938158502,-0.008715288106888278
-0.001977398021704952,0.009678915080680587,-0.027254220272019198,-0.009510059168682439,0.022251332387100795,0.016249899846295723,0.028078669447011245,-0.003332813189214046
-0.0038604120660482785,0.006760084791440837,-0.039844992422790944,-0.01490611664553786,0.028397283680283412,0.02000918796233675,0.03146187803031235,-0.0026644357301538633
-0.016324730724011652,0.005140987323336988,-0.02558836999479394,-0.023142677320851925,0.017830355363073768,0.014939540473656017,0.03243434933137088,-0.008861949025682858
-0.017886730292580734,-0.007289588864541011,-0.03497781085462652,-0.01830460463946631,0.02205746889985333,0.022298052320521428,0.0309366432956937,-0.013591743629112352
-0.019748613307384602,-0.00954517291727802,-0.03673792652707134,-0.018601730483894175,0.025860253372484036,0.01821604098306394,0.028313757865337835,-0.013277917651186865
-0.013437514053064292,0.0028684839549320187,-0.017847196510949067,-0.014199081157202264,0.024164850652584738,0.023626707768518898,0.04289755126623948,-0.004984910677297347
-0.0034687005406199923,0.004734405010713316,-0.02315381797197619,-0.013802209067197369,0.022943881699378627,0.02087581222003834,0.03611611727412333,-0.009747328895215334
-0.009770026750608415,-0.005512143129131474,-0.030519544195532548,-0.02021976633313951,0.027461971924137334,0.014208101371535333,0.0341952003882286,-0.01213958412819251
-0.014981106230386251,-0.008492585142290936,-0.03713717080603688,-0.02233358901952584,0.015531069421981717,0.01999623126235155,0.03624931849957101,-0.014608347785524323
-0.01726594393789667,-0.011759216861562147,-0.039424024046595986,-0.024801447114956316,0.022936243101359312,0.015467099469672129,0.03482925572433968,-0.009606579792199942
-0.009758231330005205,6.737407095428167E-4,-0.02420922258537876,-0.011117121528251181,0.024716563112398525,0.02057413982179736,0.0438144065471365,-0.006902336266530425
-0.012219881030003673,-0.002712726776073296,-0.03181518721807162,-0.01265203108597902,0.023961320076325836,0.02375182915656239,0.0398993402289111,-0.0023969527172267736
-0.01465946121383308,-0.004466014493200546,-0.04362822550944209,-0.018935220270610197,0.021547300657994466,0.017888173764694395,0.03623198808657758,-0.010202848514130692
-0.01465532258106524,-0.01092044963068624,-0.03334371266610615,-0.021415506744042884,0.012014996579419223,0.017001045466332926,0.028388928638953023,-0.011914426008123999
-0.02050772462848627,-0.014611432639205547,-0.03047392080325246,-0.022300794563769433,0.020880480028438102,0.017918165006349244,0.03322194330329475,-0.0011645241798157754
-0.018500231813277396,-8.951920540223858E-4,-0.032148749977710736,-0.021375706758143147,0.024137077030302066,0.02344318675634678,0.036673213040393546,-0.0012681120215056344
-0.011295430361197808,0.0012494252111246403,-0.028421402147156757,-0.017314371161967018,0.021064904236400322,0.022670697215842864,0.03267660551421909,-0.01108512631312919
-0.01727305894976513,-0.013527891694458933,-0.03734369208540485,-0.024858216571428157,0.021000328133324444,0.016181349685191602,0.03043320806592291,-0.008501343692212391
-0.020555760811597504,-0.014023502561157884,-0.03572937062116708,-0.02559478539212284,0.01910401445544945,0.012609108099196017,0.028441944140015038,-0.014522959602709716
-0.018795416250182537,-0.0111879963166027,-0.02733764781015994,-0.0160931851100209,0.01971238643151061,0.017941849658114038,0.029644295862645376,-0.004849306455250278
-0.00934326091213218,-0.009308869300501033,-0.03516098853972862,-0.01847426274987252,0.01778208576848629,0.016143739434465704,0.033076426974683965,-0.00726700311859838
-0.011179342242482397,-0.005564980147955754,-0.03954592417039287,-0.020898968295853422,0.021128135328546113,0.013278789210234974,0.0260060311993186,-0.014964292792216265
-0.015853328603803323,-0.005786627944956805,-0.03518910898729823,-0.02536442433917507,0.01980198413347348,0.014996148926412232,0.024374926643200696,-0.0158327839743781
-0.014912108777579045,-0.01728447555617983,-0.040210595360066305,-0.02152155513463892,0.016966088295630816,0.013732232492027287,0.030615684697680216,-0.023394615826804764
-0.010205459666700192,-0.010318729281571532,-0.025470804413943355,-0.015317753834944488,0.01863541676092584,0.015816264367350258,0.031139886835742772,-0.01315797880239208
-0.011991598025320712,-0.003737465491388351,-0.03359988755183781,-0.024438113010890675,0.024325688936370802,0.013591395626576614,0.02778221278491867,-0.007142511644747908
-0.016787567283808397,-0.007024893423445599,-0.030637239367648533,-0.026967348881106634,0.01929094594618573,0.009663024806053343,0.024485942247728498,-0.012440094862424292
-0.021901257646898403,-0.017528190539644255,-0.03960904459406239,-0.02974395645160356,0.021195757684863092,0.005517801847308185,0.017725626498858265,-0.01130649852721672
-0.01400420098239109,-0.01875097316174419,-0.03414232661168002,-0.02402361423951122,0.016064983632029718,0.016068910715485493,0.02207126527790154,-0.0074406086415433285
-0.010535571913924147,-0.002168544189735963,-0.03170037411001643,-0.026227931025221966,0.0192852301964372,0.013351407689125868,0.023284689455947125,-0.010648867611627836
-0.008903830163465538,-0.009156825053808933,-0.03455111008172507,-0.01906842520292797,0.02183947870551125,0.006745098957812584,0.021019396318012522,-0.007182379408301005
-0.016859445469253647,-0.001939623224154092,-0.04360264540997082,-0.026978243351429027,0.015786470968403698,0.001375284848052291,0.01181422823079535,-0.013684217171019317
-0.01810592855879441,-0.013417604262821738,-0.033271529050279185,-0.03297414557826871,0.016128069602031597,0.00393022186814745,0.009994440422145487,-0.013771608006832676
-0.01561232652546777,-0.00672830637041217,-0.03910279513845737,-0.027568651769232747,0.025226927845459452,0.006257421248466952,0.017309477347946096,-5.857443466055987E-4
-0.010699348350430255,1.4891588673000285E-4,-0.04035257326927073,-0.026731666251617544,0.020486587995022787,-6.949680881800583E-5,0.016488522005126016,-0.013847378691091457
-0.014378564701222911,0.0017014378213106901,-0.03989166009985147,-0.030064284874786962,0.021108752230333115,0.00523388488513702,0.006453687917978447,-0.011645662873781798
-0.01580789799045667,-0.007361950104836189,-0.03465579471875158,-0.030142318666819663,0.019495028312321628,-9.855264878343437E-4,0.011736867191247637,-0.02714225065047976
-0.00774386617404007,-0.02215869389826243,-0.026139327446569965,-0.025693842446566317,0.02367849637968357,0.003988636221609431,0.013632883441879707,-0.034476591256809484
-0.0023015497442807277,-0.02418878342002432,-0.019835975933624107,-0.016093107616681375,0.019594947491336712,0.006163835220014497,0.01341094314716697,-0.019497337663546596
-0.009924584212089157,-0.02747383426977499,-0.02065844931263681,-0.027567027517132865,0.02611049923041113,0.004382581374783612,0.0146185283742278,-0.03368468909527975
-0.007910562112153036,-0.026951619253581877,-0.02509927757941907,-0.029962481055404968,0.022557760588175397,0.0016286443361631252,0.014543358311344717,-0.029865751149103635
-0.009106806067360093,-0.04003800205530671,-0.017625478451763665,-0.019494092012483026,0.023859012819527764,2.2725057728228355E-4,0.009916132133047435,-0.034908554570221115
-0.0024092794765410565,-0.042519484778276474,-0.008055771876748835,-0.021561274887346382,0.01658762793344356,0.0036167687340440736,0.01209091418733692,-0.022743206871977364
-0.008943426481040089,-0.0354300050537827,-0.011930716486033225,-0.031529279443218074,0.02809655529892042,-0.0074023356010183925,0.011643820340507885,-0.027061946416225384
-0.006162724539188303,-0.024544632091079512,-0.018718535234512616,-0.030434041140579637,0.01692581265647163,-0.006584195360052881,-0.0019356006167182617,-0.026117137824026686
-0.011505973610043681,-0.03374209144196958,-0.02910225362329696,-0.03241776028393403,0.023486414142801684,-0.0029578661353788826,0.001645808786966675,-0.027746862782557086
-0.009729473769450669,-0.025741501426151992,-0.02052075312825299,-0.03055665728087877,0.02672481749768807,-0.0034464215292101257,0.008769928947207713,-0.02776217543237517
-0.009530569884584785,-0.002755871149185617,-0.0323115832673112,-0.03245308355947589,0.027244412703485647,-0.0053811293518831686,0.007650642518591597,-0.028573858146013844
-0.009818066900871003,0.018978772866153626,-0.04250597819471966,-0.03817918282073208,0.029878123987556772,-0.006990949122049066,0.0011761644143471798,-0.05866313479246646
-0.015415843718977553,0.018342730851358853,-0.0665752133244849,-0.042826002482165275,0.028017840956679963,-0.007704106351440639,0.0054334806159855266,-0.06862468757643196
-0.022199700343558663,0.024584866107694416,-0.07902824735183227,-0.043721562917304425,0.02751635530751878,6.888125989629418E-4,0.0120513541543311,-0.0958345300487689
-0.01760524478771681,0.05013181401887402,-0.08726231867400273,-0.04991300307204353,0.029339177035385897,0.0024207720772802866,0.026237469100640252,-0.1108635569487359
-0.024070039721004532,0.055686970465712644,-0.0987971746872841,-0.05562294500261625,0.036651894495509235,0.003871584485901165,0.02295697026922745,-0.11702350720176039
-0.030410982618800517,0.05412159338656064,-0.10624688309344452,-0.06419560637208838,0.02594106544787422,0.004760009720588302,0.018400389236609832,-0.12700028929675194
-0.030900149119856737,0.03878416638247753,-0.09814419006457067,-0.06324687050092541,0.02975525281116332,-0.0024473565921625134,0.024371518813259614,-0.12427016327580886
-0.02088648703353223,0.04071909612910216,-0.08880268694870617,-0.050966879514001924,0.029876003144321345,-0.004112565641558499,0.01682166526121399,-0.09630622551365219
-0.016940277132825855,0.017498633055762727,-0.06857197710178706,-0.05037788310942199,0.030902945509052333,-0.005022911101811471,0.005236777352320974,-0.07595324355788347
-0.014658241412769703,0.004117182225490184,-0.04061281674133509,-0.04376109635330773,0.01758933562492975,-0.012702250381342694,0.0034285347883628043,-0.06102043593928004
-0.01783947269251972,-0.019433308018540055,-0.04840474994311842,-0.04905781090135047,0.022717031775607185,-0.008616978770751642,-0.005049951245789635,-0.04600274826424504
-0.009835414722842528,-0.02150414224773943,-0.031583458390728465,-0.04329629737846081,0.01583055970638914,-0.011211866243507536,-0.004967387454651325,-0.04440054359758621
-0.005950758814816618,-0.020782182368150538,-0.026354292326753608,-0.0383283107223209,0.018709806357041787,-0.011629129918975457,-0.004930164645861366,-0.027848511472869392
-0.006690081837430286,-0.01758440114775327,-0.02029610564387568,-0.041062139159303,0.01957042291091486,-0.009700938734505445,-0.010620463321701752,-0.028628235427271723
-0.015532927736173086,-0.021613650776201736,-0.03165790764114121,-0.046415234993114375,0.016022999837873246,-0.01023012845695286,-0.005575202721016341,-0.034398420471898686
-0.007629542516205609,-0.01674726776691057,-0.02416404902757242,-0.036449752235318836,0.024269149880618446,0.0024325717390922597,0.004314744763451584,-0.02198090989530708
-0.0015338905859416828,-0.013429134449691066,-0.020461844956216065,-0.031615075719923114,0.0286924176920326,0.006092938479055439,0.008492003596464064,-0.009687907091011947
-0.006410135072738404,-0.01703813250389385,-0.013922734926001476,-0.02461439251470768,0.025810438599469965,-0.004082883201301604,0.010132908338305815,-0.016625601432595255
-0.010442852722616811,-0.014996245000346483,-0.019525483561865984,-0.03475238640223028,0.02961838079172196,-0.0010308123667647337,0.006617231235862411,-0.020685720954954846
-0.005114924342429329,-0.015723271785433212,-0.024683496335412017,-0.03482524116494438,0.026149590083893236,-0.004995615310496781,0.00884245700079076,-0.02496544242795585
-0.0043635209945379165,-0.002749552474780465,-0.02771092425200452,-0.025180413894810696,0.023670337242596505,0.0032824716590050215,0.009358610536214042,-0.01844429841389986
0.0013239212916530028,-0.004183065815400846,-0.026477732992176973,-0.03004345029549544,0.030399370005153862,-1.586179773944102E-4,0.013012514859029713,-0.019554683479307774
-0.003683355748582427,-0.0071300553153237954,-0.026179624734345795,-0.03904043685217211,0.02701423249131769,-0.004192722806174579,0.0027669000324619703,-0.02274740461770397
-0.011711604308624963,-0.010597532765257888,-0.028139667675739978,-0.03350288376676932,0.021419380379887297,-0.003740638001174559,0.0017960569552743035,-0.03039965527126951
-0.00568311926241904,-5.5764051696498E-4,-0.023997766875688768,-0.03158597062374829,0.02624857645171997,-0.003970983971119637,0.014328011329662996,-0.01244623414996833
0.0029583069692875824,-0.00829678134216302,-0.017920268553299163,-0.03725059811402102,0.02632077914200214,-0.005161773746063085,-0.0013009078600466027,-0.026207196975955187
-0.005005645939147209,-0.01843297748762603,-0.032055173558910625,-0.03736231817972463,0.026691245432390195,-0.00999307781014106,-0.0012198589168562104,-0.036488821367699244
-0.009223767616162906,-0.019987022930504063,-0.023552682437594324,-0.037272968180795625,0.015494913818606227,-0.005897124583950277,0.0020039398304047412,-0.028262682363306833
6.945204922548287E-4,-0.012220824197985739,-0.02108451106073907,-0.03284545571916328,0.021086711323820718,-0.0038776669800724963,0.0057896891542743335,-0.027703550520834896
-7.045154199872412E-4,-0.0067261822666954355,-0.02265436472384887,-0.028262323397934774,0.021522081975018276,-0.007860684622131988,-0.001003930836847702,-0.028925865325890997
-0.005467852306741305,-0.019181593449332318,-0.018548889592186736,-0.03389862387689671,0.022166096620670536,-0.010681103526375215,-0.004404215737762869,-0.029028290011387407
-0.007135847477588088,-0.019486644878494854,-0.01573791307167828,-0.037454282234385954,0.022286502487149466,-0.00908898535068664,-0.0035513211072796184,-0.03349669686679593
2.949755277414767E-4,-0.005067397839935683,-0.01409375046014686,-0.020398722203750615,0.02349624913831279,-0.004731286078140371,0.0012297721412950714,-0.021095318505354975
-2.654019011241994E-4,-0.007290747660815437,-0.013199622165936797,-0.03152673539470652,0.01655419174850268,-0.008038495086364544,-0.006738007710853448,-0.022187457931572195
-0.005248661697951378,-0.02092019585003617,-0.016119808022530654,-0.030954072526493303,0.020074041390028798,-0.01057661331140555,-7.682495680823185E-4,-0.02898001260405548
-0.006201547265943661,-0.02558133057414475,-0.011082827509348405,-0.03368600135788021,0.018062309100785108,-0.007537018151430262,-0.004940423237764598,-0.04036924853556655
-9.313583099406188E-4,-0.007456298134206174,-0.009144894515227053,-0.025331360585782153,0.0190840293014517,-0.004586026180961419,-0.0014495123615398235,-0.027901658324981017
0.003275432113286922,-0.00907130003452158,-0.01370015637858254,-0.027574642170492783,0.022328047265544604,-0.009665538685087884,-0.0029064589837734405,-0.021162174237118893
-0.002755801225884391,-0.019680385144974423,-0.013627046882052261,-0.031215314434473326,0.020542723638925852,-0.007927025491111569,-0.004466949249690077,-0.03596683293804641
-0.004930344671910321,-0.02810246105896839,-0.022409331217022137,-0.03068770575446753,0.018517182076049247,-0.006720819516581754,-0.004836225225547725,-0.03672727748885491
-0.0049869108070774455,-0.014142055681005425,-0.013296002329648825,-0.02453849805113667,0.025099545367030022,-0.002856351694648318,0.00732541703143734,-0.021920320390616168
6.095276937290125E-4,-0.016206846473263852,-0.017051254024246135,-0.025168820592959676,0.02356031311538775,-0.006606859988337538,-1.2789851515832484E-4,-0.01930700757416791
-0.004194232075768194,-0.01601055768129438,-0.015139430703588778,-0.029664736545101253,0.0213378447211615,-0.006531877665718977,-0.001255727739312891,-0.03068865747573482
-0.009292535223813259,-0.03252205821448907,-0.01266041417689723,-0.034034935731228205,0.01839803224748684,-0.009971181841924656,-0.005120605924571723,-0.03134325820384215
-0.005728179154016871,-0.02122034001249725,-0.01058713374615606,-0.015979899001137287,0.01944143279358434,-0.002726134299838,0.005569762716626949,-0.023412178629927404
-0.006616660455205477,-0.021676429478740378,-0.014298177134723549,-0.01774151216431321,0.021446402324226295,-0.0017713589416215045,0.011578469875661886,-0.018975081795402984
-0.005456661142210825,-0.013392512140494283,-0.008809550603204281,-0.02382670853840565,0.021289596984335676,-0.004996961302070004,0.0043150743280309335,-0.020231876505811607
-0.004969275530193336,-0.026149907565942116,-0.013769870103155394,-0.019581677801484742,0.018214300571976216,-0.00930681172349175,-0.007527701712033384,-0.02764882834911661
-0.011552702282483776,-0.02969473470213961,-0.018975814165292145,-0.020502328875980576,0.015301160293040817,-0.0057997453761656406,-0.00602269352113073,-0.03284712966332704
2.1888545753368915E-4,-0.034258843941243636,-0.011240482370923583,-0.01809533069466555,0.023946727586588258,-0.0022461967801050324,-3.326092649960512E-4,-0.017521179098816553
-0.009894574482418884,-0.020564914971526262,-0.0075981637124257154,-0.011297979677574338,0.014043888297865176,0.0018279088902744358,0.004523884972690398,-0.017947820610182363
-0.002905225549407483,-0.027048218201228262,-0.009855310219328232,-0.015499520573673094,0.017567543072192823,-0.0037375908280186027,0.011838744201436996,-0.024292824123423044
-0.01303093746729056,-0.028456768803933524,-0.00831774569895397,-0.017648598886690063,0.020940881019527645,-0.0038920315853969278,0.006654017397024923,-0.03386173279308461
-0.012114370530910717,-0.03717186406308144,-0.023164951468951957,-0.018531337367253844,0.015237315286248778,-0.003244650469220937,0.00681073682489997,-0.03297019107644499
-0.004522676216510676,-0.02990502857298699,-0.005808538252492809,-0.010353421768690895,0.01967435166923836,-0.0019296656335519731,0.010358304494983947,-0.017807983810837154
-0.003185578100459754,-0.027225069891120213,-0.024661049343065938,-0.013589001653800578,0.013469017087000735,0.0030601687085501576,0.012426666412019963,-0.012912194969923034
-0.008345161625599406,-0.029269247648048512,-0.014298707136803175,-0.009189811274413089,0.01791783982800544,0.002388473910395147,0.006302198814793317,-0.02329803878599931
-0.010505572178645194,-0.03446996953821044,-0.009506124160158358,-0.016198459194964408,0.01514760511625102,-0.003988887068705593,0.0041162611535019945,-0.03043086702944469
-0.016020776115239055,-0.04325069758011479,-0.019317761747854156,-0.014065324203825783,0.00767518709298178,-0.0015703892196257876,0.0030907329925815435,-0.025841710544178314
-0.015551381681954345,-0.03307794817553471,-0.01686417994589026,-0.019465890041850117,0.009367027225143347,-0.008633609428707884,0.003186659924480529,-0.027237229130482928
-0.012348524273842965,-0.03756472631431765,-0.02226595694973614,-0.015398814950524505,0.012470970146687608,0.0015022312400246325,0.008535889943127144,-0.026379224915544272
-0.018142047542800646,-0.03382781653770604,-0.018409617544563158,-0.021447044500071812,0.010580633301251936,-0.0020475762410589065,0.004089665386356644,-0.026335935941087168
-0.015350027850153592,-0.05212121736173782,-0.01580148288380093,-0.018239381269860876,0.00663726036007768,-0.002087955350766099,0.005814087261526175,-0.03776115021551264
-0.010851333039006088,-0.04535680634382655,-0.02033658915957073,-0.011931382798789424,0.012805209732450081,-7.670204841642304E-4,0.013383064457081612,-0.027142055082764422
-0.012279549008699799,-0.04830327896170696,-0.021880339882871767,-0.012651993168142651,0.01460012817001805,2.0847788332838542E-4,0.015512144649770949,-0.024471272699731886
-0.011341846449024506,-0.03844620249669464,-0.01766132763603402,-0.014892127823167583,0.011291696325452448,0.0038364898166657188,0.009424494164079051,-0.026156756823695948
-0.016628491647427246,-0.04098673335945027,-0.020601437490612058,-0.01357180119948065,0.009074196436935505,0.007080548316556148,0.02575046241216236,-0.029589847593407083
-0.018128698072429787,-0.05131124345923797,-0.018618724950480357,-0.01809160659358371,0.011915342272757094,0.0033501477407635112,0.019335804819029936,-0.02616781350852003
-0.010770642554033651,-0.045699804083661665,-0.011554078600818628,-0.00813938002529575,0.014607922723623554,0.010743202938640522,0.028021761674581532,-0.021883021854652813
-0.01305607527652685,-0.03971913995160301,-0.009326500986460977,-0.00655381873825676,0.020193246607885604,0.011972248661172429,0.029300467003222197,-0.019481313057192723
-0.011680272209503748,-0.032804634888055115,-0.011495847221790943,-0.010593920179355745,0.016310736965903752,0.015956232760482192,0.024012628014033928,-0.025110330834694276
-0.011471625676300773,-0.039861223702555695,-0.01495391034282299,-0.014741342012376472,0.008161153514509403,0.012675801379764914,0.023184426803577587,-0.022267731902269994
-0.016849545292882667,-0.045799389432847476,-0.027094397917013825,-0.013025037184424106,0.011283116713464606,0.010210643871657892,0.02989548586031018,-0.0189046230043203
-0.009624273504622045,-0.03879178911016324,-0.00769602429809275,-0.003648297924043838,0.018688337598344325,0.01526851675444866,0.03201123533366157,-0.015050179915256524
-0.01300656447608653,-0.039692444521003914,-0.008276979355473106,-0.005021543467159933,0.011578622133379924,0.01885890877704257,0.03445925099826483,-0.011871361344807336
-0.011896598712196928,-0.04053458459660141,-0.015063077028311509,-0.015376509214804244,0.016809191072021733,0.01781617213641957,0.033139209311482495,-0.019037518219667725
-0.018486541482570784,-0.049411747715169756,-0.019317756679488908,-0.013101411629115685,0.009133165006461065,0.01939264088402391,0.03650803554572262,-0.03048185232437997
-0.019934860826427352,-0.04935287374744122,-0.018132916656557307,-0.006042767899327308,0.015951451900469777,0.018008856955976052,0.040190800650574586,-0.0183157853206742
-0.009965581560881835,-0.03613472207555789,-0.005412976090227906,-0.0012930198658055723,0.019626472758916227,0.022466278967403226,0.04356688853485719,-0.012992174046606287
-0.008076986044651688,-0.04042569075838654,-0.017539937824008235,-0.00481219330504053,0.01980865423424552,0.023045698524245595,0.04132969834467853,-0.015818020288916435
-0.013827741076470935,-0.04056851584144178,-0.017311089053754638,-0.001320351408530137,0.012743341770619728,0.01588413627786361,0.036443327611376884,-0.021423959509241173
-0.01952944578837101,-0.045433041591420746,-0.01784225838437743,-0.009753147117048904,0.015410915770355253,0.016498675305685294,0.033298175637949075,-0.019355390967955046
-0.009320688065700985,-0.03492334303235446,-0.012425713456744357,-0.003329982926318842,0.017212781283596185,0.015697269541630726,0.04320338265986097,-0.016614594633710213
-0.010235790761393656,-0.03742626085057721,-0.013651917376287747,0.0017044625944839706,0.0190267225191188,0.02126347646008782,0.040064656277816024,-0.010588144367015618
-0.010653519471689483,-0.035167725424545666,-0.012498172023546212,0.0030198932083352263,0.01598773127708583,0.02121602936669028,0.04166884450766107,-0.015231750519078059
-0.012645986570371198,-0.03571996447127137,-0.009135120852483438,-0.008998014768034052,0.00778011284897066,0.012960321533033867,0.029102197774126374,-0.01581355466476723
-0.017164931410646178,-0.038794794258465756,-0.028130048857445116,-0.009331359129215235,0.00969075945021668,0.009931184553594173,0.0273412619482274,-0.027353765845040547
-0.007034978271180796,-0.03129654339150938,-0.021300283327352478,-0.005515387711165131,0.01431658878896053,0.01729334530759903,0.03620994974716399,-0.012637344473922736
-0.00791541695828913,-0.024694360834520913,-0.015368164929248909,-0.005266343507150466,0.013612719628076012,0.01790529987561419,0.02757147745999456,-0.01401518325178675
-0.012557692779058077,-0.026472421041369203,-0.008047471911204038,8.701039419142074E-4,0.01273658952096997,0.015633455194387285,0.02998787965735654,-0.018543105352400686
-0.014027426910613918,-0.03004456592414692,-0.020476986669521708,-0.009514528365745577,0.015788547439396807,0.013442915906041108,0.031015727124802762,-0.024990532551722466
-0.012315646751640513,-0.03235165625187622,-0.01002696596752109,-0.00403383535831613,0.008645701322802742,0.011997256961561465,0.029838194384662762,-0.03191458974523205
-0.012956061794913522,-0.028191472503448025,-0.018865820735919952,-0.004486110494872634,0.014982635105867972,0.01271893647898171,0.034814330945067765,-0.008432958027547349
-0.005458933153647646,-0.022436782610261923,-0.014650776325952143,-0.0017903435855930983,0.011452173947276215,0.010924419731526308,0.03308773685947628,-0.02308390750341979
-0.016318251895153707,-0.02801975437892219,-0.01487851991110068,-0.005370437684402637,0.014610157830171982,0.012781441032649518,0.031707418957485474,-0.019154662129112505
-0.016344034959457757,-0.033117796151665574,-0.01809103175189965,-0.006118024889401858,0.011889190108998584,0.008147878057802543,0.028737189013519446,-0.02332201142566393
-0.010412593051252741,-0.03305740924080969,-0.016964219859547935,-0.009781001511732857,0.011819628670835068,0.014518220532270197,0.03492575278961658,-0.021342558726709114
4.171194320682733E-4,-0.018877246183937782,-0.015893329734669212,3.448264113352025E-4,0.015910666404443784,0.009045220450682567,0.03637368480067803,-0.007976073178431775
-0.00917850466512379,-0.023106649947664173,-0.015850944419024383,0.0012546901671433059,0.02030986063705442,0.00790600182457739,0.027580294952793086,-0.013030957483947673
-0.011842241056110226,-0.023091434173661447,-0.008403886320281115,-0.0069104942043389656,0.017606402232572007,0.008525841298496597,0.03477863942562629,-0.021224326105123252
-0.0023776030438008447,-0.021823172961881347,-0.011299610723598552,-0.010050717169788507,0.01389958497591729,0.008430376269515476,0.026343306752000736,-0.01941980710473103
-0.007693437859051943,-0.018729748621892105,-0.009675339982426822,-0.0023505952435684376,0.01825829057514206,0.013850031478717271,0.0330906383535313,-0.007061060593256431
-0.005948994261283065,-0.019426292012020112,-0.010600773054742059,-0.0052310285634316195,0.017325863066428665,0.015618536818792755,0.03060335645237373,-0.005244925178143594
-0.008137914898845598,-0.013547684380514537,-0.02336877217624866,-0.016184684403218883,0.016405043323083703,0.010013012087659675,0.027381295107236865,-0.0031687560293118576
-0.008808479875231855,-0.025962272741873217,-0.020525308150488576,-0.011347180414779674,0.0161610675186388,0.005331230902949484,0.02478848934875528,-0.0164443712431515
-0.007988097631835044,-0.027378842134383786,-0.016215381166466317,-0.00956845287579374,0.015805284798636757,0.010213110628017268,0.023646224274824598,-0.017282612980691607
-0.005833415704504956,-0.02590485179957393,-0.017126893047619655,-0.014898963844428645,0.0196411775995503,0.017331726811109248,0.0305551039861393,-0.0030128542677843296
-0.004354342200446582,-0.01821074629330213,-0.01827312549106773,-0.0033099209256312553,0.021739547400353967,0.005977114080371681,0.027379438558660145,-0.010170628393204999
-0.001903296091997895,-0.020086888830801345,-0.008482067120417366,-0.010377182874727667,0.018777094026581332,0.007859528670102475,0.02307940055853091,-0.014531370869921319
-0.0092032805563989,-0.023486421858099626,-0.015177172792239325,-0.017166945377345245,0.01825086752681134,0.01024539031414335,0.02448581971429176,-0.027553827585714768
-0.00420149616100675,-0.01630387301196865,-0.015169431140074666,-0.007922583363872146,0.019262915116272657,0.015424102679689605,0.03803981602524884,-0.011485924029311862
-0.002253720115110447,-0.00527596737928861,-0.010152346619916543,-0.011803400091331956,0.023551734466250192,0.010560130188541874,0.0343950874804659,-0.0043068447918486056
-0.0041825905700539935,-0.004426756312148057,-0.016196288048594475,-0.012340494877249156,0.016225155661248283,0.014122012078985013,0.034423091514725376,-0.014673575222726552
-0.009747720662710313,-0.009748751299898235,-0.021324182525093518,-0.01636515365808511,0.0209606284142282,0.00685253925545689,0.02586860195266063,-0.012637293526780665
-0.007551643602379081,-0.02353809444479966,-0.018814288606039724,-0.015840369234363293,0.02060729670580211,0.01322513952463309,0.029668694135570533,-0.009711602667173285
4.1272995130470013E-4,-0.005746653744157893,-0.006342185261587102,-0.015381485743630508,0.023355757033572632,0.01552323166888352,0.03035626299594192,-0.005767283768306969
0.0016884573499779585,-0.00749021062845763,-0.006397541030148699,-0.006270303665880486,0.02048408094508659,0.012315919251606647,0.029877305656399164,-0.005714332078193289
-0.006387091365716839,-0.002536089473469848,-0.024285682765287288,-0.011522785422679009,0.015141453754357487,0.014264735120422643,0.027799131717781277,-0.010586455564818659
-0.007560719292734095,-0.013623596703133936,-0.01966908728822,-0.016295525033396287,0.017339017404634168,0.010812540938717212,0.02584319626025927,-0.016534062442617205
-0.013665565415655143,-0.01983843060281472,-0.018166696547577802,-0.0196053404222876,0.02384258477126712,0.014439970685956482,0.028553286024604423,-0.02001973488647442
-0.004347033370301926,-0.013971138045382995,-0.010642468993722938,-0.010872325869676082,0.02247603836671111,0.012270159410308984,0.03318946655437154,-0.0050218636320185
-8.12257196881375E-4,-0.009979808298664667,-0.007128596459994332,-0.009727622758766118,0.020531378451420647,0.01721136490229716,0.029082520007821466,-0.00912171613825816
-0.00832441906196504,-0.005590899601196123,-0.017742504813721496,-0.011840503474926134,0.01598914192379942,0.013590064171419362,0.029410945654697984,-0.008936713102125179
-0.005256683342123168,-0.019890365815626,-0.023239565224886304,-0.019678801144784267,0.017427648824881112,0.011976979655739598,0.028806853025209703,-0.020994032492382818
-0.008723841697464627,-0.018737382354879872,-0.005938127993299799,-0.01780168130522823,0.029420380063120574,0.016341929039881475,0.029461205140111437,-0.02270303251062985
-0.008789500873582478,-0.010047387852418644,-0.007493871459383433,-0.017897348976824448,0.019703174851762924,0.017724798695505292,0.03546264148599453,-0.009104642158631649
-0.006695361664232457,-0.01417463711266573,-0.01471374318417182,-0.00865960718916759,0.02268079614289286,0.014125500172376806,0.03224633148446913,-0.015895778387205288
-0.014881243718408814,-0.006413797566228176,-0.025713472799396876,-0.017781909640723004,0.016406592399402578,0.006782382130547648,0.027020390465921973,-0.017464100722166278
-0.011809250175152398,-0.018774236790825755,-0.017440505782573806,-0.025796915965971605,0.020167925163029565,0.012995260331154746,0.023648490488720714,-0.019748053411088366
-0.010626979594007959,-0.009723963701558855,-0.017057957129653106,-0.009479323794504538,0.025663438822638187,0.01480841691121619,0.032957885787690086,-0.017572623151826294
-0.0039103775778544115,-0.010728265494833177,-0.023721442870796215,-0.009232167858841065,0.02091344027250898,0.016748127624965227,0.03135056326834459,-0.010671211270663512
-0.0026169720429173393,-0.0027964225416720074,-0.019919889438960954,-0.015079465568539552,0.017974139446831485,0.018215132766708827,0.03461420163633066,-0.006542162433771003
-0.01042014566084217,-0.02017576414824427,-0.0307339423482162,-0.02348136778591302,0.01854931634655682,0.013692737952455717,0.022638149270121647,-0.006367513959375237
-0.007100609702653391,-0.01871661987334881,-0.03450122208651483,-0.026421720418381475,0.01821264039641946,0.008143902968498795,0.028257494473987607,-0.014812098791701138
-0.005527612198297347,-0.00660590277728365,-0.025945454631917622,-0.015449738939259383,0.025296131046513928,0.01783719810651629,0.03166616756899284,0.0028523949280128765
-0.005671145841382839,-0.014303470178070184,-0.012925749555168382,-0.00974807941784383,0.019816474542371076,0.011994736655480821,0.031025806628184136,-0.007313118776718143
-0.004158978061022647,-0.010828700350590125,-0.01819207432365776,-0.01441162205699191,0.013530598763878023,0.00784676759925064,0.030144224178687538,-0.010100552277613256
-0.01082165210526341,-0.018906423470836927,-0.021196695942437484,-0.021295046201018172,0.01944857467458879,0.00887071523151323,0.028721912130062553,-0.012752000239729782
-0.0062227274659960785,-0.018891372542206058,-0.01347521277036776,-0.016491534642772816,0.02080122609226369,0.016637829629267062,0.03348229951916963,-0.02151620105254595
-0.003112451956507982,-0.01674493470275709,-0.013450234253706308,-0.01580424746640624,0.018136260169710625,0.015928615066799826,0.03508980673327946,-0.008920458800260874
-0.0034373844139652583,-0.014727378043131302,-0.024278922700284818,-0.011675527283341456,0.02332558538039231,0.016450577687140328,0.025511145467712965,-0.010849075952658398
-0.008291450300637096,-0.020271857398650953,-0.030037365000239704,-0.027587558048114306,0.02106920014542681,0.007751997750304936,0.025127054939882487,-0.008380944077753638
-0.015435053781505396,-0.02434108235760915,-0.029880949085504246,-0.021475471016265048,0.020216967526540022,0.00378921339154426,0.027408566994660592,-0.013180742544851794
-0.012009850421260617,-0.019683719715662098,-0.028932105207843346,-0.023154871786829113,0.018640507039080254,0.012962463522239221,0.030386351125681176,-0.0013600731401672095
-0.0014661949607014924,-0.017273330418312537,-0.010665726896379459,-0.014716800181584904,0.022874822169008456,0.012943000685351902,0.028472669284829312,-0.013363232106279991
-8.654704507164306E-4,-0.014230453517908057,-0.018380940644766152,-0.018952431257519272,0.01743251126926811,0.01032358018600843,0.03179500945760709,-0.013611265811786713
-0.008692002021946216,-0.024905897919177893,-0.01936590243862676,-0.027464681260330435,0.018514035145585542,0.006612148412657965,0.0290587794818723,-0.010696779224601344
-0.010354745637677408,-0.027071085199827725,-0.02132376876459532,-0.022189622565337384,0.013139848620557653,0.00712049912735048,0.029274883110301797,-0.01874149401650278
-0.004362965381333616,-0.010387569133117279,-0.021447361478982692,-0.013346407324447477,0.02744490596944201,0.010031728505220801,0.029549559130437004,-0.0032911695736677167
-0.005130942598334107,-0.010701480471837173,-0.021929679480568627,-0.01856218783776849,0.018045833931871223,0.0057710778671197045,0.022170807731950737,-0.0035434919642674824
-2.2875070914227035E-4,-0.024137132598491366,-0.012422717874277489,-0.024649683413913083,0.01962321115985573,0.009069428002724441,0.02682713640111135,-0.013614100524549469
-0.010311703099976309,-0.02954507934286461,-0.020274677120528627,-0.029863825922060182,0.017234499357538208,0.008092412614767786,0.021164568717727546,-0.021811302877595813
-0.01219723186876445,-0.024721978507154324,-0.02593330853181917,-0.02086611754026481,0.01686526642980352,0.0065652125414775424,0.019610965621278252,-0.013116814421019236
-0.006613804411260679,-0.019460762360384038,-0.022418249009467695,-0.025061224153155717,0.020153834539211806,0.008505587254936251,0.017540188211965298,-0.00803869268796057
-0.005072978897824736,-0.020114026560779708,-0.008004773092677843,-0.02096809673782376,0.021043432889306133,0.004574674927935991,0.014674979566143059,-0.01490400317607399
-0.008457932592224814,-0.020030740836458807,-0.0193457392589492,-0.02461129223012,0.018516443196414573,-0.002403863446239233,0.011948295135544471,-0.014884933406601786
-0.007453337077472947,-0.03314811539051922,-0.028672833328341557,-0.031821309738381015,0.01412356890721278,0.0031383615406005913,0.012714100006195148,-0.018534095265788482
-0.010041341342683637,-0.019976836192099282,-0.014504410082268424,-0.02912399430641198,0.0202266929525982,0.0028953647092905357,0.012601266207766049,-0.006181290424510878
-0.009145185090471672,-0.02163082794682157,-0.018061761668559558,-0.02836974686664459,0.02347467017584891,-0.005452661149615359,0.009456099511106118,-0.013632360174431174
-0.008813952141402613,-0.021736125659610597,-0.024172872206234795,-0.034135967236495736,0.01629022088279804,0.0014729614210968894,0.008274793357975192,-0.005696019116628885
-0.006425566793140663,-0.030563148127401962,-0.026411289607477066,-0.04017061771759703,0.019637624634508057,4.79864106165794E-4,0.006453232369870505,-0.026128821708566955
-0.016205505030447657,-0.03406039390608697,-0.031806392494174204,-0.03913531934065963,0.015349718463271027,-0.005110725566123219,0.0058058373990711315,-0.029978365679649455
-0.005201279994196978,-0.02504384982740865,-0.019614850422701214,-0.028594351988224558,0.016293467560655726,0.0026770417479219846,0.007699458071285189,-0.016954054125890714
-0.006764095906381839,-0.01987005582296365,-0.0227530447216078,-0.03161106564087521,0.01735827113007833,-0.004363465915973372,0.006362715679523994,-0.016498419732323
-0.010970867755469087,-0.02528715321080717,-0.02095932518996422,-0.03497785378537722,0.01903883311317391,-0.003300329573802547,0.006300571276571829,-0.01900682372374328
-0.006081125717639857,-0.04421985403007045,-0.018055122014511583,-0.02997125218294456,0.019983543310813756,-0.0015357674618979255,0.008141640522027118,-0.036848531736471776
-0.0025108673494904444,-0.05880574312718872,-0.0025929468805323827,-0.029071767969304836,0.019860599590167158,5.500726826540856E-4,0.006064148050887898,-0.03594133801628655
-0.0028986145189818895,-0.05792167409319413,-6.683147196669831E-4,-0.024010528001886376,0.02167743251877677,-0.0043027896705316185,0.013538823247623287,-0.029586813379003027
0.001877936592551794,-0.05742674168537989,-0.0038610892795570536,-0.024136863757658653,0.024625632851085964,-0.004412012926859793,0.013780981354841244,-0.017346686954182382
-0.0031625751612110384,-0.06553367786687167,-0.005420009851133888,-0.02043747855255935,0.02506690895244824,-0.003909384899636451,0.005667874130587898,-0.016181384236103526
-0.005738421561418635,-0.0643449745001958,-0.0070188349115217425,-0.03245373853709047,0.020365383314263966,-0.009611074626963641,0.0028409897025862933,-0.02697511640019836
-0.0014651720399788827,-0.06827649729513062,-0.01225367839204005,-0.027836774251520393,0.03364194371482788,0.0011697479196281794,0.011404388469313602,-0.01768753921472598
8.630049287562244E-4,-0.04940073585377052,-0.003911611470390743,-0.02665133381725648,0.027045794076523997,0.0013198466905815051,0.009821948418309424,-0.013513818413311654
-0.0010440256501452233,-0.05088144380120981,-0.013177346055282523,-0.0302996739834308,0.025343934943971788,0.004370040835659076,0.009077617595315095,-0.015352256239310334
-0.006490496767118227,-0.05890724685689985,-0.012951002350595809,-0.03254356375368148,0.02599095852937862,-0.0021095281119377337,0.005128402150419028,-0.016656463479895297
-0.0035419701794006265,-0.0694631513900774,-0.004616381710960884,-0.031317500239668845,0.024360450912292417,-0.003624927942328738,0.006574141041896244,-0.03257970343557339
-0.0018402499237988954,-0.06254121810120908,-7.158781922710314E-4,-0.02227066780505552,0.032138481023966055,0.003702883215987707,0.014496242420046586,-0.021515005199458547
-0.0029034592372329253,-0.05033575399321846,-0.006915959781623513,-0.023296609004868466,0.02726388148602225,2.999559425713077E-4,0.015902972811593384,-0.02145338278506375
-0.006456434440764347,-0.04871512692083112,-0.018959481071964813,-0.028514976509259955,0.02219538118518893,0.004335927310237052,0.013698102295788824,-0.012357539083902455
-0.00833798821899108,-0.06504449815172254,-0.018011115870071905,-0.031286811819959584,0.019939804639704423,0.0056460507714121136,0.007161296615937481,-0.021829456719768173
-0.00879430721992148,-0.07112816106308296,-0.01667591612843804,-0.029754638310477085,0.018242915001182303,-0.0018830694247316691,0.010812415545884503,-0.031450807546914816
-0.00950687761139154,-0.04660476055364196,-0.01432497609138181,-0.02203741432052543,0.024122057122089594,0.005598932682910129,0.021392614943702332,-0.01451535957729084
-0.005190497091405574,-0.03461607965991215,-0.02768118797243267,-0.021486559469091747,0.02588067280443089,0.006272587711257005,0.025422482613478316,-0.015510083597228622
-0.008572636356475535,-0.026877538229434304,-0.028225146538980003,-0.0314775141953091,0.03004679502607244,0.008958920481035856,0.01895918658644398,-0.008900587535916932
-0.013879592331605326,-0.030266801516238385,-0.029403631719486786,-0.03895425191278847,0.029522280375827145,0.007814669008690564,0.01672878253611308,-0.024792795176053595
-0.013152356678340136,-0.031129705827929725,-0.037390520664968625,-0.033479523370430475,0.030048648437451895,0.012353059706742832,0.02265793116187637,-0.03440237391444527
-0.010241357815961792,-0.027686578829182653,-0.030103279066149697,-0.02253201599069235,0.027983324928445387,0.012202826713444961,0.033862570504442996,-0.027096213170655425
-0.008311825626553027,-0.021763547934539832,-0.03281901035469528,-0.021144832792199954,0.030344267708283825,0.007932439060133335,0.025204031081223478,-0.023297024320542523
-0.014316895328725933,-0.02408100679109383,-0.035231169060717105,-0.027425285690331137,0.028760444868274945,0.0056527638365066,0.025418144235076604,-0.026396863977212977
-0.009670222051099584,-0.03242017702938132,-0.031901778829041626,-0.02841357404505282,0.027152715646961274,0.010095651605269393,0.02134669275089575,-0.0353097816560458
-0.01762215458534311,-0.028779553056797344,-0.038565990181254554,-0.026612557530996776,0.03186691652887334,0.008985670623621558,0.028635267272498325,-0.03813906579354177
-0.010831642059774998,-0.036226220575328975,-0.032034917460012316,-0.018427829798012066,0.030531326214909373,0.009920636132498791,0.029441981215350774,-0.02956333797565367
-0.007145401732199532,-0.03332489852906613,-0.03803533561274087,-0.02124133870239549,0.029387378903611414,0.011438478454360688,0.028109093487045017,-0.038203663397820956
-0.01324352866960819,-0.04652211471663137,-0.03166414494350345,-0.027493061788470944,0.027666644019879047,0.0015473367111415025,0.021918127157331494,-0.03980940320090815
-0.016466778992571957,-0.046303431958425276,-0.04112888921363429,-0.03227604583097797,0.02081547870743233,0.00269814206712735,0.012628292839748943,-0.048298913703729275
-0.01400772434035442,-0.04810283587683885,-0.030517772635257692,-0.02412902561460346,0.02550530777765395,0.010663893897503947,0.030559631179297633,-0.038014855374397076
-0.00938594249020595,-0.044239567305862704,-0.03341306171026611,-0.021625543597816516,0.02649433618193327,0.010963388562118762,0.023642634522783926,-0.029615649063518584
-0.008369403493925752,-0.03995669269698284,-0.03220471371314938,-0.020778602703625505,0.02684088624711535,0.015604095370977617,0.02488506313831102,-0.028375425506003495
-0.00819966609769579,-0.048857933401986076,-0.0412243014921896,-0.018493253080010253,0.02237352560621511,0.011107809900452077,0.021419033532486753,-0.03019231043370091
-0.009119622769006408,-0.04502108579056396,-0.030423779471099678,-0.019273331925468783,0.01986059301803772,0.009471881439947687,0.027599696275604234,-0.03551006155878218
-0.009877777078784447,-0.047036692427798905,-0.0234171034077023,-0.01718326835194095,0.024691146806058176,0.014847456543437311,0.02646343487151684,-0.027505436468678802
-0.010510287401380589,-0.03951771637042281,-0.032916393541369625,-0.023296518234614736,0.01764212375034851,0.011022209298037256,0.020722265173250896,-0.028438769082834558
-0.018281491830432605,-0.03412374020917668,-0.038325438133549355,-0.025625299708454417,0.021210721910340465,0.011383757596945357,0.022401672999987,-0.019107025110078238
-0.010714260890194982,-0.04540051229741839,-0.03830924155243015,-0.024883087353653882,0.022626509300427103,0.004204589558009423,0.023060627521547177,-0.022252367257480355
-0.010786799287349134,-0.033796835201939726,-0.02932098994327994,-0.018636879428631754,0.02886432952279918,0.011449204936460624,0.03224632363579078,-0.011289524099999592
-0.011945756131699759,-0.02852066214486412,-0.03415909924763555,-0.019248404692254292,0.020811240672181274,0.00846475943324226,0.0224122095570632,-0.018811365586871843
-0.0050957264475288856,-0.03204138706364599,-0.02979530717749124,-0.020682444233056915,0.031837302653973304,0.005171080648507578,0.020505927874986934,-0.025318794632745178
-0.008856906164966804,-0.03906959131196451,-0.033454676541372276,-0.0282882991708824,0.027462165721795728,0.005962051667746928,0.018383235827998227,-0.02957814217149204
-0.004888011185756107,-0.03869750010339857,-0.02580603287759589,-0.020536590506396557,0.027060314751504725,0.008925211702192312,0.024657132410359182,-0.021183881371089768
-0.0017095039956326241,-0.03721001025331919,-0.019652863234853393,-0.018836877206546546,0.031606550702894254,0.01246313193422669,0.024137585407885465,-0.019598260661247074
-0.004109458227857691,-0.03311474753498138,-0.02534778555523162,-0.015197207454527245,0.02648834251251209,0.002621376786746602,0.022110979907156887,-0.02062625938089806
-0.0073299726736875724,-0.03922457191391526,-0.02478180026797342,-0.02491555162606602,0.022810835152079167,0.009385627694350175,0.011431799349021447,-0.0287017513046924
-0.012309106084196011,-0.044701318249636246,-0.027975743589545413,-0.02805775077584121,0.025497772369519788,0.006898055281803614,0.016073965317440493,-0.021632046501074035
-0.008105680278742847,-0.03875414192061465,-0.02480774891206884,-0.02516662552626304,0.029284253729408464,0.007746555309612375,0.01413754833513495,-0.020412157830439422
-0.008439506302003266,-0.03507016915565277,-0.02433264388591366,-0.022405511719545634,0.030156699245314625,0.003349837059148157,0.013644585266201147,-0.02312674533041656
-0.00652033448772976,-0.03672564132971532,-0.023437047555587575,-0.02983401470073651,0.02756586641556513,0.001308064388775307,0.011443448230320443,-0.021523664896954568
-0.010545597137174635,-0.03402409308526801,-0.03310151224963537,-0.025867392779476205,0.0230433686360718,-0.0015854668821856008,0.008779379763699375,-0.025082659770360075
-0.011258874980513455,-0.03551911720155233,-0.023131036272420257,-0.02470869836368082,0.02554351506117509,0.002206832046712138,0.011829181714547176,-0.03703306747646641
-0.0053804942383812475,-0.024378016700474167,-0.020597756244074807,-0.021137429088579036,0.029900731650858547,0.005880108952195208,0.01460606459628013,-0.019023169772016877
-0.003815333886247898,-0.0222005779177026,-0.02468162248014761,-0.025139625142927263,0.028871871059698247,0.0032071955639271263,0.014917277363468602,-0.016584939561587936
-0.008717231206133205,-0.018740208149853152,-0.026076659082041598,-0.025395330200492762,0.029928667346079862,4.0407132895118746E-4,0.01400013762099884,-0.01719551819111912
-0.010114628774259896,-0.034239198963220155,-0.027898869389808494,-0.0349560658985894,0.028162386421798753,0.001829131929530378,0.005110130049073432,-0.02484847947671863
-0.008368746383322807,-0.0396438007198334,-0.03270483534489908,-0.03455502673076324,0.024241827211645434,6.894049888086221E-4,0.00891818733090326,-0.020931078709562276
-0.0016059898805481452,-0.022009893085213145,-0.017705487081101985,-0.024194334270872704,0.027981420050749866,0.005729398339483687,0.012195073354218969,-0.017848319723846758
-0.0025351522803218436,-0.031049783494188403,-0.026519351671077915,-0.029362225180156108,0.028984921334925605,0.005446924106223814,0.009303038856672698,-0.021974669577575247
-0.006554335577488233,-0.021103512672692542,-0.030141825943451505,-0.03245956534278908,0.03168543961138611,-0.001752603318902114,0.0031020243042465478,-0.02330640906844443
-0.01002993697866207,-0.03123412609088437,-0.02605365420388604,-0.03555160698808415,0.03143056366304557,-0.007995397580377154,0.005688302991538042,-0.0331103169333881
-0.007814859387261409,-0.03968238912727538,-0.029691213352615684,-0.03715182403016334,0.021997766412261054,-0.010041102842368109,0.001610919577768867,-0.028541589053603232
-0.004669413410301625,-0.037803373453624396,-0.02421371421591296,-0.029670389811224468,0.029804638726583947,1.5689146864588904E-4,0.005713033405175254,-0.017403950710143497
-0.003098115421639427,-0.035070825647032976,-0.021293810566166384,-0.03234669170058448,0.028899644241247777,-5.616190126111341E-4,0.0038038669284887186,-0.02145364860094901
-0.005814499500979325,-0.026126384736670845,-0.03598555297405303,-0.034672870102534684,0.02761667131777068,-0.002967387568294442,0.0026859409140978867,-0.020430762626218804
-0.016636950704403748,-0.026140645221160008,-0.023786891026575413,-0.04954691261899364,0.025399733211102185,-0.00410361615163057,7.917988446125309E-4,-0.02491612679145968
-0.01422754433764418,-0.03229577925409393,-0.038327038989707574,-0.04277965589275201,0.020941228228727668,-0.005665814991397941,0.001853283438999454,-0.033052579069562174
-0.0054967895045787115,-0.03026013410030225,-0.04004445227126153,-0.03877937563282997,0.03007036795664624,0.002338728631930502,0.006653356662023014,-0.022922556596412968
-0.005959986504614861,-0.02206430705634193,-0.02836237146790295,-0.044928632466851165,0.02734630646876564,-0.0029555989691330753,0.00318947314666866,-0.019527943002598188
-0.00919965711632268,-0.027236342217071635,-0.04105116703977675,-0.04400645055496235,0.030435932462900415,-0.004304004980096184,0.0069262409982763515,-0.016445799688716622
-0.011086835147056332,-0.02736698133635982,-0.04354051023751865,-0.046016870530459046,0.026249280351239496,-0.0066632288927609765,-0.002883733337390588,-0.02449320781994325
-0.017197761319437736,-0.03621442597964285,-0.035357716011174614,-0.0398628882327118,0.02518160889265426,-0.006642276598875686,-0.007384317137406732,-0.02868480970492539
-0.0063152438111188525,-0.03251168811593404,-0.03147535610405485,-0.04324012333788216,0.026284572103710085,0.0022388297757001503,0.0019206013947505839,-0.025872739335379157
-0.008628932512954822,-0.020346727646919287,-0.03240340378137045,-0.038565823273708534,0.026549530406582384,-0.0017299194180142158,0.005370687722342714,-0.02381625876392281
-0.00806055761077486,-0.020541994848787177,-0.03539753592966394,-0.04240048969412116,0.031220596079381883,-8.89206636357072E-4,0.005098937140008818,-0.018641638197826493
-0.0035520512566659607,-0.03360390683600928,-0.03647426431129159,-0.0431681431624549,0.026728330735414182,-0.0017837872547843423,0.0038596665587323697,-0.029477761956823244
-0.017316221309328965,-0.041864594886467696,-0.03201776402377707,-0.0448972632018834,0.027632091781047672,0.0014293029713661103,0.012542657732479328,-0.030088706807383164
-0.008223876044822664,-0.022059095028471587,-0.029348595600260038,-0.03709134782171912,0.03006697016108727,0.0014027592385244903,0.022623806063351563,-0.019790688323393788
-0.0030475679012641078,-0.021825537115712498,-0.019390724966031864,-0.03847568210990822,0.03090322282844406,3.394941831081917E-5,0.015902498479094522,-0.02878181657241174
-0.0036339603668646744,-0.02053131367365312,-0.0246628800145258,-0.03742624511765029,0.02254412648721458,2.1982669196248078E-4,0.013001680483978383,-0.0304698413851848
-0.006262972488841578,-0.04315136615442754,-0.022908920164642424,-0.04416806847883001,0.02047518965036341,-9.057474602047193E-4,0.005364167234842987,-0.01826398583240358
7.511223731652793E-4,-0.045971631332438534,-0.008482911365620727,-0.028424066958359605,0.02596079961928826,-0.0011338184599923552,0.012849194058888834,-0.023591836385454822
7.35403478350706E-4,-0.036988960369166816,-0.010078205328694908,-0.026191502503493308,0.03486322334881551,0.00872121118002868,0.03141084783737094,-0.02004302734660061
-0.0036489944621050474,-0.02682423423422851,-0.028372720536005064,-0.031065542816806718,0.027694612533355062,0.00730014912289166,0.019693450430747276,-0.020989198757084895
-0.007354999662531579,-0.010501355897005014,-0.04077270838458275,-0.035537921224756935,0.026470063012066832,0.007411791621511383,0.012891389849570499,-0.012284367321249908
-0.01012996139405469,-0.002006979926063309,-0.041914385263839046,-0.040043287859715664,0.025231291047075333,0.004122647296657301,0.01345652904398612,-0.018395207803962515
-0.009888077777696428,0.013996534021906903,-0.03942959171888863,-0.036419598721092565,0.025967383526677205,0.008940112225056402,0.019423481200799196,-0.0018241890912545115
-0.01013574865691798,0.013343629606495159,-0.047218021315862446,-0.03983955630817469,0.03080278186064157,0.0072394532386271,0.01861771275242135,-0.010245686293505
-0.016751706166816486,0.013972880765305368,-0.05092759471490646,-0.045985691189788826,0.02835702446233948,-3.4725071857742885E-4,0.013083131292102713,-0.00940390441172978
-0.0161778659130418,0.0028148743516883865,-0.0452460161802142,-0.04306274427433688,0.025996954208720488,-0.003546961023479828,4.993039489576087E-4,-0.01460642850485044
-0.009909956198272982,0.0040969092268249505,-0.03548377615639224,-0.027389585968855008,0.02599522911615823,0.002888625933631191,0.013478770568548864,-0.013277602324433488
-0.00947993838967054,0.009170125048575662,-0.031832015452233256,-0.031049162849721333,0.02567702209965149,0.0013088262445940877,0.018019474638594265,-0.014769247588618925
-0.001010168920768668,0.008610249940867485,-0.03700859963029605,-0.028327860533856365,0.02462114930260461,-0.003489646098467402,0.009968807303412078,-0.01242186560121042
-0.006554357888291196,0.005357196306106757,-0.031728442250322425,-0.03556278576972225,0.02110723901153322,-0.004163015658958816,0.002795628519347029,-0.011983040366744583
-0.01234092547487233,-0.0014958071927063657,-0.0234412629369664,-0.038007152129692794,0.018501188597911146,-0.00907285986888641,0.005713118314379292,-0.013351789573426668
-0.0074326329689652654,0.0024218657165402287,-0.02684563165553009,-0.026184302639438578,0.023493647671754714,-0.0076566959900617555,0.008904591789064185,-0.00714367562920946
-0.006384177213201386,0.007601506188214037,-0.02592716305769298,-0.029350601941371294,0.02037755565931378,-0.009563943873182637,0.00517884284276316,-0.003549466621620133
-3.4040561602079395E-4,0.004002467780721313,-0.024292233030874636,-0.032192849779497004,0.0176012323882129,-0.005472220236875819,0.010805621072511477,-0.011243893344120945
-0.013055319294628368,7.804075589122953E-4,-0.031346229829934597,-0.04282098816242575,0.02009356388201954,-0.011420430104854067,-1.8982751695789505E-4,-0.016483905913642575
-0.01168484882734378,-2.613755114014192E-4,-0.03431907215542224,-0.03102380763581738,0.013787513868478839,-0.0058701009049178,4.838799495891134E-4,-0.01889747449822746
-0.011278214826732781,-0.003803118981703663,-0.026050943530763225,-0.024683766879569295,0.01917730697466597,-0.00212165545735809,9.221492710013744E-4,-0.010204468605202225
-0.008127285610341272,7.055836279979697E-4,-0.023164874627448304,-0.03303311274131079,0.017209673091498134,-0.0029793273050823066,0.005829936798806947,-0.007969975471991408
-0.009465129954643407,-0.001193946076226558,-0.038589438467884915,-0.037693026550818506,0.01835632358999777,-0.0035806692600112012,0.0018365198218557208,-0.010700843796158677
-0.019343421065503026,0.008493055539219134,-0.03842390841861432,-0.042513701913796324,0.02140310292305011,-0.011669328805092747,0.001386263892197075,-0.03149758897664371
-0.014483185817914806,0.01337076149707018,-0.04722604179922227,-0.038121085799878815,0.013158683735030877,0.003130580525665806,0.011428807925943384,-0.03981749763088714
-0.01477170702478184,0.03345815121120232,-0.061956243191560456,-0.032929036809685265,0.023453332210116012,0.004176196150527627,0.019227000789171785,-0.046769481208936446
-0.013662681709490771,0.03804406323532312,-0.06537243253540274,-0.041189035420583726,0.018025383276815552,-5.750796523373543E-6,0.018988142580240796,-0.0491346417613101
-0.017840660859954734,0.03619080736574742,-0.06897497957976385,-0.04683057412417142,0.01203463667983283,3.074569180075651E-4,0.009247998281293133,-0.060058700732728766
-0.02218905564307595,0.02358777528506188,-0.06286104884602399,-0.047680893864519285,0.016290773083936498,-0.0017237119053486267,0.01521861327017731,-0.06408673788074869
-0.011628994540188849,0.03111200496101385,-0.061462388892473206,-0.030847271444712165,0.02158252910266016,0.005711572375630565,0.023356720454820606,-0.04907414234970478
-0.011680963001985232,0.04006124623301027,-0.05743982011478848,-0.04189558620384212,0.019796740112341997,4.345508257682974E-4,0.02218049066106889,-0.04457440413556097
-0.013715151964152067,0.039051564419890085,-0.06302509700075888,-0.04435728273124064,0.015120582509398878,0.0043983670166764825,0.017980662699115715,-0.05176158490875288
-0.016590909445419504,0.030400876630464584,-0.06962272177622818,-0.048642144768225766,0.020608481002508047,0.0014979313230960402,0.01782131374897122,-0.05228195725303578
-0.02199541963003606,0.013966057464315526,-0.06405898445989315,-0.03932664690237704,0.01701842727433258,0.00587507898419538,0.015492065231187024,-0.044246738045047335
-0.0133460028691385,0.014678476945352844,-0.05803624609689582,-0.036935341386763465,0.017412178554557647,-2.3037118778276063E-4,0.029205468179167405,-0.02488063931571746
-0.010205402540593142,0.006817513129907282,-0.03526354545370176,-0.032176176239908094,0.01453616072528367,-0.0010863752917772962,0.02251580109622273,-0.02382932787230666
-0.016566572821873172,0.004607819992883794,-0.04647303112832227,-0.037048326881853444,0.01762092604270091,5.256060398572015E-4,0.01655768558129855,-0.014535141159581976
-0.014303040745287184,-0.00846466957612475,-0.03573116997004783,-0.042235252764972066,0.01171453138162122,-0.004720159049565014,0.010468488316507311,-0.022881480483525223
-0.020085829202608513,-0.01129395821050289,-0.03516691059145479,-0.037447608602828523,0.01190278794965795,0.0029084423845653243,0.014272914210879806,-0.022290627490831775
-0.017383471890002177,-0.0025718384778669156,-0.0456366283665905,-0.03460384151094737,0.018247157327258266,0.003790004594648226,0.019445428757282442,-0.01725857839979284
-0.009310813137592983,-0.004479633604561179,-0.04767096315808247,-0.03896302800221788,0.011446193300456842,0.0019625994196989702,0.008427560343668187,-0.02102353855990555
-0.015058838124962655,-0.010197007725224588,-0.03770053927236966,-0.039117145195618555,0.014422982941071688,0.0016692701087990826,0.017614341299677032,-0.024104115222728376
-0.023453155340326888,-0.027407059125219842,-0.04410650761389256,-0.04072060220934771,0.012427956077948858,-0.0014184706416726692,0.009265744816080801,-0.031186879401426292
-0.015084236247340602,-0.009535679564238782,-0.03634452884304392,-0.037680786660209825,0.02186514209847977,0.005698030240400516,0.016292036151485015,-0.006404033072356176
-0.01795830117629018,-0.014174616066826433,-0.030863736340949157,-0.03848080723214057,0.014316439605585912,8.474406447986419E-4,0.01824712138655512,-0.016132036235453458
-0.011664951378207472,-0.017125223438318397,-0.042418994659216266,-0.033980603267666755,0.015561386019328778,0.005749548012121054,0.015669686359710677,-0.020778833428371613
-0.018462363943454074,-0.018197749195233367,-0.041588783261231194,-0.04318080775076047,0.007113000345346303,0.003465868639775046,0.01916551367216727,-0.022253546180900436
-0.015400959748586757,-0.017823230100508305,-0.04296108152354001,-0.03691646141741866,0.014597902427918481,0.007993588863588391,0.020032130205499724,-0.011871071633008948
-0.008220924175997187,-0.004201813311652913,-0.04496228082548443,-0.03556224309065855,0.013905910702195507,0.0074704475215328315,0.02719801837320032,-0.010859742937620164
-0.012807086673910137,-0.010078453118501708,-0.03423031218609807,-0.043519682731802616,0.01617211494250217,0.004767356762855672,0.025835616615564275,-0.014917616837033663
-0.01330291786394847,-0.010088041505904501,-0.04372991832187072,-0.03752534888179456,0.017144010122474383,0.0028518834931262047,0.02116569316320209,-0.018260484806262196
-0.018999177608950136,-0.014647363747480404,-0.044787753173319116,-0.040713637822464406,0.016348487220605338,0.001353545102114398,0.017580114763043286,-0.011757408528643943
-0.012629585635217419,-0.007767002847081521,-0.046709000339733686,-0.03413315558737818,0.016332677923356905,0.011287702966025631,0.020901397551294124,-0.011040492729691957
-0.00648175980152618,-0.0056744093752725275,-0.04593753902932551,-0.03528174453083747,0.020602884522064328,0.005163108118511706,0.022569979529856083,-0.012532868674525773
-0.011387861885834454,-0.003343369886347164,-0.04907874766201231,-0.036826511180500114,0.019137353632105083,0.002835517391886587,0.01635562746349059,-0.010908277981273551
-0.018216620859557196,-0.010268413866446991,-0.047917178051389134,-0.04377896218463342,0.010989061486366363,-0.0018931023004005692,0.018219257215161853,-0.01208440552833208
-0.01596379629631348,-0.011678682233396988,-0.043335270824940195,-0.03729280503992735,0.01365470882417216,0.008219068017621102,0.01885047552869335,-0.007602897701131776
-0.014918786026412363,-0.0019912926760119387,-0.03527151969961264,-0.026588163103114845,0.011883555807282438,0.006797187723404525,0.01775200737196249,-0.005342048123531798
-0.016451663726439757,-0.003090685807360798,-0.03054412624424626,-0.036908892532764005,0.019002721577178215,6.922103959486625E-4,0.018491548698843868,-0.007704085861003111
-0.015802485320549772,-0.010266100960356494,-0.039715937730160834,-0.03868343263903964,0.0162908335133822,-0.0027356236824574265,0.015246351048582305,-0.017302016646673666
-0.01617111098668294,-0.016872485130812437,-0.04192052127939798,-0.03930714246795047,0.009390948249826404,0.0025350375207013496,0.01799265227493689,-0.020879212606710912
-0.014482627352897895,-0.009850676145294803,-0.04011923194668439,-0.02180285879950096,0.012580202599783036,0.006560309588559599,0.024738941548766907,-0.005541406320359064
-0.015170546990999621,-0.0018481430395701115,-0.04143214807780341,-0.02923564117854435,0.016841338152844963,0.0018452754847409058,0.022885251949624826,-0.009121174342376123
-0.009287810909015301,-0.01349594289067683,-0.03814128365021096,-0.03328418385965617,0.01581320825481523,-8.718270715642484E-4,0.016776138869633667,-0.011552442511775783
-0.017460885657025152,-0.013536772978925388,-0.04092469217366961,-0.038055519332144426,0.009609801416117655,9.047953020556274E-4,0.012301269198610434,-0.01811355547908116
-0.014848431436154698,-0.015281104573258772,-0.028799373762946032,-0.03449427635582552,0.014066157549011558,-0.0026463458028637443,0.01845165626365837,-0.01160849841156151
-0.008797947407158032,-0.005245618153131913,-0.03312826811812621,-0.03018237652899681,0.012119795020128618,-0.0021686467462762263,0.020600612873815215,-0.00685797196373021
-0.009314247102853628,-0.004825128524338057,-0.031576838386974976,-0.03147451306972086,0.018112789203750743,-0.006454564748260495,0.01960841931243496,-0.0019736724439705566
-0.010160098943285954,-0.002969662656098516,-0.03774091129318388,-0.0371585853857468,0.013787172623297147,-0.009333147031584188,0.01569496536343009,-0.004426944054086852
-0.010950054797424582,-0.013328843737332889,-0.03305141018910595,-0.035963577075513585,0.00874725816760686,-0.008623270185059333,0.011045618390163324,-0.010667580891629988
-0.01078133054960642,-0.009480507598671497,-0.027054615267012336,-0.02536064002146812,0.009418948033752213,7.821118502048021E-4,0.01855472546360594,0.002899271426478082
-0.0017950849706272472,-0.008092474413491773,-0.037303713110426386,-0.023553852984696706,0.010743047090153345,-0.0031247729037153405,0.016503455531351987,-0.0031569183545071674
-0.007462923506394212,0.0012609835294269652,-0.030102045637799578,-0.032282302855327134,0.014372663056956054,-0.007629459780270427,0.01280722489394812,-0.005423510180232236
-0.013395736243300932,-0.013950398601629296,-0.034810846368748274,-0.03447293201560901,0.011964599629547218,-0.008193016756276959,0.009083146708286957,-0.014167881159671353
-0.010883796259221843,-0.0077868666162899895,-0.04292740093204403,-0.03174169567074047,0.009029065860045758,-0.0112858717346326,0.01106610165124675,-0.010728150008110117
-0.009408096469068606,-0.0020257705246749425,-0.026010710878707252,-0.03397736428713108,0.015024454250007204,-0.007957855204309187,0.00969494911472372,-0.0036519373503797136
-0.008527276946821457,-0.008728585710472615,-0.02053346502712223,-0.03293830444716453,0.009472075697800963,-0.011885319230466785,0.007987403637799208,-0.00608420820988981
-0.011086267906053379,-0.009952748240072673,-0.023427825872666782,-0.031899346024793516,0.014168529549654568,-0.01127701070557659,0.0023083124411307993,-0.015833242936243476
-0.00976256656501477,-0.015191270672318354,-0.03289885795180094,-0.039345482828668614,0.011611539127410702,-0.010421845831891824,0.002227100036117028,-0.02017751134664083
-0.006331741854010794,-0.012463172279147783,-0.039241038115931375,-0.02878132458917286,0.01084108806666239,-0.007016221674667606,0.005087945721636413,-0.012549062687746063
-0.004362623226357234,-0.006662826017679528,-0.031945925427569626,-0.032190273175307337,0.007521449985412251,-0.013461424700761575,0.003712934906711425,-0.004614488697911067
-0.007303405598937081,-1.1714306558658209E-4,-0.036084904798555875,-0.024566899001482654,0.008478398309026983,-0.009702765809711194,0.007310779973684113,-0.0036716371470748316
-0.01513742154269292,-0.013606023013742675,-0.03141410664630514,-0.03574047837634278,0.009116502233005107,-0.014149799557227411,0.002706419573876433,-0.010380888940474474
-0.013314001901144182,-0.016635159384371094,-0.037938562228034156,-0.03156731461253435,0.009269519004157328,-0.012121308604022274,0.007696089288324266,-0.011913317035790152
-0.009160299433219455,-0.008161052276779653,-0.045743121380113876,-0.027178426970440754,0.009977238247488876,-0.007335863117450708,0.009343985104901592,-0.005098831787105882
-0.0030206550056441307,-0.005723746869897251,-0.035569599572659656,-0.03200548583939439,0.011551155358939285,-0.010671264867592383,0.0033366583148437836,-0.009695919783894795
-0.008511325978979686,-0.012789337709783279,-0.03667711150220815,-0.0330129435829068,0.014679296242571273,-0.012158897909416735,0.007464576846185305,-0.006957858915823282
-0.015190136448303367,-0.01608831034025525,-0.03408634314820015,-0.04216719526385249,0.014550902166172091,-0.020792448416761724,0.0014183109277087949,-0.018737519980429915
-0.008299062597396621,-0.003683701315784293,-0.03958609931724296,-0.0383778636716185,0.01054558007580538,-0.006695265693843733,-0.001615841080939312,-0.0024991781894857083
-0.007358262669600169,8.013838012588176E-4,-0.03168411368977663,-0.034435948262927056,0.010132389882823981,-0.011100134763518527,0.003382772463241276,-0.008397745923010272
-0.004707660536840596,-0.00921103402231823,-0.033455871678086946,-0.031768153898662874,0.010609556869386656,-0.018840237062061078,0.0025319171090848742,-0.008619781739979323
-0.005383195983802672,-0.017092753636267062,-0.040858332220145004,-0.04401562914132963,0.009329777226106353,-0.018372169011698407,0.0016597134889195899,-0.01625569346938773
-0.016505524433091757,-0.02399419836755492,-0.033812258298313934,-0.041076648879414146,0.01337091719435783,-0.014773161771923532,0.0019134206903777197,-0.01776328878377561
-0.010538201806078056,-0.00581818229801638,-0.03567301196591392,-0.034608978174368706,0.017240453926704757,-0.010822567946833315,0.012033143503144758,-0.006298188350662169
-0.00846937810438483,-0.0050785862442094265,-0.036232963109928275,-0.03598351422295206,0.015601006160244854,-0.018322330730544293,0.0064518921134207674,-0.009965754924698415
-0.0052245163956315425,-0.0032706273440092086,-0.03688699398120048,-0.040997085669923425,0.010881886003253037,-0.015384371481362924,0.0032953702592356964,-0.013649287898076958
-0.01066299101437173,-0.019083393893306776,-0.03953769538364706,-0.04654948245596627,0.0122600283281542,-0.012396749081045535,-0.004385264951521264,-0.026363389374850003
-0.012647857909165654,-0.02410630258387631,-0.04180800907225456,-0.03782242773696575,0.012584672100102548,-0.014395036336458606,0.0020646901433700898,-0.018165533905523418
-0.01147445388834074,-0.013801803036656778,-0.03083680327711254,-0.04012472727747551,0.015844156240340173,-0.011287878116726362,0.0033089028987545364,-0.005972033404018687
-0.009603449466876605,-0.010734739914864198,-0.03490478036365053,-0.03641960497619021,0.014556684466163466,-0.017820945686160033,0.0029756291827140366,-0.009682342353860333
-0.01625452479161676,-0.009919853476480896,-0.03851345467009134,-0.046106951310482105,0.012382877713580787,-0.011804074811749266,0.0025157297343894065,-0.00776327857028628
-0.012285817400322866,-0.022742220796085368,-0.035883057620545895,-0.04371652172246396,0.009114538697781886,-0.014042650082859614,0.0013428239033577978,-0.021499051999755596
-0.004351166148929838,-0.013318721840760028,-0.03939749238708152,-0.04165679591205797,0.014804323663717419,-0.012354971640609426,0.0068564024091462734,-0.008618043116856182
-0.006671260976886407,-0.004976729834681776,-0.038461699455900895,-0.042332004317239165,0.010696304440528936,-0.017288281654669835,0.007671427048123724,-0.003839019836535362
-0.009717191421492976,-0.006957512448411133,-0.04509218698144406,-0.04268365235202606,0.015635621333067704,-0.011566244873567026,0.013873086169236569,-0.002034235562194444
-0.011502753979598985,-0.01381418507851348,-0.04240888553368022,-0.048603963001828634,0.009179829060466136,-0.015129655733002415,0.0029572159421900656,-0.006712705213844259
-0.011327738757265301,-0.0253886119780317,-0.03668808257253276,-0.03998551786405737,0.012881115264791321,-0.011795252216240566,0.00755470478835937,-0.011438357093125736
-0.002552701299431642,-0.008284547386454897,-0.032444625223473855,-0.04097532378435716,0.012545155441816135,-0.009809568924236008,0.008435821073518607,0.0010335693499123324
-0.009758277228735016,-0.015021441425266062,-0.04634933116492229,-0.047879361737687635,0.007755083434096387,-0.008816858117057293,0.010563350044164014,-0.0018079101587249369
-0.006154363401766133,-0.007571135950999674,-0.04004429573752365,-0.045650755055446024,0.014914594883235124,-0.004966668753976292,0.005745205585778575,-0.004876555268601612
-0.013414987326825535,-0.025116050468316026,-0.03806835005648194,-0.050595597969941355,0.013623961452128953,-0.010614474513379893,0.009241289953255615,-0.015419428397510664
-0.006204235935865616,-0.013282070479681284,-0.031824476648968446,-0.04186373257775448,0.01934711168438365,-0.0067318636210514475,0.009166101018244168,-0.013604667233777958
-0.011009798529876595,-0.012496672521206814,-0.03272868471128535,-0.044073968346502415,0.013758253061061905,-0.004313868504178583,0.011774977334343276,-0.013793161392000866
-0.006111957078740357,-0.009964685009806256,-0.03646543857639834,-0.04684687599740779,0.014036310868888773,-0.008293542305600433,-0.003808979639062184,-0.0070421316603402
-0.014273188570561271,-0.012033152975302054,-0.037479628737712524,-0.049736679915228295,0.010543168247389113,-0.011658265023085484,0.0032892436533687244,-0.01721034784393041
-0.011147453882406982,-0.02313288611130048,-0.04002691257872505,-0.04674090858721711,0.017563019698774253,-0.009958871401469326,0.010607830814262842,-0.012767033856734743
-0.004180319188670928,-0.007562278282116328,-0.03694947442501773,-0.04088960610570359,0.007251347737188667,-0.008594274701278186,0.007066689757516102,-0.008109838945008703
-0.009192422044742743,-0.015231192962971759,-0.030248109773264958,-0.039794288613630706,0.023438981772615358,-0.009050598140362902,0.011188573595658578,-0.00342978812335837
-0.01023690514149871,-0.01166997806065456,-0.04197805978676217,-0.049782452383623194,0.017417088047730147,-0.005227583615120874,-0.0010684469480549117,-0.005335539218459531
-0.009908210095577158,-0.02128995782410084,-0.04737531906543901,-0.05044347504784117,0.015379885841619631,-0.011933560258258992,0.006330841813369368,-0.012537114725584327
-0.007774077335357096,-0.007469631568056976,-0.03744388858078868,-0.0419629187042018,0.01740690203646307,-0.006989341891588765,0.011104839187043863,0.00543260896461761
4.5146483816848064E-4,-0.0038044792270691716,-0.03841870020901156,-0.045040605134353845,0.015982482127937684,-0.009443996601232789,0.006750449879469309,-0.005423254365262275
-0.01425511308361414,-0.00491699659292429,-0.04363929704035517,-0.04450506399691833,0.017444326786388405,-0.009546452533192185,0.007216052814113987,1.8300610923594658E-4
-0.012122773678290793,-0.018698827495859723,-0.039499547899880735,-0.05449313217434444,0.01236245152099001,-0.012159872775070916,0.004778323960434082,-0.0029577292964156456
-0.009345654380713497,-0.01407478863446651,-0.033346841053057415,-0.03995811974691705,0.0170507793807781,-0.011131495935095069,0.004609733222996691,-0.004777344663475313
-0.007967922050747697,-0.012139490640944843,-0.027831794532403056,-0.04235974435666603,0.01554608546434751,-0.009089118143412284,0.005147255858438304,-0.0023031254536307953
-0.006678944405357234,-0.007334856127089335,-0.04788418437822452,-0.04482326995828614,0.019697048081898476,-0.008788472184205736,0.007328925108240195,-0.010197082088058083
-0.008962518049260754,-0.012221885360262212,-0.04663227584355384,-0.04599866733809934,0.01876510382305125,-0.014519503696459875,0.010437644848297591,-0.006824579962098354
-0.0148630680146693,-0.019382525496712603,-0.04538165239639439,-0.04720903394943189,0.016271542608102544,-0.014176513980289285,0.0012751615496316582,-0.010504276729657123
-0.004522309055562852,-0.013021566255953231,-0.031293157769570645,-0.040754813697836484,0.019086189892164443,-0.00677211856096711,0.0068678780634015115,-0.00468379917051463
-0.008912870183686526,-0.020259711260936165,-0.034646572681059966,-0.044167501750655966,0.01760230259358525,-0.013313484686709552,0.0020605107154759066,0.0025605799073175686
-0.010062581483683952,-0.008198808181922203,-0.04418210243296142,-0.04739445274257096,0.019660691992636873,-0.014496147931624308,0.005563476505331315,-0.006982145513547632
-0.01267323742529746,-0.021434315405582827,-0.03541084381873506,-0.05193844677466908,0.01599091350449731,-0.01688674028067471,-0.006954985792974649,-0.007589991467256121
-0.008366631156017865,-0.029118546365446977,-0.03168239861663977,-0.04144289389221811,0.022010037394029736,-0.008487241008068296,0.008153560893789491,-0.005137658087043337
-0.0071013052449707655,-0.007281241567087172,-0.03309236291455206,-0.03727936771195035,0.021822599819843944,-0.011013449010253173,0.006128534047538891,-0.003942735825508778
-0.009594588733545021,-0.009528484323120945,-0.03504351745014055,-0.03396910752365478,0.015432566884821801,-0.017629527807957394,0.007500646734809028,-0.003442014937447146
-0.0064647676908527,-0.015197351311855229,-0.04789450943254111,-0.04517498917424062,0.01735792427602868,-0.014615506896526145,-0.0012162704417627362,-0.01101898596103228
-0.0057043740610501345,-0.017248674820131052,-0.0426818659260213,-0.0369837922466472,0.013625015691549648,-0.010110857671545098,0.001853574050496723,-0.003538313445873039
-0.00494471749061958,-0.004732999778446496,-0.0339112838582515,-0.027613582862671647,0.016784950421580225,-0.0147882313869962,-0.0043852857763626765,8.083274326652064E-4
-0.008469497806291562,0.0015750621541801648,-0.03841766969396156,-0.033737954431522554,0.019129156201013138,-0.014581584517655895,0.00270345719766546,-0.0054300674968638645
-0.012136807038852084,-0.008926809093832993,-0.036158055277871144,-0.036931688702044926,0.014028521060733327,-0.012484427382480394,-0.005332298707947455,-9.479301366870499E-5
-0.008515965216482142,-0.010565170715747842,-0.051637962923591886,-0.04008990561508297,0.01261506421035535,-0.01587820685621869,-0.00554051511144645,-0.0026229854120900717
-0.010779013918269414,0.0016299941518971908,-0.04335576084840469,-0.03544015849650761,0.011025475553910544,-0.009870396694056208,-0.0023975679754551747,-0.009185426297194172
-0.0062363720967458045,-0.008863272487737632,-0.038197707908161536,-0.028003300333814565,0.010659329505406772,-0.013516236315876114,-0.003905656375861538,-0.009826763769705775
-0.0015965847365237472,0.005826407637232189,-0.03360510857155715,-0.033105799240133335,0.023087334418110592,-0.017434469858988815,-7.728266329380155E-4,-0.006784226955335818
-0.01397119691054062,5.803361735206053E-4,-0.04580437306850025,-0.04302086412347489,0.013489823073279096,-0.012948018473223605,-0.014688331480727825,-0.01025251719781472
-0.009834960137996873,0.006119398381615421,-0.05179248752532875,-0.03675521192505592,0.01581652605746146,-0.01443867263512577,-0.012002968019282937,-0.012997188425492212
-0.009775483985202503,0.01785423467066388,-0.04976291420524616,-0.0362068983393756,0.013211694985979251,-0.015658286223101052,-0.0023704642750077883,-0.019453334922698177
-0.012866583912531229,0.029507147015574834,-0.06375217016982022,-0.03825543467702784,0.016325385670275454,-0.024810857037386783,-0.001808997485200764,-0.02316987589181537
-0.01210961366954509,0.02730015072912568,-0.06007842423558311,-0.043380960121275396,0.018035098096156513,-0.02020860375720425,-0.006922668020218166,-0.0256723665340556
-0.017865285557209575,0.028150782828310697,-0.07887956013368767,-0.04476991994202649,0.01583055532612691,-0.021551092657387014,-0.006415912919655425,-0.02648789802856809
-0.011684280397766091,0.04508575350370947,-0.07689931436514141,-0.029410662196054375,0.02314296767098908,-0.013394848248093902,3.3976938484362807E-4,-0.015720813509914156
-0.011503787279587261,0.04164593208166132,-0.07536836553426922,-0.03694942939616535,0.01916888827529243,-0.015160125417436724,-0.009033289104957726,-0.019095185126406903
-0.018305321503911183,0.0399726966612558,-0.07872306350361263,-0.04140720478180202,0.014210934269663371,-0.016039777671436294,0.006219542135247518,-0.03388510182242048
-0.01811457161588669,0.04945145366856223,-0.07841201539611858,-0.04358282236716569,0.018590538227894488,-0.019516163647637072,-0.009231744174057805,-0.03171533989608756
-0.024672287091708062,0.0449389429229012,-0.0943934118764418,-0.0421147725144039,0.021173775823683016,-0.01942945125072988,-0.005438492304034154,-0.03205624185308418
-0.013347006433748938,0.05444616301676894,-0.08388728429211374,-0.04128520192499673,0.02030983430294181,-0.018667727647353177,9.479830054569916E-4,-0.024580087681903954
-0.011829183934839956,0.04960878786961758,-0.08532160188803982,-0.041664947224383436,0.014763046345378191,-0.019555045302376665,-5.14939945859251E-4,-0.02225064862136716
-0.018787931593896884,0.04247322678623626,-0.08211328102051027,-0.043005941751067735,0.01752717760804866,-0.01934405527706395,-0.011822114948238826,-0.0341360514035603
-0.013934053512004798,0.03424959786654362,-0.08616145332199696,-0.05227501767413725,0.01569348214929489,-0.022288626585227792,-0.010665199603272934,-0.027582611848846098
-0.01792493316330826,0.04978212293104656,-0.08333355853983128,-0.044323294874371685,0.016822587637778955,-0.014134696752721304,-0.0016348929451703265,-0.004332817536790991
-0.014638631469309889,0.03889155329650791,-0.06353507252872193,-0.04278945316946787,0.0184900707974681,-0.01697683131346502,-0.009955830288432457,-0.01581280799178725
-0.011615192949156946,0.03284183445779023,-0.0678960500816295,-0.04531022126543826,0.019378376449181278,-0.019217548724909005,-0.0037555181564708356,-0.02346361492309385
-0.018794066936236115,0.020136628758908467,-0.07714814070864548,-0.051518292447901806,0.015546577725704015,-0.020848190303217655,-0.008672695081599839,-0.02822179809076646
-0.011532900557948597,0.01789151434158101,-0.06941634384602502,-0.04085523771135345,0.019991865614550717,-0.017517623650531906,-0.005491373256303002,-0.018753794054134784
-0.014481446876290719,0.026854421914389796,-0.08578726618256911,-0.0486349830759515,0.019680604628818106,-0.018510500311948643,-0.00243103757108932,-0.014494367167966688
-0.011412369751680376,0.037972257746838226,-0.08179639303120538,-0.04039897675539246,0.019494698591535888,-0.018031437375123225,-0.006586633844466586,-0.011764247847451281
-0.014550350234939642,0.02936415244668434,-0.07205071837646589,-0.04837993226810321,0.01661304290696036,-0.02445669174000717,-0.007921808608133367,-0.018078576339661208
-0.016523504381860208,0.01445212048978363,-0.07767088105667387,-0.05155297672797959,0.01968753719664141,-0.018976659873849326,-0.013919697069085699,-0.02723863972410527
-0.011354373778000505,0.025561052862793608,-0.059163152304816106,-0.04816015061251332,0.020588698718363666,-0.013603131345707132,-0.006013305609615241,-0.004883723468440027
-0.012858300347079589,0.027228677296016995,-0.07226189386143891,-0.04742600618562188,0.01894336950155847,-0.019949988678385662,-0.008546935581088128,-0.0064025400639731575
-0.014349953495996957,0.028857533838092128,-0.0706037625603521,-0.04825455890196034,0.018625155560811724,-0.017533634020934833,-0.00812172616429983,-0.003619342072853934
-0.016371056779530754,0.018390408649024935,-0.07811296907688113,-0.05579938824059823,0.014473701326014313,-0.020230269220833742,-0.010962374204692295,-0.014037124141681501
-0.020696528918906637,0.017422414227219366,-0.06728313466908224,-0.05137468107902694,0.015703795710872707,-0.016635500092485347,-0.012567654830996075,-0.017831412904122372
-0.0137155100285603,0.026619253917129996,-0.06999488674233516,-0.046004173644960046,0.022587996332812454,-0.01618634524655564,-0.008974838811182644,-0.00363092011965358
-0.013499762426286836,0.029055343200191337,-0.07718785928199343,-0.053006593641920806,0.01956720561990453,-0.017742975390870386,-0.011115863514737407,-0.0018136778342914244
-0.020440622754106987,0.027467313424867384,-0.08092720882140239,-0.052381327094441925,0.016028683320953165,-0.014765167191133714,-0.012611528509555107,-0.007771248669466698
-0.01991664662427226,0.011669958766929863,-0.07200603833927204,-0.054462685194851874,0.013576593366000662,-0.019387967898905546,-0.00943479086646556,-0.012949707603680045
-0.009885613046971121,0.004180396629447423,-0.0671853747311472,-0.05045674442480061,0.0159737188061864,-0.01639991034231138,-0.005215809189887716,-0.0043045485712836775
-0.008807751511686985,0.007390292315553422,-0.06194366128343634,-0.050930226567892645,0.02334461604982123,-0.014665559992572625,0.001458542816997739,-0.0018832454681813814
-0.011962848786200127,0.01763632602533286,-0.06467737410504006,-0.05001348149598587,0.023656548612757525,-0.011193336631046753,-0.002639963093932466,-1.6949939915890153E-4
-0.014451980903477992,0.0095376081228849,-0.06571370438722514,-0.05715828460787547,0.010434390301528276,-0.012991840985920742,-0.006095055714906195,-0.01172642304304088
