0.0406869734738416,-0.019999085418250153,0.07968634766676778,0.054179238310462396,0.02913063779351234,0.04047202254525371,0.055640488985510356,-0.0333730463595943
0.04460189163981512,-0.027886195237261796,0.0677899892816293,0.05225416880941896,0.03011011034426072,0.03751290748229145,0.043315953766025296,-0.029031334442984037
0.035073505864299144,-0.01641107758323239,0.08450786910662474,0.04430089643615206,0.024480365867515466,0.03139590125410872,0.04166315641061686,-0.041909661164312606
0.03905612202852429,-0.02554319354190211,0.07013481010048948,0.051052670184271697,0.021093056202261817,0.035201187633988,0.04600092893994292,-0.03861625401124398
0.03493268787812067,-0.009851392565533421,0.07231999293692117,0.04763096867591268,0.017601078426048012,0.02777165619646286,0.0459265015189726,-0.022807010585365897
0.03566412602542216,-0.018779766048825898,0.07210767643254942,0.04382118034467474,0.030714833328943515,0.03127318705048013,0.044105406063655976,-0.020897900565627903
0.03643661744042962,-0.01701221470531002,0.07129100447627636,0.04426477779730532,0.023554413379867016,0.022047505605847968,0.038819833511400996,-0.028872926527698305
0.03109417432438007,-0.013472105293197091,0.07929659471042415,0.046548484887855936,0.025401147591049906,0.026674926004548648,0.032741438623851836,-0.030049457926036537
0.037944331385624,-0.016667881820071208,0.07559128142947959,0.03679976252708499,0.0229295340312762,0.03093331095058611,0.03611603605816522,-0.03300392217904266
0.031614768322995854,-0.03476647033466276,0.07069147655431982,0.04223801892377726,0.02157941663335769,0.030618899087736684,0.03576431467667615,-0.022363319063978853
0.030561971602841447,-0.0216191865263749,0.07738878394003926,0.039647993154037886,0.028914308351125604,0.033942027891201126,0.036181251194549624,-0.026179334906839834
0.02903441314874944,-0.017786826007609363,0.0630751723661958,0.03484209434042327,0.02344085353866606,0.02558574818614942,0.03847685646662109,-0.02385364434314257
0.02812410914414687,-0.01550822357643739,0.06644176280876288,0.037319685183313134,0.026677831189303145,0.023696520052195708,0.041325901934975755,-0.028030045840844175
0.02322782317528083,-0.023928030684077072,0.06577208746001184,0.03778291671372792,0.02152305461055059,0.026435538432199493,0.033126109576706884,-0.03046859964179905
0.0308070050507116,-0.02238687265843592,0.060488866040989145,0.03525038560220213,0.02066858334128157,0.02501080887856203,0.039596934050708105,-0.03151611067120534
0.029809528945698986,-0.018964131223679636,0.07173495793981634,0.04439740160403775,0.025788865439511168,0.034731465041459804,0.033929068199590726,-0.03200150069762451
0.023040393254392656,-0.015622643555923734,0.06755392961701683,0.027465605798024612,0.019646819279449838,0.02528776563109005,0.04417040703420924,-0.033857133305961754
0.02989361222916693,-0.017956798364391707,0.055179824020987936,0.02410212976430044,0.0240977154848777,0.026296543552814005,0.03345370742684802,-0.03906569126750895
0.02256796119082321,-0.02780990755677464,0.07070550987842562,0.02940883322573535,0.01630921970375494,0.02122223545585083,0.03827802374791014,-0.023925195033506076
0.026840091083162095,-0.03642429520627949,0.06505861925895529,0.029935354537679183,0.019768128120700282,0.019628127317120086,0.018923838174697106,-0.03766765299342946
0.020550849682488048,-0.03519472663393464,0.05501531409713671,0.02954211751061616,0.019430543827136843,0.022503650760860423,0.025855893253712625,-0.026044891371691418
0.020140237038176093,-0.039566153159967005,0.04898492075847949,0.022737505132781062,0.020017463768240797,0.02811660310174413,0.026750243151096906,-0.028761348649272843
0.01359225725620475,-0.028099267355929897,0.04959079125713693,0.020007109218841912,0.013960866151039067,0.02101468122933419,0.036931919890707016,-0.019232244468940517
0.017501897070998997,-0.04041131772508745,0.060297311072965695,0.025208178817112854,0.00639523055621863,0.011917387383146216,0.03448768252110664,-0.020488860504403263
0.01673950300311512,-0.05241774851274762,0.059854527223696115,0.015359250536987886,0.021518569662983985,0.023861265951680442,0.032260027875938554,-0.03618804764634386
0.01732098641718555,-0.05818322083694601,0.05498045411969927,0.018815540878632204,0.009515152601054984,0.022246274320265005,0.027406565395603207,-0.02885045753916326
0.015234108460386756,-0.05558960838524132,0.06025787242583241,0.018236514529869147,0.017971543132978704,0.023702126047825782,0.03042368866085482,-0.018548253469132484
0.017855728067932862,-0.053283287006036614,0.06762175798287155,0.013482974871759916,0.011496531401847391,0.019515510716426942,0.029076312780505174,-0.011624905851710575
0.011067794423102045,-0.054206320189025534,0.048186934385716786,0.013864354209933054,0.014354529709760732,0.01760197105778565,0.025172022324523705,-0.013505945095454538
0.012619490657841202,-0.06353466314978604,0.06347209178688619,0.006886518774341266,0.006924588867769225,0.02269236386624238,0.02569538985836075,-0.024174368175261876
0.01382351790011228,-0.07220628120039073,0.04684292409747959,0.018977465726669078,0.01268391595427651,0.022359496161034057,0.03672031090574748,-0.03277081003672571
0.011737289592752803,-0.064226173095339,0.04234818002175755,0.015706492272039796,0.019421129035560113,0.021570039854370792,0.03717522656337092,-0.029804896990371057
0.009394529309651478,-0.06891353115573122,0.042867874340730604,0.012031437062724576,0.01575768590903444,0.026488565129418502,0.03559890117606407,-0.023231343616682127
0.004867678336424149,-0.06627700010204572,0.042355497368806616,0.00866556521238187,0.015486122132044965,0.02259464936508671,0.03700232537602058,-0.026341557400607542
0.008424809513936213,-0.07266110657987597,0.05440343320928235,0.0036220452376120684,0.0062797884126778655,0.024567332934637153,0.040121112026247664,-0.026792253701050192
0.00312955281672498,-0.08042695621497183,0.04668141810153135,0.0016236640322789475,0.002290314893889148,0.02961662702141166,0.03680456473516614,-0.035520869404363456
-2.4351369629358347E-4,-0.08836027915422376,0.038216306326030125,0.005841117865229463,0.008001366033323791,0.019080824273580235,0.04030709955135262,-0.05587602630994101
-0.0051485369929992735,-0.08352794998721867,0.036763173094357234,8.344724035425977E-4,0.01093519921738449,0.030934818925739786,0.03989914116535952,-0.031225601498242612
-0.003954752766943389,-0.06718754918890361,0.05291987173032855,0.00341715939486153,0.012790001980779373,0.026912864321076493,0.04357147753053774,-0.02081398572769559
0.0032871692578807805,-0.07209306426160064,0.05022795882487205,0.0065531193542592925,0.007414069825376743,0.02076987138385363,0.02973553044684765,-0.02531436286787748
-0.0016370930234228952,-0.09118794972124623,0.04822402272625924,0.0019014914472329856,0.005750537215312733,0.02797974452462049,0.03717824758056426,-0.01979381649067872
-0.0024686604035628833,-0.08224563484682071,0.045088308548738985,0.0022307394683067283,0.0010692958349503856,0.025707266112491637,0.0367995574011272,-0.035762815303778034
-0.009173501687339656,-0.08596130320332947,0.029819984352442354,1.0879488050578595E-4,0.0033556691992198337,0.021389377939181477,0.03502590820185586,-0.036924600639430066
-0.0012503440507934515,-0.07665092698991335,0.03403808017657775,-0.007083002653962084,0.012144592979512942,0.028257395986421595,0.04973794243350185,-0.030892192278043514
-0.009387885338549895,-0.07809069188055567,0.022162490976705976,-0.013156821050125618,3.8126304068323674E-4,0.024420572697573806,0.04458327027258055,-0.029522957651669055
-0.005810359578311842,-0.07284924329505507,0.041732151305151954,0.0010984282286297315,0.009883860844359297,0.027329860001014387,0.04167586904029945,-0.043401856292366266
-0.004997499289166294,-0.09322067718383323,0.03531006408157459,-0.001950860377743851,0.00813679434026608,0.02885536780957162,0.04938844564510398,-0.051771408020262435
-0.011790518229042793,-0.0935279657938674,0.034618866554705974,-0.0049685988769451305,0.004894141543394285,0.03416555270745196,0.04944118498285492,-0.06626522721513121
-0.005248862288248218,-0.08380792699052078,0.03646058877283409,-0.006914439705087963,0.014244814062541146,0.032214870218831994,0.04449166440564272,-0.03076346301127645
-0.013732237983008239,-0.08124560749948576,0.03018435775554315,-1.8044529765471001E-4,0.005508429004853792,0.031827787377531586,0.04213808483374108,-0.038144812165959864
-0.006333582290061325,-0.09540583283731723,0.042587223806704155,-0.005197657894998816,0.006582060763046315,0.024878706936366825,0.03574162231506727,-0.041860214799985015
-0.011582675370839969,-0.10092509632499387,0.029806940865683643,-0.005167776820794804,0.0016370274208361145,0.029790150117114115,0.042337130213292246,-0.042340159015952075
-0.014571110906611446,-0.08514615145733176,0.033061185377097874,-0.0023885845660899002,0.007686812392957462,0.03125140301749161,0.044847292570238444,-0.034331085173565645
-0.014530291746806133,-0.0917055527221637,0.03647646328186301,-0.007305464392934381,0.007989123461895727,0.033093964672582264,0.05747130509208555,-0.04092890002524876
-0.017751685524458143,-0.11025485848932796,0.0430905339252226,-0.01629887576917302,0.004431307313030519,0.03317789032205366,0.04804227280177567,-0.045661256054523335
-0.013790373543072106,-0.09573131965639378,0.027454488276689396,-0.014692800801185795,6.475770205318735E-4,0.02351573876376484,0.03987233173964527,-0.05146066689201977
-0.0193936927415137,-0.089479255065729,0.018344886020502268,-0.010848237479653694,0.0013939814383712073,0.025096587743375805,0.04660565029659224,-0.039575977476880006
-0.011953540442204622,-0.07725261380957767,0.02514181711026237,-0.012076583496595995,0.004407590139818057,0.024055230366692375,0.0465699282693548,-0.03596387689192398
-0.02533701952594603,-0.07802228263910785,0.03862087778349072,-0.015616908871567371,0.0018551812915319685,0.01979300201450144,0.04732583219737904,-0.02724655534051838
-0.018883470374703185,-0.08177703422944287,0.03057097253156689,-0.013637362834544033,0.006151128065683955,0.026378722237799985,0.041542299069232715,-0.0504068441470461
-0.018225371608663495,-0.09576682121058744,0.030761832279674342,-0.022015339299359726,0.006841083262046532,0.017347168120955218,0.038512817547409706,-0.04845822309108286
-0.01836307609317585,-0.09461025837986478,0.019469513267390645,-0.019261058254265145,0.003338779282345995,0.022388794326708594,0.03804978563040714,-0.04541992311358982
-0.016811853804306807,-0.09745233280299329,0.03010858828097726,-0.021429146848937066,0.0048603094837326305,0.020688603820985606,0.04028486059544907,-0.036452127820014626
-0.019804671165211084,-0.09311481813720504,0.02742506351047485,-0.020949298481523493,0.006338832428615942,0.014243861207910645,0.029046404825295552,-0.04606818294737347
-0.01766861660965848,-0.08579380475524208,0.03035061342799876,-0.019276221312727947,0.006597602647195735,0.020376256398726898,0.02879472088140489,-0.05508464441036882
-0.019813689000156336,-0.09855620187787295,0.01891943795166301,-0.017230075006254512,0.0038816110455881852,0.013178427721066002,0.022763788674237583,-0.05633049312873623
-0.025570711484508245,-0.08408787222983828,0.022782070886759914,-0.03156003702583169,0.002000782173049406,0.01189142254410695,0.028299262893632594,-0.05612668726418948
-0.02624891406622815,-0.10156793912626531,0.014875100701840097,-0.026746986540743044,2.6043441111414065E-4,0.012972818407942578,0.02766791286807479,-0.05284870639822931
-0.025033751451253583,-0.09505505606900974,0.020686832550896008,-0.027848254497846375,0.00201277576045401,0.018585490408174987,0.03082375241118805,-0.04136431761868351
-0.02688782301049462,-0.08965164028061137,0.019837069383549205,-0.03365889696503217,8.135651828210579E-4,0.018035492334343015,0.02235204710238504,-0.06460527221154636
-0.02586909953131177,-0.1046159957661168,0.021893473469711766,-0.03387094521794387,0.005449718993280241,0.006529309321403521,0.024982230140817924,-0.06638910719360003
-0.02867182408511955,-0.09806175677032594,-7.111286740034605E-4,-0.03145763808082954,0.001075178167909355,0.013520104023297527,0.028195547370790087,-0.05781957312033197
-0.026202875301648693,-0.0924328435192257,0.012224257220522564,-0.03501003009816999,0.0022200701276808787,0.0160820848568966,0.026657680082108264,-0.047733824391767155
-0.02675824624204803,-0.10180607485104072,0.004229704275672795,-0.038799428527316125,0.001929563509175267,0.008333345261643851,0.026881485061053718,-0.05275365684247091
-0.0364525667217673,-0.10305798029466012,0.0034822055122196586,-0.03278227798347581,0.007778480423067124,0.007596694062602638,0.020893202503164565,-0.05951976200342065
-0.02934995143841262,-0.11299292807814329,0.0023850271073453683,-0.03976850584468767,-0.005188427156517546,0.012697750959163387,0.02115451683948912,-0.06927566725128124
-0.029528957723455332,-0.10374886702724118,-0.0015243205855456847,-0.04060670595618493,0.00845643768358231,0.016934688053907455,0.0218109842201394,-0.04516981855123139
-0.0288638747963642,-0.09837870535246429,0.007729066577601128,-0.04143302562137408,0.005451755545775269,0.01563055094641043,0.019683162512698818,-0.05990055378908016
-0.03397846882204229,-0.09775974715771303,0.004524563211946425,-0.04664537084039647,3.8143653569487303E-4,0.011948883037228155,0.025332173313108823,-0.045748454363329374
-0.032577219952387035,-0.1140700054083438,-0.0011823793279309759,-0.05100264832388563,9.545382224336134E-4,0.0013738493823498947,0.020849273912382123,-0.061697436124027345
-0.03596804034340671,-0.11003706039848289,-0.0024755088095707077,-0.04863499580842455,-0.005665183372167033,0.007820769525246874,0.02175442193089802,-0.060438428456822305
-0.03378306762832569,-0.1045368886708311,-0.004836230379269289,-0.04916224029345258,-0.005371548660415391,0.001327954833303702,0.015366064680134527,-0.05363554158967844
-0.03546023815979979,-0.10421903769049684,0.005279099757963477,-0.05409862354157367,0.0012019507279438,0.003442907642538702,0.01983603432047786,-0.05032048322627098
-0.04038792215737559,-0.10779839688647544,-9.145132026579922E-4,-0.04707840476469211,0.001580885436213139,6.988336326293038E-4,0.013779940100062314,-0.05136083458782779
-0.040211258895256126,-0.10866533526982827,0.00531926371298606,-0.0521563432509269,-0.004145440966112178,0.008487915237200232,0.016771910860070967,-0.06552254795258808
-0.040737823201636505,-0.10657863804720198,-0.01154429776117981,-0.04914214609658135,-0.003562342729098768,8.70112501599054E-4,0.013372427631508614,-0.059687017281425836
-0.03758990225639721,-0.10691331985430055,2.951913285465302E-4,-0.05638440890339772,-5.895729474561113E-4,0.004936904117868931,0.019644041505053778,-0.06068397988260465
-0.03808318655771149,-0.10467856742233969,-0.005780313988557131,-0.06273765302229256,-0.0035924537800100737,-3.7038960547908705E-4,0.010140633864929185,-0.051468052588728594
-0.03863531283763177,-0.10941383163324427,-0.012544708693395924,-0.060890934380819974,0.004227008149887715,0.004419262568591473,0.013403972336677996,-0.05010791356983221
-0.03924107209825597,-0.11181221624966235,-0.009982272319238926,-0.05654282438613423,-0.001984440524465703,0.006537574980361001,0.012853947129645778,-0.05310816507492736
-0.043904535108403996,-0.11812779502689516,-0.014420990934419077,-0.0628882035448997,-0.006386569911701999,-7.27690169248007E-4,0.00964275233068634,-0.066510167127618
-0.04810067458774341,-0.11624814943654628,-0.014634230296138582,-0.06236343477863537,6.339378428591645E-4,-0.00528600704764621,0.006002337811333527,-0.06084016058414534
-0.03806817792933476,-0.11315356157352816,-0.014840893768550975,-0.05520502312245623,-0.004470354561250074,0.0018928263346554388,0.002125554972135063,-0.04648004985029897
-0.04570538553784103,-0.10846611496025493,-0.012867983111602284,-0.06120385187185564,0.002312634223799756,7.450671049046867E-4,0.008093048206818713,-0.04612089292281941
-0.045548047779318486,-0.11170497634971567,-0.01449389218885462,-0.06121172191986697,-0.0010005637073870531,-0.0040871843791925825,5.016699367525559E-4,-0.057450366740600424
-0.04966998454252564,-0.1203142772834426,-0.021073187320297813,-0.0690158157780962,0.003222555143891365,-0.007885959533158484,0.006978377923482412,-0.06508423777748215
-0.04702818492888558,-0.10967381856432791,-0.01836495805112918,-0.06276312725587702,-7.887223260986979E-4,-0.008753695422391902,0.006109669780153399,-0.0691916886203535
-0.04492486015338057,-0.12294464846078935,-0.013094159271039046,-0.06296452221721371,5.22933664191939E-4,3.3872095070277246E-4,0.012186026866815492,-0.054353643368287435
-0.045718484199507727,-0.12493089281335579,-0.010605127190576907,-0.06392359688307717,-0.0014525456066770694,-0.0010231961129748988,0.012190524274331151,-0.059348246444711865
-0.04108722284781406,-0.12494673380080325,-0.009103561621851176,-0.06629062575949876,0.0037769932806310815,-4.24939715405984E-4,0.012329071722375802,-0.061739760326159035
-0.04589289348775278,-0.11876426686756018,-0.022999968033043994,-0.07184040053392435,-3.4094118803260147E-4,-0.0027576416828041217,0.012091320646121995,-0.06813276763341267
-0.04756288153341653,-0.1264306305162248,-0.017552372664505454,-0.08045851334665967,-0.005330532156507751,0.005518056727625856,0.017494439242152625,-0.07196602498348131
-0.053015002940719196,-0.130712700924882,-0.022279806856701646,-0.07834670844079958,6.43123408384701E-4,0.00221474595934794,0.008125495281263608,-0.06608267737892003
-0.04634316762585895,-0.12805918443197642,-0.008244852175169216,-0.07580974287378368,0.004434856810735712,-9.763271656914381E-4,0.016433788137887637,-0.0637395259741753
-0.048272215260877806,-0.12153310538059497,-0.008892931953536845,-0.07268077602910185,7.811397971865224E-4,7.633383543176675E-4,0.008921606847718911,-0.06672662238719906
-0.05279107296748124,-0.12956738822878452,-0.022682000847516946,-0.07554555487188569,0.003712859759393418,-0.001610279970914446,0.011098629143599067,-0.05479427149228355
-0.051835865940382475,-0.12772369907778072,-0.02181869529421195,-0.08205506664769188,0.0010198794778100452,0.0020495597459456046,0.019943824174563776,-0.06738407421244355
-0.05995870832841223,-0.12739535726611578,-0.01866551249232382,-0.09004840580688371,0.0026872018468468853,0.0024747117770544873,0.016284299162550683,-0.056745845787054244
-0.04919116538727525,-0.1190505071469598,-0.005665243507977614,-0.08325282036759879,-0.0016704096575019102,-1.7040931948892528E-4,0.009032875212894335,-0.06262920945104711
-0.048154238497626387,-0.1227382880259571,-0.024617501536613517,-0.07677957977996815,-0.0024226742485854405,-0.004463182567471656,0.006648963678019989,-0.06220439445325525
-0.059786281729302136,-0.12440259366632542,-0.03847199301854383,-0.08118310526359229,0.00364126023528724,0.0014513999357641289,0.00942525373809796,-0.0601117968756763
-0.056821815902221,-0.12824445823862624,-0.02409122848874067,-0.07365091079035387,0.001536866357264134,0.010656599587844208,0.005074661937205575,-0.07125806146810928
-0.05698956555077346,-0.12712956088425614,-0.025385116019625214,-0.07927298161541202,0.003869153941164807,0.004513424445191516,0.015357985172118742,-0.05109423525457842
-0.05603931248707206,-0.11442322041058145,-0.02124824816702107,-0.0870295005590282,0.0022955952771068237,0.004007531326168003,0.019514435559326943,-0.06250360330700229
-0.056607549669440274,-0.1207430828768435,-0.02153734388212146,-0.08422463090525768,1.8312996372336226E-4,0.003472875655648954,0.01215893889672773,-0.05347356758395225
-0.05534952868517727,-0.12674583310234375,-0.019841097337568368,-0.09171416186409954,-0.00431679823427551,0.00194496231524934,0.018289590251553283,-0.05464539464947086
-0.056357838199550835,-0.12776317766695586,-0.021355801187685215,-0.08429586891453132,0.0074676125045094665,0.004999698385073317,0.013740191166278571,-0.06225232178661856
-0.0642724450713182,-0.1238193505288083,-0.018842702518905713,-0.09000377355884671,0.002542367308195911,0.004056140129369212,0.012346719546204152,-0.05609373062189585
-0.054621586239760114,-0.13006426593172946,-0.026443915123203324,-0.08671347925215399,0.003530032767075498,0.010178366258112127,0.008937968638516536,-0.049650746376507585
-0.056575056476803276,-0.12551794464245386,-0.017278458717342626,-0.08963207479734663,-0.0072253021721164195,0.003425789311784278,0.018547266333221374,-0.0459374242874225
-0.05912274972038902,-0.13068034420553817,-0.03660705057498555,-0.08301932575404455,-0.008727445033080853,0.0035069610887947787,0.012844057126562213,-0.06590242350510604
-0.060915157214672,-0.13172596507996007,-0.024652394838764777,-0.08705878343059217,-0.006693043793602684,-0.0022309821967803098,0.008758303057206578,-0.06957734412843025
-0.05540766449588827,-0.11989958420734417,-0.032007493455431135,-0.08745842275124337,1.3334474644770538E-4,0.002453813993165255,0.012043009053117205,-0.05271955768805033
-0.06008195355452691,-0.1364962513874487,-0.04012846962728792,-0.0875266869610545,0.00428544538054274,0.001587812182774127,0.021946083232054846,-0.060970715161333566
-0.05854996003903474,-0.13770241598413985,-0.026915555595919217,-0.09019499864463118,0.0015069226992785302,-0.002142090794990423,0.011299015173171846,-0.05968084892127564
-0.06438962231284785,-0.13019989771984097,-0.025887225191467737,-0.08672111123354556,0.004322809964356918,-0.0026516120230205263,0.012801289175544399,-0.07334955414925648
-0.059520818326267565,-0.1406308358290022,-0.022587458259300544,-0.08959663880096404,-0.0015716121269370653,-0.003812175165900176,0.019796856799248197,-0.06165156747369716
-0.05767214184702568,-0.12836060113821388,-0.019505808432129207,-0.08895537978807182,0.0016985710475948277,0.004231156800057585,0.015926509141392126,-0.056034991079948075
-0.06101085325222483,-0.13591576021559423,-0.031226252315881747,-0.09304479437208482,-0.005507836544802665,-3.322382827652881E-4,0.0044867701847086635,-0.05700790394305111
-0.0645295273179935,-0.11988226863764258,-0.03722683577449964,-0.08976307795687066,0.003060251212990931,0.0034418615563070946,0.009010223003012973,-0.06329302311529293
-0.056313561124019876,-0.1278219085394679,-0.034079474894507855,-0.09433209411766014,-0.001706908648493397,0.0010939122255644832,0.005546019183461541,-0.07297592622980995
-0.063173295069501,-0.12519494025231764,-0.035068174365413395,-0.08730254655801827,0.003476954483250974,-0.002655372243614533,0.010717527618960426,-0.05679808591336846
-0.06084502238850356,-0.11488816230401681,-0.025013643003290058,-0.08629130545226285,-0.0031469506540594263,0.0014571110032368865,0.014143418600779218,-0.05546276885990572
-0.06192906165043275,-0.12224874381025985,-0.022704283281549633,-0.09196197991755926,0.001525413574095723,0.0032246919320300708,0.007125747200387279,-0.0668365777747755
-0.0630118219590491,-0.1356984290806099,-0.02846118435044665,-0.08845199457504282,-0.004616508273107745,-0.013187901344955245,0.011801033357994829,-0.06954038416426081
-0.06210021252600395,-0.14024984632743884,-0.029310680343578244,-0.09570220838957552,0.0023560622988885605,-5.096519288557666E-4,0.005786259412780397,-0.07372068017627806
-0.059474841722655644,-0.1321961472259502,-0.03834121561296426,-0.08399127333470198,-0.00392928529104485,0.0017364639735088414,0.009905529082694535,-0.06563405112552888
-0.06828376038511123,-0.12881389719755418,-0.031150900785505198,-0.08921939130878045,0.00266733584231279,0.0029285580307433154,0.005611610373454229,-0.05548317947287157
-0.05871010174722276,-0.11846569305251568,-0.03496045636287004,-0.09418656471095746,-0.0030366458862940587,0.0033317193603216665,0.008802262032715754,-0.06038641049109981
-0.06685075985740331,-0.13479992630175638,-0.027529539756002062,-0.0905800182504276,-0.003491914172764775,-9.662035207477111E-4,0.011993766779841656,-0.06656934140235211
-0.05919947644027414,-0.13352287599032467,-0.02735802145933439,-0.09011000745228248,-0.001988104986527409,-0.002641415917610281,0.01014034691580121,-0.08541770522139568
-0.05857092562600919,-0.12677646275702034,-0.04006223043411944,-0.08577909720460493,-0.009037786203005296,-0.002725140050703676,0.01661206492978752,-0.06983797891358774
-0.06348398241758232,-0.13010987106370195,-0.03071366399056444,-0.09517023518163623,-0.0015886053615467041,-0.0032122441935499737,0.008547792739462148,-0.05134757115370626
-0.06566174385216578,-0.126507247240706,-0.029596813417819393,-0.08348956931072546,-0.0048139368626551335,-2.2795795818441616E-4,0.010453357954691515,-0.06547765154631922
-0.05742876442529648,-0.13813456911110739,-0.030895158436443058,-0.09281308648741506,-3.2906776250029343E-4,-0.003667299169406838,0.012371491637427299,-0.06757209999921215
-0.05868947105295521,-0.13614548030655343,-0.031121441787957928,-0.08964068696928341,-0.004640409318154046,0.00575864004532132,0.007813860969374855,-0.08119753318704549
-0.06753567808944963,-0.1319371228981993,-0.032101287832725096,-0.09160393846004945,1.655511455738097E-5,0.001413474862232981,0.014750267846771258,-0.05704715533929504
-0.059967555345589806,-0.12639352722609556,-0.03089697392159441,-0.08721693995001153,-0.0025627238996973473,0.010142822240487369,0.011004820399429694,-0.0511601225716035
-0.06162605281896197,-0.1258218818982371,-0.028097871447609776,-0.08818710714186305,-6.67614697603733E-7,0.0033945813477246414,0.010736724755612846,-0.056339635407279105
-0.06766074035013,-0.13151868693066396,-0.02902789839075366,-0.09142601195137522,-0.002929200816925406,0.0023121525057964495,0.011887885180475849,-0.06335039044995006
-0.06258540685901934,-0.14597649257387516,-0.026677121500765327,-0.08364985205821908,-0.006366806017816239,0.011621507366252512,0.019587056561654662,-0.07029664779423336
-0.06402609460227249,-0.12320615902476899,-0.032012712014383146,-0.08664119979807228,-0.003421264695647419,0.008367966898204751,0.023283339875604048,-0.051169478160526236
-0.06658818941747241,-0.1253739589406147,-0.04516396738166385,-0.0941741850412317,-0.0021899013962529026,0.00840624489031085,0.01577239905489875,-0.06295979146649079
-0.06870696950521935,-0.14027761692074295,-0.04074145988575596,-0.08485696295473863,8.482174607566732E-4,0.006439079545568042,0.02314387632337828,-0.062427396784269125
-0.06492036606171586,-0.14220963876422707,-0.027025500651597124,-0.08946089637201401,0.002338816399753279,0.012535262340104039,0.026415240131950787,-0.057031784987208255
-0.06425873298507134,-0.13279138551246747,-0.03555405021843068,-0.08653756595599922,0.0025229627034945696,0.010725203735797903,0.024378840775257614,-0.06894318327238352
-0.061095732837543555,-0.13608895037089633,-0.02590017013014333,-0.08304306962037025,-0.0031562853422099184,0.012561620691373582,0.015273309185517827,-0.04832285623109693
-0.0679256672872,-0.13411841269420446,-0.0328245174576262,-0.08670311622735512,-0.0019071227310409142,0.006130049789390803,0.026120226944934766,-0.056491469538020894
-0.06782189712739677,-0.1342602861489088,-0.03663899673207693,-0.08813344796470209,0.00777843099115009,0.016739655413421383,0.022413342865828106,-0.054846323340050705
-0.06820917422585997,-0.13861432099013757,-0.051244817929809,-0.09151119193231454,-0.003743106201311669,0.008707873242021845,0.02387269526112888,-0.06414602006597904
-0.06398659335640786,-0.13166183861275413,-0.03747273100668573,-0.08176826922065343,0.008871905305835572,0.006270759712525839,0.031126351027369395,-0.05582698579297504
-0.0655535539135459,-0.13733095525699124,-0.04333197839858342,-0.08354686723306602,0.0013201974506454432,0.014612296437980215,0.030040102282938668,-0.047743441123194674
-0.06437441826688077,-0.12702678317927354,-0.021967685160280703,-0.09633622277959945,0.003152844984217608,0.014959575130496422,0.023683906011857263,-0.04594122909688627
-0.06271998978046577,-0.12689469589598434,-0.030458767747063475,-0.08790868670187206,-3.286584220186581E-4,0.01360968537543558,0.021451105648270494,-0.06042858629320062
-0.0629651923948064,-0.13851230131685222,-0.025206416754967046,-0.0851598950295923,0.006101487410988827,0.010242260043162298,0.01748049066637488,-0.06694700726125415
-0.05846484430353659,-0.12373953128037316,-0.0267440794609969,-0.09482835983830695,-1.8467345203513293E-4,0.01517965548623109,0.030659159002655652,-0.037998390817993735
-0.06175895794341797,-0.12143410610144162,-0.03939965745460688,-0.08363475133747592,0.00444323979879404,0.018163854520420568,0.02890552708173082,-0.035913807138139305
-0.06490702335768321,-0.1241517167251501,-0.029184658523147895,-0.08266493549327689,5.220849265462166E-4,0.016735048315194605,0.03171861199947827,-0.04934347246885583
-0.06128701587904164,-0.13472924163018926,-0.027235446988540732,-0.08453223381749292,0.00262991507625093,0.016596677163886103,0.02868770537628336,-0.05715088108680393
-0.062119547841121135,-0.1342191918227133,-0.033642361183216944,-0.08636509819968168,0.001709477473228438,0.012744250591024195,0.030959283916649965,-0.05478914494169166
-0.060436650238442205,-0.12087294650197147,-0.04267306949433466,-0.083217824298654,-0.0025706197201782223,0.018194154432576774,0.018324883147501105,-0.04119912480214079
-0.06157532830595351,-0.1189649736625165,-0.02994534643754848,-0.08315294998305776,0.009022053396947461,0.01163801251550337,0.022217209687864274,-0.0549692417926521
-0.05996836810350559,-0.13116676864872395,-0.018731315180248353,-0.07826342134398939,-0.002363590022921703,0.010336207797174408,0.029532742077504285,-0.055021851221919736
-0.06353547003350773,-0.13020166934748792,-0.026292885967015674,-0.08038083731701616,0.0050097634979702115,0.011446699756858015,0.02241841293543959,-0.06851920184970227
-0.06074716850771785,-0.13886257974960792,-0.028741499848297287,-0.07452534588220988,0.007014903225794951,0.012568826620763258,0.0281860930966812,-0.04964162022611802
-0.06678666533852118,-0.12072239095552036,-0.026254335246325616,-0.08368255563459297,0.004664741141939594,0.00904381325279723,0.020315438729509305,-0.045380823695929516
-0.05110581772189581,-0.12718431570217636,-0.0426484649058079,-0.0917296988294131,-2.448934825536954E-5,0.010996608282997101,0.029168674972332803,-0.05484965523318623
-0.056113959751088294,-0.12633848295129224,-0.027775181540668836,-0.08379378534533885,-0.005043787931861937,0.011681549473956634,0.021839772628987255,-0.05179200026045557
-0.061889824447658476,-0.12228834163327187,-0.022104919809058342,-0.07658021511619209,0.005820976862672048,0.01362280614297686,0.025620408012949063,-0.05256838972916676
-0.06339033223677057,-0.12094071515103882,-0.03189572096723285,-0.0758441279272949,0.005742308020873983,0.016530544383950067,0.025803392708425296,-0.03145842439051556
-0.06304629442837656,-0.11857982326379302,-0.029940234268475585,-0.08613017060812833,0.00722591441681138,0.013953796144829203,0.020072412809677476,-0.052780970106422444
-0.05320820337317006,-0.11619416999002591,-0.02642084086693058,-0.07370172116891878,0.007132924613823228,0.01209438808210195,0.02121651643382682,-0.04155550600042238
-0.06558445156788432,-0.13076968970077188,-0.021610140417192097,-0.07248805738513094,4.2298167201945165E-4,0.011814905390817558,0.026315885781592465,-0.04233507087952905
-0.054827342786886286,-0.12886433840030825,-0.021214287549324033,-0.08182141903958393,0.011829975214382105,0.015373644383197224,0.02324812304287801,-0.04809036882917485
-0.05869011395007348,-0.12303430577941182,-0.01967463575652049,-0.08101499629404964,0.0069404308569631775,0.015862602232231817,0.03090349611031942,-0.050835045141413245
-0.051886617092478715,-0.11153097482545579,-0.03173075610175572,-0.08415956668014837,0.004725598904542095,0.014660127054253985,0.027350746214155196,-0.039588547094202016
-0.057547032757025496,-0.11426076365114651,-0.029449811032947932,-0.07524182472612467,0.004839005881695825,0.012525357192315826,0.024172500116378514,-0.04166581448160073
-0.058120536620177424,-0.1290028116012863,-0.016979707893625805,-0.07696500155440551,0.0036904382071881025,0.010817700517923249,0.021138218208041903,-0.052471021093268774
-0.053362348687766424,-0.13515814339253943,-0.024277874642921884,-0.07045252926460724,0.011123330069195527,0.014053967357844224,0.029032697820794245,-0.06030742928300633
-0.054179757606167,-0.1252256792226534,-0.019591766820996264,-0.0760708711022359,0.005757747119566887,0.012451769069942373,0.02378419808035338,-0.035309435371036396
-0.05569888251402579,-0.10058502117771333,-0.021120627616785098,-0.07982400447528297,0.004661527447138372,0.012205950163825984,0.02410618343611086,-0.0314640021203253
-0.0577035641658615,-0.11854861117068831,-0.03134592114075658,-0.07549616202305774,0.003195285336726148,0.008214869472259011,0.023231427735013004,-0.03575388201713154
-0.05554027440429856,-0.13107944357165904,-0.0208187113575829,-0.07797685114828777,2.1904687247922556E-4,0.004402558962414979,0.022968130082140152,-0.058766177601848595
-0.054983160739636695,-0.13828403285869392,-0.03258453254358803,-0.08038997612708465,-9.66276408347433E-4,0.005815314792679957,0.01801307695797979,-0.0561095022329973
-0.054936277290940416,-0.13451413582720623,-0.022972788371178596,-0.08188483952830344,-1.8410140593883655E-4,0.010271944543937987,0.020926960108605955,-0.04434054204113585
-0.05273460593203101,-0.12340801958911737,-0.026762328343155603,-0.07848430588373156,-0.0026593814465521305,0.007481299207811798,0.01585210940940587,-0.032267766194611136
-0.05408536802936466,-0.11845703845439716,-0.019485476811555262,-0.0798736384251309,0.00296817916740579,0.004414598169856481,0.013130586682473014,-0.04335999929774642
-0.05483767793618536,-0.13420555482090207,-0.038921869184042106,-0.08049119596686642,-3.5662749124185637E-4,0.00726809897276298,0.011354572128874373,-0.042945556005538635
-0.054996210880413406,-0.13487377109800075,-0.021590728052939635,-0.07686043235267416,0.002155244521714684,0.008408571362886155,0.012236680101764692,-0.032635352095249856
-0.055316903888131944,-0.12828260645878498,-0.005043533686311942,-0.07477852849684267,0.003952447998623712,2.997158352011518E-4,0.016520301716277254,-0.03442502127049913
-0.05223247588447174,-0.13137377712924336,-0.01967361119588361,-0.07322663999542432,0.0010732956610966758,0.013015130494996746,0.02394193597078992,-0.02398447716669619
-0.050601466602982884,-0.13034820282953233,-0.021729301377443618,-0.0759725489142496,-0.0017094272490796667,0.014630334508964669,0.013502571132097352,-0.01487740710539065
-0.043498594462795206,-0.15243324995482105,1.0992433064394266E-4,-0.07173019584786941,-0.0015208561299600108,0.0049126639890398295,0.027106816140727682,-0.03514080815920243
-0.047815230684012645,-0.15000918819506404,-0.0010535929929437985,-0.06511422895000223,-0.004968186686259505,0.016176706011158986,0.03229978059906411,-0.03652802740422423
-0.05331285043371456,-0.15106553254586444,-0.002598343754667706,-0.07108972285668282,0.002782750469623354,0.01292935520412598,0.027838647170154586,-0.018653074984599657
-0.048219388050899176,-0.14058991267463364,-0.007474309909039936,-0.06710625476099913,0.002016112965015127,0.005277159963630463,0.017392963297709875,-0.03512744066136012
-0.053381798319331014,-0.14017217161465167,-0.003160980039385705,-0.07982800194992548,0.005750678762462445,0.011087181533569686,0.013481220848484262,-0.037873750951696906
-0.05220674088617028,-0.15217551241403124,-0.0016573326148981392,-0.06392788128348835,-0.0017748515597760825,0.021747843735269373,0.018852644825511675,-0.04580329718324676
-0.048739355703573184,-0.1461052568279688,0.006251574596173488,-0.06834925117125977,0.007135742479325071,0.012179400860526619,0.03589089525198554,-0.037464272328584236
-0.04872216223244829,-0.14531793465370382,0.0037987668653938957,-0.07411027475227673,8.827065193538824E-4,0.01114721481234046,0.030117166697024512,-0.016219945934117047
-0.048487413104407705,-0.14600511199953167,0.002297976552012651,-0.07741977731806572,-0.011224890716056202,0.012151319496883495,0.0290470732246199,-0.028752652111218573
-0.04780682205160699,-0.1389734562460779,-0.0019805934365088006,-0.0748982723463902,-5.62625956891456E-4,0.0063337376095446585,0.019456391946477435,-0.03510427947243454
-0.04921133114606305,-0.14546159964746577,-0.008101882799991416,-0.06124674179131697,0.0025196156080671897,0.011295647200578261,0.01904668166790925,-0.040258888013443045
-0.043358145763611786,-0.1449517049482078,-0.001559317260072077,-0.0618175028178643,0.0031483932662908116,0.011817244173622824,0.02841104619705731,-0.030439953073348118
-0.04599562874278054,-0.1494925626496447,0.0011773507515586705,-0.07039341080591265,0.004347708307761715,0.015974347108560726,0.020874167492017107,-0.027400901935097827
-0.052638393916610876,-0.14135937974840776,0.0026016168024462307,-0.06457332946303486,0.006492875018982303,0.015294885129532126,0.031186261306269007,-0.014305214115741134
-0.04279407073285568,-0.1459189800455724,0.0062514466532742705,-0.07069800687315227,0.003423601744109456,0.016961555184985527,0.037063195112576046,-0.019139295005177658
-0.046608287550429645,-0.14319997966201484,0.0037746879067826976,-0.06719380175893921,-0.0016460807070308233,0.017030690894314564,0.03401132335190454,-0.021909949152775637
-0.047694807022750974,-0.15110492691372945,0.0045139507245448626,-0.06769470983019879,7.838918872524341E-4,0.012707905246543938,0.026707277836870585,-0.00880020382247429
-0.04626433683177306,-0.1428861905200156,0.010855803821968189,-0.06520486433105352,0.0017265721033078434,0.017471568250813908,0.02471585506477251,-0.011891521551362912
-0.04507759269865991,-0.13750409951627082,0.003312182396109134,-0.07464573105903775,0.005937683424392784,0.012827980369596799,0.021321165104425017,-0.017875960746551137
-0.046347723487595735,-0.1523549770535854,0.0048169136802405105,-0.07828685304739758,-0.0019314891767379238,0.0120848791362076,0.02151857202398034,-0.02632226169916771
-0.04837047059623611,-0.14252547543085503,0.002307363556876132,-0.0671268421224835,0.006035269102715381,0.013864322397391422,0.02581533728912878,-0.023035037318706063
-0.04804943380142135,-0.1416894903295811,-0.017896743213412683,-0.0755979533846508,0.004398676737264316,0.014070227769552576,0.028215369361761732,-0.025791467033406696
-0.041573261640204466,-0.1449263349554146,-0.012955040131884284,-0.0724221199897053,-0.0032373301242894456,0.009403379335007131,0.02155265469301975,-0.03617718279440186
-0.04246319734532552,-0.14774546742036307,-0.004552173106601882,-0.07275374881295615,-0.00406448732546828,0.0050929888665134015,0.016436454025543498,-0.03238189769542705
-0.04785427300709955,-0.14425573402051622,0.002734755839422023,-0.06901611086118,-0.007424169810986954,-4.439544660874436E-4,0.014040477256726277,-0.04390630432790642
-0.05375872817391161,-0.14329052614404156,-0.002136797660712483,-0.06570599913986186,-0.0015446341952909774,0.005841409143113246,0.012042493052025033,-0.039059028171647685
-0.04322576796817859,-0.14013679844385088,-0.002536421875000342,-0.07194958212799432,-0.003907791607332838,-0.002732728883415686,0.018649483084679307,-0.03653066046854121
-0.05244194679936519,-0.14414571868360346,0.003552499942052,-0.06976411794930142,0.0029191335315841994,0.007474978461463987,0.013650826680981547,-0.04198292945554854
-0.04400536844294037,-0.1379492956392434,-0.0015782640963396535,-0.07929753681330137,0.0013701302356834654,-0.002684724556088967,0.014973844873561076,-0.03915797318274929
-0.044502751000513416,-0.14350024705965617,-0.002765069962661422,-0.07754754757406895,-0.00741188927956674,-2.0183801228170896E-4,0.019964117219735688,-0.04324928059663845
-0.05285031547740868,-0.1494844689194069,-0.008563577731298094,-0.06937589149410972,-0.0029601894105917197,0.001309484910466345,0.01309940032533451,-0.04787238905088293
-0.050890341857331226,-0.14025106406811075,-0.006058004160418728,-0.06721576334629252,-0.0014898079146202247,0.010273111858693746,0.01940796122385952,-0.02718641498427267
-0.04771077111816208,-0.13848743901327162,-0.006588559132218867,-0.07277941908613456,-0.007695854532456138,0.005573142990350068,0.019145708426802136,-0.029130659716662007
-0.04533280976436171,-0.13534280624427986,-0.015291659731843621,-0.07524683231730528,-5.978402624611214E-4,-7.863505632282607E-4,0.021480116622624702,-0.044225338690990955
-0.05260923205789196,-0.13410000952452056,-0.011006449809660767,-0.07310367777040641,-0.005750027722738619,0.006398576763675712,0.01419756172901988,-0.04471529144615276
-0.05256622494121441,-0.14193626529091563,-0.009064256284949784,-0.08010476507881562,-0.0062379395910315315,0.004602691094589887,0.021950236697829903,-0.04944805149455782
-0.04924196950994108,-0.14414961166314605,-0.014576275076884125,-0.06964505338882644,-0.0037119624415915624,0.003653356029123924,0.01882522133029373,-0.05352083872123308
-0.04217835801152827,-0.13335485285418033,-0.011335470861187757,-0.07168437026773918,0.003514903694084949,0.009882911464793562,0.02069330929116394,-0.046056882378328785
-0.04489705446594134,-0.15014898995633585,-0.0018467124007713245,-0.07714096777578028,4.0249351112494155E-4,0.008197822433493252,0.02882441054842054,-0.04638474409180843
-0.05009836141394958,-0.14261863576809344,-0.005548552049128674,-0.0773613213745506,0.0038162208910958225,0.004775101314717868,0.02538850516736148,-0.04773482125291168
-0.049850147430870545,-0.15871284929435356,-0.0020895347225313326,-0.07321601749780568,-0.003610718175283378,0.0010625241092148123,0.019722809028869647,-0.05221532857269176
-0.0470474260255603,-0.15605789494749228,0.009818897949952058,-0.06991344348286897,-0.0061877840040794035,0.004525292225171932,0.01896067498118583,-0.03934802017996788
-0.04980113893298614,-0.14987711891394365,0.0018287698775678693,-0.07757713149022144,-0.003683427627634077,0.010097019384589718,0.022508298370188248,-0.041948191416816945
-0.04572602701752141,-0.1478823486797864,0.0016241669588670082,-0.07634056247099384,-0.003182602658075608,0.00935366951414316,0.0307664253851506,-0.045929587455438806
-0.04637178937827923,-0.14433581752495717,-0.0110128807175829,-0.07937524075282186,-0.004859716439634315,0.009685672024802028,0.01766005637859954,-0.05265029776284756
-0.04827050816217311,-0.13792444612651727,-0.018094613763663725,-0.07416728926465771,-0.00273172713349889,0.007921971510156098,0.022221797809331624,-0.05097449505684945
-0.052667250237814295,-0.1290358447499004,-0.024049287021044266,-0.08514373148485004,-0.006048673695556166,0.002217503999338569,0.020304539548925055,-0.06844341741042528
-0.0503189026532963,-0.13908343868457437,-0.021101014810114182,-0.0682918661219787,1.4184779240729471E-4,0.002459010474595896,0.0158969992442196,-0.06828022288064024
-0.055618579554669985,-0.11803213492636937,-0.015788793115012103,-0.08273350619102,-0.0032869389126925436,-0.002310678539999352,0.020231430537249673,-0.07011722604982168
-0.05002619827396045,-0.1156588058916851,-0.029415933062816393,-0.07980342910078844,-0.006271103677550375,-0.004254474266506188,0.019781556515467525,-0.06827483232694033
-0.04815814963738084,-0.12863637784755588,-0.015108619378661228,-0.07524168266884039,-0.007270753007766815,-0.003159904441249616,0.01442306241538525,-0.06995365769610867
-0.04853184858146483,-0.139128869231757,-0.017932474976677715,-0.06692309273390452,-0.006415037773292085,0.010754881391924686,0.02506815928469818,-0.07967978639911999
-0.04208501096482111,-0.13082631960043764,-0.011260308458333463,-0.07916974767123518,-0.005205487940262809,-0.001877855885623623,0.025220824895971956,-0.07159162609748025
-0.055266845894774486,-0.12771029536022424,-0.024780466567912565,-0.07660834127956696,-0.011616619494595998,0.003994706356987423,0.021150638542516066,-0.0673362280437138
-0.04487887234186973,-0.10985370825875579,-0.021385766920044576,-0.07321493445079089,-0.006241115189133174,0.00797215809463515,0.022468706247605687,-0.0577823544183952
-0.04134930336316427,-0.10709729298641393,-0.03412555940345539,-0.08338201336474604,-0.009039743871152474,-0.0016912465914849673,0.021398495668456766,-0.06576191715655487
-0.04630926711729334,-0.1236320928469786,-0.018444898134791672,-0.0771567751777387,-0.003899591814700754,-0.005764252763479985,0.020214242699334074,-0.08506574981634818
-0.04908151435440312,-0.1273883090719494,-0.010291310164930836,-0.06882781427467262,-0.014689714045953015,0.0035102652270360725,0.018130582095849265,-0.08560199084678066
-0.0467156892153212,-0.12646207165678064,-0.015024302402023081,-0.07376159253744471,7.376717200985474E-5,0.008985736109006272,0.02591218891933269,-0.06137695515739479
-0.04685933914368066,-0.13042596977885593,-0.007689304851884373,-0.07985081372560283,-0.00719290887391471,0.006715093516975201,0.032330017208282436,-0.06733913421101771
-0.04757201531542739,-0.12095506442591511,-0.027574954136356175,-0.07666774402209847,-0.0061307902642502455,0.005503928791165373,0.023793998134219292,-0.05312920306042558
-0.04706732407251391,-0.12468449350305952,-0.02126796527613748,-0.07580919064122937,-0.008837044030337138,0.008567433703035811,0.02164625175122167,-0.08157090403627751
-0.04514845155418614,-0.13853379502935892,-0.022644321395896165,-0.07747570479676603,-0.007712037282032703,0.00799312983178294,0.02054595271387712,-0.07699938353178266
-0.05075856631178701,-0.11871588189907703,-0.022155901600424424,-0.07370166168877966,-0.007355067784743838,0.0020265805554751863,0.025945278917421054,-0.07676190092764215
-0.04652862924818286,-0.1166424528885867,-0.01624694328343957,-0.07052290162693943,-0.007309330951779978,0.0074315603211572824,0.024862215111049222,-0.07067787125141647
-0.045589526702759564,-0.11932304337507176,4.2135809602044495E-4,-0.06734980510224406,-0.0016938550608057202,0.006582081274468937,0.02830327261745395,-0.058931933987111
-0.04814106461050786,-0.12580283670243245,-0.012599554216940305,-0.06906118151040615,-1.3594644327747515E-4,0.010118738859513568,0.02494750663844056,-0.061734984811842156
-0.048592816878521156,-0.11434217024480826,-0.011512777380814286,-0.06928415288620193,-0.007316619428059845,0.010639668568968717,0.03509541812304024,-0.08350500640520302
-0.04651404419356209,-0.11862514342434217,-0.011009043884232107,-0.06485048064333895,-0.010076847037286878,0.008873657986289907,0.0383113301445388,-0.062176302472772935
-0.044146234780793596,-0.11348129621606991,-0.02362974726361475,-0.06586498222941169,-0.002216794783652463,0.006746358655186455,0.033588316657855895,-0.06460299505801316
-0.044833126119602114,-0.12001445444169341,-0.020194594668550832,-0.061749390232520344,-0.009830349899980433,0.016793277371576425,0.03930201474822092,-0.048105242722152254
-0.04602863765748125,-0.11868644578703473,-0.024805008956575357,-0.07453675773505843,-0.00296400171267446,0.007619091219981773,0.030401546893261543,-0.06839775557502195
-0.044688263808941885,-0.11308000145273388,-0.014447388239184056,-0.06619710825814189,-0.006907201699165338,0.006542009926861677,0.03738597741624898,-0.06174105393216779
-0.04758880158308913,-0.11220237464179038,-0.015548572150793832,-0.07023020050907532,0.0034037684485179755,0.0202047985219209,0.032876337060613964,-0.0550574452247527
-0.04942328782761462,-0.11353123251748871,5.33590008069217E-4,-0.07176387834668549,3.3917969779686E-4,0.017628138467358938,0.03145130262730551,-0.057048808674333124
-0.0403633169854288,-0.1170272571390582,-0.01291115421035715,-0.06893810045345863,-0.007627724165476681,0.008401182461973638,0.030303434462566337,-0.05992510621810233
-0.04708194602567988,-0.11595286709369595,-9.258909742729E-4,-0.06625356610392649,-0.0030998559949705806,0.013104878547753983,0.03647320132977486,-0.059383358281369224
-0.04260564875414737,-0.12186290210876292,-0.010020890245353681,-0.060220929408292115,-0.0011760567027320435,0.008522391521865921,0.026332583276651028,-0.06368443445917943
-0.045038018055825954,-0.1286652024092806,0.0019184324770596273,-0.06225089390139638,-0.009989528472673282,0.007975732080933799,0.03511644643746437,-0.071838775606629
-0.041580310380208,-0.12345991511734027,-0.01438584656435518,-0.06555584467545242,-8.700531777057279E-4,0.011863690250640845,0.03168251237385552,-0.046628134842824784
-0.043119725357960596,-0.11064215557417494,-0.0029400733962406038,-0.06657786730247633,0.0030876578877696206,0.01685243818865481,0.024722087819948745,-0.04822598181401429
-0.04258170050998401,-0.11132222411868671,-0.01670315314336079,-0.060171824454506403,0.0032652134342892884,0.009339932165315078,0.03170079231335096,-0.04790495343490852
-0.04338870293972259,-0.10293563214647339,-0.018049522263713032,-0.06491632430930114,-0.004349144356938557,0.003764102719696085,0.011785984581113306,-0.049104432679625144
-0.04237314576779477,-0.11056563864676591,-0.015838294941894187,-0.06382335947362797,-0.008879036543140933,0.006951838712095448,0.025200679788877047,-0.05669473417010088
-0.05140103615339227,-0.11845676172545998,-0.010228054988119148,-0.07207929919864621,-0.004874141709148532,0.004514442677613417,0.018664876518029623,-0.05695160884375394
-0.047408176565397205,-0.10357469213304223,-0.02408198373132056,-0.062030534531344717,1.9978196670498654E-4,0.005773579640542817,0.025356080217081443,-0.04030304185689367
-0.046352830764542316,-0.09940673144217585,-0.0235372311794338,-0.06826196270100335,-0.005868602689812459,-0.0013567216312166594,0.026366572939807483,-0.03849613851955008
-0.046656625998887306,-0.10151334625188764,-0.02387452555364641,-0.06613332343102177,-0.004466548173915916,0.004567956958678166,0.016886153935376798,-0.04184633702254693
-0.04254470863364731,-0.09892919657080568,-0.008905418932547447,-0.06334073557550263,-0.00747456368560092,1.879968126812498E-6,0.018063112383352946,-0.056460121728174474
-0.034984447903839165,-0.12306913759614338,-0.02463203655061921,-0.06355092085538569,-0.004630589196747111,-8.774187424091057E-4,0.014677425763331876,-0.057081023131983676
-0.044907460032223,-0.1060367442590235,-0.0038023900662927336,-0.0600554703252138,-0.005727347576761581,0.005693293391318444,0.016604122204808516,-0.05172670478565803
-0.04347721116292345,-0.09854287566782931,-0.014117684445651582,-0.06408427972406107,-0.0011971470846923065,-0.0011846120232797892,0.014082563577420331,-0.05015193320835996
-0.0439173842943588,-0.10591509314177865,-0.011258656573995711,-0.06842274860471775,0.003096956380505005,1.7615173715177228E-4,0.007599005814437459,-0.05047553241670152
-0.04400494774265112,-0.1125262069083433,-0.013069289229610535,-0.06353185571527423,-0.009872462331514101,0.004059754327418474,0.015369038738743011,-0.06012987585861197
-0.03620292983361882,-0.11693448970664533,-0.018096807533506985,-0.05946867898990899,-0.008630823793154274,0.0023503890914177597,0.010463244668714478,-0.07013096315498148
-0.045041984002387854,-0.11107385833747761,-0.0019993837431072615,-0.0629181606975891,0.004805639705011082,-0.004895796225878256,0.011665983276143644,-0.05016519053161849
-0.04471956923283257,-0.11048186329579482,-0.009988552080904309,-0.07003802684589053,-0.007115556077264949,-0.001833583253457291,0.015368814248778735,-0.04632493891799497
-0.038642614508875225,-0.10881291684695263,-0.00897152407106648,-0.06711986647611148,-0.0026835967209479536,0.0018847370519421312,0.015313312737817858,-0.056691649383189165
-0.04511237212963523,-0.11219583980613235,-7.505960194824421E-4,-0.07038039978444725,-0.005072298888434043,-0.00210595693553905,0.014323000424748612,-0.06370451037975602
-0.04198494326728012,-0.10281213033676954,-0.015304822339127165,-0.06899842041326656,-0.0047377573994307485,-1.666158759602134E-4,0.014419028863675435,-0.061459609176076714
-0.04160966189208955,-0.10847496526078577,-0.008444474223553463,-0.06750066161127079,-0.006326721101282729,-0.0058082081237810085,0.008874650255300626,-0.0643026933728615
-0.04159167381815588,-0.09836111828041572,-0.005465832571399228,-0.07091103202806008,-0.005483545719384323,0.002478213975210732,0.02055541462510114,-0.04508152523626154
-0.03757186091189896,-0.0981014434139048,-0.008781940444398202,-0.0657504637352247,0.0023416853039880427,0.001936087120629371,0.01536609974717222,-0.03950691637335734
-0.04496841368971748,-0.10665056720285984,-0.009818194475632544,-0.06866902523128454,-0.0018479125765239195,0.00456218322910255,0.022282680379890455,-0.042830384651725166
-0.043417000832655886,-0.09960706218746537,-0.013641344928072419,-0.059028782412919964,-7.784275471386682E-4,0.008228667233200026,0.02199007536983263,-0.05535346518836043
-0.045392705910158954,-0.10924313447176494,-0.028099351896230192,-0.0654246495916345,0.004528902435867906,0.006947147612151979,0.023724854912466068,-0.05338498783629603
-0.03446727613947345,-0.11005966855462039,-0.015604009872346074,-0.05967309425907623,0.0027262573060390415,0.012086590581534764,0.021042180761476206,-0.05940490312341922
-0.03714388088010069,-0.0954829405812253,0.004628995491753614,-0.05890854343182551,0.0057109017201884505,0.009026694586348534,0.026908365964356924,-0.02909699709577543
-0.03983109062288976,-0.10801200476111458,-0.014505190986014434,-0.05424659611481917,-0.0021853567180867934,0.004949938368901727,0.030060632128614945,-0.03841724707939446
-0.036630036349832626,-0.09577199346142454,-0.01316542072456122,-0.06276605719653912,0.004136442900665457,0.013096130736312689,0.020855908673491935,-0.030444723661451574
-0.03431885936625796,-0.10275123124233858,-0.012136948268789695,-0.06251141108112257,-0.002017092866898015,0.010668062707401909,0.032045579748134476,-0.05126795141073262
-0.03734644107266484,-0.11366323637322413,-0.011614883407288728,-0.05567216451234922,0.002016743903516744,0.013704640905851368,0.028796768386482055,-0.05399678638003481
-0.03092083512659018,-0.09599826451070348,-0.006377773438335115,-0.061097183553144384,0.003479405691170663,0.02295987323187665,0.03590194619838367,-0.03786242519142037
-0.04414903411581584,-0.1065680211978876,-0.008624960680485336,-0.05863338025331585,0.008226780248638307,0.02005155702124158,0.04346775662995637,-0.030100773231840666
-0.033797508745764926,-0.10811181318963442,-0.01430159406304599,-0.0607001701958894,0.004327563830434609,0.01739928249494695,0.03999938249484727,-0.04725824425147888
-0.037976603273437576,-0.09723556296622914,-0.002485989859107733,-0.056489152186391195,0.002308308773639125,0.025605227968202176,0.038835316406750094,-0.051117042920092
-0.03585009333125071,-0.09842580047013211,-0.00343944749380139,-0.05700225765336868,0.007028838313546339,0.020874752605540253,0.046346829263306036,-0.04919121161227767
-0.030634966310357458,-0.09979719671590068,-0.0025273790837577804,-0.05390060553151952,0.0037503900979256126,0.02905909297851109,0.053321014974274876,-0.04098430872759461
-0.031007533322282517,-0.08898051801754196,0.0033817091460737656,-0.05185176643800461,0.012129912056905,0.038250747261178906,0.060859063250260734,-0.02276370654102465
-0.03611131515056109,-0.0815889299443356,0.001107841318348488,-0.05414840689283748,0.012468521535697052,0.030970411172715415,0.050533083771891744,-0.028091197088383677
-0.028645705779304018,-0.09080622044090007,-0.00861485402463468,-0.05261862079260051,0.0061261949262697,0.02601072086398074,0.04925706999004743,-0.029661104389958785
-0.03286841440049449,-0.07536503737814731,-0.011458231554800743,-0.05174376170940772,0.0167061772138084,0.03048649164689869,0.05278303147221858,-0.027276612853350344
-0.032444590106581024,-0.09377317532871397,0.004428267882256883,-0.051574927637203644,0.01191438104125722,0.028966984028238548,0.052484382810893765,-0.03413310653145346
-0.02954473212672844,-0.10244576195366296,0.011959056333315924,-0.04375156006591891,0.008878549346031972,0.03076804860662747,0.06185897878510172,-0.04356661954149082
-0.03234235221878857,-0.09810003717603549,0.003370761990326117,-0.04716992231338389,0.008213800401200875,0.035108922919617695,0.05754409910156019,-0.017507757564298603
-0.027726951344335712,-0.08438505889573869,0.005108741740241515,-0.03998407652220096,0.014457137511497775,0.040343641260484814,0.06525534300622884,-0.015432162005597752
-0.02913908916886851,-0.0854962734339434,-0.005596585373336106,-0.043134763713882474,0.011960997095746514,0.04391044877749962,0.05904808045826239,-0.018937126446635994
-0.03245778657512279,-0.096291587978226,0.014243343571251493,-0.04138737898653979,0.014766401797974048,0.04055564423813837,0.05956069544744218,-0.026239517762254482
-0.02584188415914906,-0.10731477963118013,0.020176057476088367,-0.03258952649836617,0.011287274208719026,0.03856567132136836,0.05609455827111742,-0.032747022306940134
-0.01989585651384974,-0.09383889702364138,0.021388196463813892,-0.03575550899856683,0.018204731224113035,0.0390403270340111,0.07745279326564206,-0.023245263692278365
-0.025632820490918515,-0.0991688369368347,0.011083487558074378,-0.03650764805995958,0.018223451223413692,0.04785438777281258,0.07294485267425671,-0.015752180991266795
-0.027047093162062635,-0.08409674267608447,0.00785119337001601,-0.03310333972271123,0.013222152811762054,0.04819289275378246,0.07553965127518002,-0.016553962029880125
-0.02407743403908388,-0.08855145320480168,0.016974238637484505,-0.03537181022671252,0.013158298401129238,0.04713051785573899,0.07415090184383369,-0.02651264001492066
-0.027409749117257798,-0.10400027034561414,0.023237432044299806,-0.03009333287869966,0.01044639361454097,0.04906532484202366,0.0693200370788887,-0.03075103878503659
-0.025714201613072488,-0.09147648553729318,0.01188123862316563,-0.03456531234418317,0.011510109871627282,0.042022987733295866,0.06934919416111474,-0.04255375163073088
-0.02645543655936499,-0.08483728654556423,0.01873585857982049,-0.031146313499149956,0.021329363316783992,0.04612354590262358,0.07469969442960848,-0.024817126582073124
-0.02811134635532255,-0.07805980474862205,0.007087931579426033,-0.040752721459350216,0.01651108545806298,0.05073558991367772,0.07586640616738327,-0.006317932506607091
-0.02520512852208809,-0.08568253072692154,0.01803119899960496,-0.031530872055642076,0.014221532303162586,0.040116544351365434,0.06993220862284526,-0.01823656546679522
-0.024934830490847156,-0.08441181629200666,0.020300543908030717,-0.039271427441497586,0.021736104549753568,0.05203850643161535,0.0776388349954714,-0.020522277656784407
-0.021511615339388494,-0.08788555006860255,0.015163641426812759,-0.03162835340102007,0.013316718079153767,0.03984858943802157,0.07376183564924094,-0.021496136348322675
-0.02891720084498498,-0.08167748849785403,0.00900687726444309,-0.022164611630212255,0.009438854419800911,0.051345244266001705,0.08326607501618499,-0.018779000928886815
-0.027631046474870594,-0.08568929430140901,0.01781361543276864,-0.036770113408157314,0.021679460596975966,0.04999678636775062,0.07219253911531545,-0.004208451789239106
-0.023742340730384687,-0.09301036611001486,0.015880748018499695,-0.03304126227683478,0.023844716920213706,0.04216776976648171,0.07064129612035243,-0.008551287579001334
-0.021732484459453458,-0.09506950480228343,0.011534901395004021,-0.029293508875488095,0.020632483677202378,0.04132112368142572,0.06966033683596264,-0.015153954639021566
-0.024083914162733804,-0.09350924344605463,0.027130837845379792,-0.02475006506458033,0.019578519575274796,0.04300744801832609,0.07608375370432527,-0.030559924679711258
-0.025102677972097986,-0.09772237996362293,0.0036715628584192027,-0.03413602555869583,0.025355604831054222,0.04593787935541893,0.07359987417644434,-0.03289808033432999
-0.0203788072025887,-0.09425133824378566,0.01609188050794574,-0.022186227979756036,0.017701198761069282,0.04806445361008632,0.06361812443697877,-0.023116330325317867
-0.02091152006861481,-0.08181982033998737,0.028184861719888932,-0.02080133526276784,0.016550537130942383,0.040880960531943525,0.07456275381828202,-0.005391549230325512
-0.017225402732511687,-0.08414039922409479,0.028675347641245946,-0.020955590254158215,0.017634277348463626,0.043557623552918805,0.08032939945405684,-0.007326843145324306
-0.021574431168459182,-0.08819066604252383,0.026708457201654042,-0.02212231701852447,0.019766412583225892,0.04455128241083099,0.07611438605167527,-0.017340982593431007
-0.018727418391034166,-0.0893589918044508,0.029354749396916874,-0.023077588194870564,0.021872997711606362,0.04373486413282352,0.07036429690365482,-0.029499828963874104
-0.012346574410310234,-0.09431824881402157,0.03590681571684219,-0.019116112958513832,0.019768283125863293,0.03828559198253,0.07288741923999568,-0.03313685086317297
-0.020017978737750162,-0.08585635820600512,0.029983536714793344,-0.01495506968089383,0.024162170757557198,0.0444839207949843,0.07115987839766821,-0.029043310485436014
-0.02020925701932161,-0.07946145253078274,0.03176108173664939,-0.018360871278534318,0.016959590537397724,0.04442312634809887,0.06982174667202685,-0.016696435818042116
-0.01604914621492069,-0.07327183865351689,0.0218023601589314,-0.018200476676769505,0.020165928965522554,0.047276730519562216,0.06144422954160198,-0.014686270163110965
-0.024133721394349578,-0.07685375461371702,0.028107233096427323,-0.010888909354437114,0.025991287578532182,0.04529464065537676,0.06506720883777896,-0.018110856980987827
-0.01193297972967284,-0.08344159374543221,0.026254077874037243,-0.018035315594046256,0.020448539525916454,0.04182333309739311,0.06486472301945552,-0.025841906059080606
-0.018923601494909553,-0.0889302344089655,0.03173641760935857,-0.013064156134169022,0.02297583689545254,0.042225137679751,0.06214222390083372,-0.02516876542410621
-0.02282709627616063,-0.08309127167106971,0.02698211200618018,-0.010922048010062212,0.022462427397762354,0.049392948675507774,0.06449299448246641,-0.009868639199679948
-0.0105059971669539,-0.0854384690681638,0.02952199152657804,-0.008906079378672304,0.03385735537998995,0.048621859289414,0.06934039191968447,-0.012631593888559216
-0.010704655529776213,-0.09194967109187493,0.04276038141461608,-0.009810421157024792,0.024823628198029926,0.04876151383971501,0.060063929061374456,-0.013921291094501407
-0.014198100603148644,-0.09044541529390412,0.03573171488027717,-0.016407640457143473,0.02864424570825922,0.05058450327762879,0.07295684396302766,-0.022491670448452537
-0.012994078067126156,-0.0966595340891816,0.030701888954577986,-0.010257245112949242,0.023257658691684554,0.044423474373809356,0.06833386654942308,-0.02267698113496723
-0.01709607802638706,-0.08752470253294568,0.03344955675549371,-0.0032452828479338936,0.02706328152271046,0.047247169098328316,0.06296281304012323,-0.013513790270376469
-0.016090119047194217,-0.09823936233110821,0.03807608065212066,-0.007757275073321051,0.022862656468573054,0.04976359024722107,0.06560066535049622,-0.008326895929559368
-0.02027478089015174,-0.10314648247058449,0.042314148181202826,-0.006967734329526452,0.028195937424001494,0.0429380922053942,0.06619575185328343,-0.013166640216896192
-0.024181213898811157,-0.09830029913964557,0.05435543469869445,-0.004448057837054624,0.021463689349706848,0.041413292454380767,0.06969795726508815,-0.006953762343209981
-0.020992981448066668,-0.09922455781763745,0.04913264088576089,-0.01240244343733074,0.02738948544826036,0.04272835875160041,0.062308706516792864,-0.012681521579655351
-0.019115529985245062,-0.10709143169525648,0.038955504318158314,-0.005500726023142504,0.02546678216415014,0.03838704777747266,0.06909616840196851,-0.022584229204135556
-0.0196151625329386,-0.08744260699854836,0.03043650718290742,-0.018937722030337622,0.025526205194455354,0.043603057183421466,0.07148152084115215,-0.0027179801824489007
-0.012003707468077586,-0.07828919721886937,0.03002264501312891,-0.010261478170069954,0.030326274554225017,0.039101977378051794,0.060380211153910804,-0.006397091797014516
-0.016043247596281816,-0.08384752466558418,0.025829174115171445,-0.015168799788774534,0.026795402796165706,0.04753313871349229,0.06324687743170895,-0.016619475744195495
-0.018701844897787638,-0.09602187229095582,0.030586709918106265,-0.011597279661659085,0.030038012639470313,0.0374594351800914,0.06889392695808647,-0.015499213471955103
-0.016883399157200853,-0.10083154650206427,0.03547951585287291,-0.01852639841086072,0.025469558559916564,0.03732221760814981,0.05929626785571171,-0.03222432735728573
-0.025054465577446422,-0.08276318776134022,0.036860721250469956,-0.017375402067646255,0.023745210579744422,0.04827652798698151,0.07005307338735234,-0.016197707592114953
-0.021058531616917626,-0.07808529712890647,0.03108250980067922,-0.01572426239741288,0.030779556131734734,0.046213546956624024,0.0660758326299455,-0.002803117684847039
-0.02317402820380294,-0.08399305274867687,0.03496152867498253,-0.01146223947207083,0.0325576193708372,0.0493482018381353,0.0661538644651029,-0.012809331836090362
-0.022263586799209034,-0.0892928978297038,0.03547937959332181,-0.01733113965531295,0.029632143013916964,0.0412570898979463,0.0651348188381011,0.0016457715008754866
-0.024049342989776023,-0.08740716153372226,0.03949974232633231,-0.009542259806901826,0.03307796061808105,0.04651066278586306,0.06912388985736663,-0.008316262724648265
-0.015128028743356059,-0.08061609480421957,0.03416750136062853,-0.010588677024881345,0.04246478502543414,0.05793756064403331,0.08040768511561047,-0.0013326855169523205
-0.023464386188519166,-0.08698113870832973,0.028668249764281423,-0.014846296500503158,0.029709139939891056,0.05729567213091243,0.08141948657008725,0.008688270956180076
-0.02188457152066379,-0.0844607717190958,0.04176242198197549,-0.010372600241078736,0.037838352903852485,0.05174004576176815,0.07616384192261422,0.00876357545899463
-0.014375355017856545,-0.091580728305135,0.04090347557179895,-0.01608044193468676,0.03944117810961577,0.051641242419374046,0.07201429644005522,-0.005704272018370825
-0.014454879713468748,-0.09237832743243317,0.03159402179204485,-0.013802925260255179,0.04041931771872625,0.049259291141313916,0.07723822290343904,-0.014177532770199636
-0.01705878088430523,-0.08703891424223506,0.04352135865579847,-0.005733020636404933,0.03341985346559417,0.05701750122290413,0.0676476244119969,-0.0012999456305399079
-0.020426258527503405,-0.07672163298995276,0.03575299772536219,-0.011913286509761667,0.041222898233236785,0.05870898974564913,0.08955508733039622,-0.002560679387334796
-0.01851535074239771,-0.0779992492757317,0.02590360928502719,-0.014868129387803845,0.035942045359001897,0.05317039062542835,0.07170418670645341,0.012081777933682366
-0.026382973468416566,-0.08634608544724617,0.0325122573924568,-0.007639740497335651,0.02736962225454154,0.04344799730863806,0.06796025946748545,0.0017816914143870377
-0.016168241564802312,-0.08390360525576449,0.03934742442000788,-0.01200719619804471,0.03482427344505799,0.054979944844904864,0.07134148919519519,0.008602495469496653
-0.015734482136411643,-0.07941193214567015,0.030456437711870045,-0.015128231652505025,0.028817304255681256,0.05198593680037928,0.07555923947651211,-0.005847462144255696
-0.02183941433828737,-0.08200009999629747,0.03656213817309077,-0.012344061765512287,0.031594889607756804,0.05365462619906166,0.0709781471231535,-0.005217825693915435
-0.01600124891467846,-0.0810095518720984,0.03738420250814194,-0.006697225934548072,0.03787477234861075,0.0481373198328547,0.08810037765611343,0.024531165178128474
-0.021285298498585358,-0.08117933765091143,0.047239183987313124,-0.011820912653123556,0.04167485048390771,0.05547501373468406,0.0821353057081704,0.01841642150200448
-0.01669886523121172,-0.09360997705771931,0.029815247930462738,-0.012926126618399375,0.03706038037412058,0.05844550890022237,0.0759659893051179,0.007417466462892106
-0.020475276087665164,-0.08120476748126251,0.03484811057989061,-0.013780934697129854,0.03387532859616373,0.04693816638927008,0.07722399525067393,-0.003693621196469377
-0.020536705375406042,-0.09270077663396013,0.026007809720494764,-0.01201836501018646,0.03133164314867601,0.056856546682717786,0.07846572693885019,-0.008614370201639073
-0.023357387564718318,-0.0831936156312365,0.04549244900449687,-0.013406058578551382,0.030273206814898063,0.049111769222135386,0.07494786192900393,-0.01975279581250003
-0.020632646606593807,-0.09336583320661196,0.032422530464325604,-0.013656996218403505,0.03176144585529665,0.050917769334528046,0.08100253419710149,-0.0038229024920755734
-0.019318186842952115,-0.08943337327544919,0.04127404143058067,-0.014341082550325486,0.027925876146691838,0.05466454680354694,0.07494033635993025,-0.006345062542657107
-0.026769489011600617,-0.09290684821582813,0.036809192337210486,-0.006298208188818408,0.030760837452733586,0.05143576554012969,0.07360253592513206,-0.0162533731075715
-0.027271884273910016,-0.08770561526899681,0.022568677614558916,-0.013647197037034504,0.02934361455404004,0.0437921884326693,0.07478727370943453,-0.021399805868159625
-0.02690207914056222,-0.09169348712776772,0.02723244043350687,-0.00693319747507633,0.029511523179648235,0.037285611087402894,0.06322945598893855,-0.017166687879617292
-0.024177514166058702,-0.10029797404360806,0.03653098065662851,-0.011924289943707781,0.028522950543080513,0.042287852957899885,0.06847142723922764,-0.01819474515291749
-0.01895584896206795,-0.09944820463650811,0.029030293478413197,-0.004219243183764126,0.025264945826114542,0.04771774657816558,0.07387778855812419,-0.024301391275125372
-0.022892420681917276,-0.08344430664869505,0.03185220312386938,-0.013040779645420834,0.023850694893217384,0.0422053430694041,0.06977499647857283,-0.010928566821132413
-0.022094718996839364,-0.08555431408196648,0.034209068144506756,-0.006736605125977238,0.021569734598188856,0.04707084509550039,0.07281443670372677,-0.006912415745582679
-0.022761791371693867,-0.0890762377274463,0.027506092068848277,-0.014620834170100442,0.023709240516656578,0.04357539791025244,0.06989639884486692,-0.026355362820585294
-0.025961984190442634,-0.09412858699836558,0.03206315048444698,-0.011423785688723771,0.019152174962366205,0.04910375320649071,0.06547508095483646,-0.0261339900251978
-0.02262669900236057,-0.10745306201877108,0.026241840740585692,-0.013192626611960318,0.015151340926618042,0.044534292543896126,0.07108407440778246,-0.03484149290320813
-0.026442528461577255,-0.09042735584196195,0.03378830295990045,-0.012247549873307905,0.01579603597384401,0.0415610302788857,0.0688972101193775,-0.004503953492588957
-0.02353447283582106,-0.07926624898378022,0.021113784400371108,-0.002147373272674795,0.01980299919049893,0.045991430945319725,0.07585575521182257,-0.005123412742536663
-0.021582899300294237,-0.08723977779818408,0.020698881915017415,-0.011163559814107464,0.025117747639026446,0.04504811742439968,0.06922566880689154,-0.023340983678682717
-0.02375916443001594,-0.09699951680815132,0.03987552869780386,-0.012697075949261897,0.015372834781178476,0.049945149826930636,0.05898677819559386,-0.013017145199461152
-0.023272217975747207,-0.10623384904119317,0.032168102015708,-0.019542742290276152,0.02154730074054572,0.04144931099491286,0.06781680861325147,-0.03079922761126927
-0.026063684122490906,-0.10012527478208677,0.04469423609544219,-0.009866971662649066,0.018271620251630656,0.04175501828904637,0.08071688302991785,-0.02934112220854298
-0.026210696286495402,-0.08188115776971647,0.030073283914060483,-0.015122925393114032,0.01451638991772235,0.04389761547353774,0.07625526844940238,-0.013695240527493418
-0.023600351524496778,-0.09344376715601202,0.03936316495919575,-0.012969822214259337,0.023576245236369902,0.048175433375420004,0.07300732702211403,-0.01470489044424217
-0.02213126063760602,-0.10050738452187297,0.03412515814236834,-0.013386295839094982,0.019274867753102824,0.04536660890636819,0.07907303207148034,-0.012932882203494046
-0.02358490197784721,-0.09734996499366069,0.038415990987690544,-0.01878991932279655,0.015741657356706643,0.03625717261768189,0.07014211442373149,-0.026273399236436602
-0.02422647297482649,-0.10782503418462022,0.032367721270758563,-0.014016272867002126,0.01930294566210292,0.047962211986460244,0.07507611394199638,-0.03530835763469929
-0.02498260317872144,-0.0976648338314557,0.036974667003592525,-0.010303942994367965,0.019561252396483358,0.052272392349274194,0.069406549971749,-0.01911387475423817
-0.024250372079214214,-0.09344028130000447,0.026810547505317174,-0.010372819321330804,0.02577723839824964,0.0456729661489264,0.06669136831014907,-0.009015500435448617
-0.023814311990140547,-0.08706144149110445,0.03363919987343838,-0.014143654470608719,0.012324709943337911,0.041952991785333564,0.06455638802545735,-0.00997738111341536
-0.02248609844219984,-0.08634321828789573,0.01639168781437836,-0.024924264540897318,0.018472081525209624,0.0386304386862877,0.05963875684852567,-0.02808671544462331
-0.028819004705885807,-0.08225946992569845,0.02373099683823169,-0.01756874156775374,0.012662994157235624,0.040294202408238264,0.05620005819733968,-0.035666403652399876
-0.027119344580471806,-0.08144228956668798,0.017999510682652316,-0.026784423375946213,0.014115275956728903,0.03857699493966837,0.05360292295015045,-0.02497954052783707
-0.02820930666376843,-0.07108590914630561,0.021746897764032953,-0.01397068709895314,0.019541082281979826,0.035505176388186184,0.059514904770673116,-0.014483907521622088
-0.023027153796840415,-0.08211668458630975,0.028578599547915917,-0.0234725128234023,0.018384935579296983,0.03905744825311572,0.06614937717341177,-0.01348513826457706
-0.02600047976477144,-0.0870824045345569,0.027177264875179748,-0.01617142592792598,0.010558318101771682,0.023567532407206934,0.05717312376796124,-0.026637669845333615
-0.025877713627785286,-0.08330565828114159,0.02810531091119165,-0.02989826456714055,0.024434419246096576,0.033590434661778364,0.05936681665606449,-0.0232011034678809
-0.025573873251451783,-0.07898802074296331,0.023038879574087102,-0.014324887853576907,0.019804720804617145,0.031074174239056385,0.05774141416752061,-0.03111485278327633
-0.023147818075513856,-0.08893948998228021,0.03500540423090615,-0.02094517767737654,0.015113375509243727,0.036540771923772704,0.053027805344708766,-0.04118637558956449
-0.02362410930341668,-0.08866072714799349,0.02786898274666275,-0.010741750050207919,0.017104893585003177,0.038118652813757946,0.05522994026110915,-0.01967230195270251
-0.029807106979215833,-0.08074820046089208,0.02442966795654769,-0.017823419671014508,0.01859237688496012,0.03443356567736256,0.056403866280629295,-0.01453173496283177
-0.03164319672857086,-0.08244483082417048,0.030342524210637874,-0.02616516676568132,0.01665800526342169,0.035780255682185985,0.050108379497178286,-0.02029151713574131
-0.020210659802439995,-0.0730497003878674,0.014565854174132486,-0.02482454131440027,0.010735235786496322,0.02458636756084971,0.046914320894115645,-0.030049024064646285
-0.029716868136183367,-0.08740206956800115,0.016595434760183665,-0.031197426969719184,0.013239078692841568,0.02719778048508328,0.04053282327283431,-0.03764833200532466
-0.027902878116848263,-0.09711148796193401,0.028612190863684987,-0.01989458064107704,0.01034012298068808,0.025852722910151147,0.048924472173752884,-0.048316438424837176
-0.029088505213905574,-0.08404020606260493,0.018676050596774033,-0.01828653050800918,0.022729013889983184,0.03327931387709494,0.04913213117456396,-0.03174861058374737
-0.026024314961871083,-0.08184312739786878,0.032474985403190604,-0.019472533185758818,0.02151794269358466,0.0323284738497482,0.04287904395569397,-0.018080717008724097
-0.03181127662104309,-0.08517450074083138,0.0412408114819045,-0.02215577150791458,0.013779951835046248,0.031897844132418224,0.04471033921179629,-0.022074491004655562
-0.02604352125377827,-0.08191811824808767,0.023489110504583917,-0.02609626004996208,0.012935480164873812,0.023689854404196364,0.048449935697814875,-0.03384770688036677
-0.022153631358800482,-0.09526784956152164,0.026316630049784736,-0.017632668257232347,0.007689644517347258,0.02805379589419542,0.051732247100629104,-0.042177000895441984
-0.02160986494880493,-0.0955458542044538,0.02226862602622238,-0.01778822743167851,0.011333559965828667,0.03195695137968774,0.053624977173998646,-0.03019038471112714
-0.0297056932853814,-0.08012316477051591,0.02209018324408638,-0.021411719086042006,0.022036717847893742,0.03254415069036873,0.057874229366199514,-0.019621130434620816
-0.024288754066074253,-0.09199290053487771,0.02884037812900926,-0.01694584418715153,0.017797571882799536,0.02938496205301634,0.04857063072296932,-0.02285290359793753
-0.0226345359949258,-0.08320172914669095,0.022233003482719244,-0.021716620107108054,0.01359958720183003,0.027610003306701512,0.046672953630476424,-0.043020876680880095
-0.019650915497327698,-0.090041999305722,0.020998145151105332,-0.026656541910486515,0.015941846502549775,0.020725726988713233,0.03791427593985023,-0.04186249576073144
-0.017447466253392267,-0.09370328058099268,0.035516930428712,-0.01582244077633339,0.013868379087274313,0.02616749342860607,0.04031478906398652,-0.04769768985192679
-0.024948508832908292,-0.0867532118590474,0.028536952943716946,-0.019491890458400794,0.0181103379138122,0.029145677528129608,0.05665589827838013,-0.032865922990559036
-0.02262527240477988,-0.07481949365147185,0.017573592399691425,-0.029965452121476076,0.01677000471106182,0.0263747027312666,0.05507418685465671,-0.028317062767903065
-0.024468474289670958,-0.09174019969629725,0.015607735424055101,-0.020606406365139874,0.016673622303400384,0.02431477968497767,0.05806676513209658,-0.032228203306989577
-0.02464615012210942,-0.09351735645325518,0.032614881666733264,-0.02417292352331801,0.012548827349412513,0.022815396741587845,0.05481828446013845,-0.04877037686920305
-0.026193521613633204,-0.09225402692519555,0.026281207089257276,-0.026005339181171302,0.014257969571814114,0.030059532092456827,0.05611731520246486,-0.0505201249447232
-0.029116819803158684,-0.07461060708149138,0.020686294731017768,-0.01793413513664254,0.017322763473779184,0.02695388632775714,0.05498363431622756,-0.040892250486137295
-0.025509110469200763,-0.08305266303505507,0.02702210561670689,-0.03241479103731831,0.016016945720994314,0.03313802473257697,0.05869610731171342,-0.016675277575832682
-0.02642010229789071,-0.08228945320527901,0.03247880649946153,-0.025566483287720994,0.027389706053950844,0.030208396367680884,0.054238784695404704,-0.025104164299248694
-0.024285376800676193,-0.0931414078077997,0.03269858932383395,-0.01799167271550124,0.01746364812293566,0.03578025906654214,0.04493210212877697,-0.032632417811243514
-0.026098450315673018,-0.09361266079492711,0.033943102913518604,-0.028128817598893793,0.019152500996728324,0.026558683327978314,0.0549134947462215,-0.04700032837302462
-0.028208146305443056,-0.09203031107649275,0.028086955929005862,-0.02521952359105629,0.01345338525119406,0.033911829144187715,0.05635519894513751,-0.048335569806051554
-0.026017811095649424,-0.07925538867681636,0.009986411411873978,-0.025838893629151857,0.018926682336952806,0.03603271932653402,0.05941659408415654,-0.01860286993428669
-0.03198158879410814,-0.081707691976826,0.03423955262909211,-0.030899978623305423,0.024816034561672213,0.03246145695745836,0.05659023350182063,-0.032663460002306126
-0.028311126845222297,-0.09368476582613407,0.017242907176861454,-0.024587177674321562,0.014027718127537805,0.03645722808707243,0.06713337893798907,-0.036438704015793626
-0.02675797839978154,-0.0831435696904955,0.031638556027173484,-0.028490498318486646,0.02125425241101001,0.029118265602111962,0.053804669723343364,-0.04648556858415971
-0.02467040490099439,-0.10460439091518987,0.02774077791698201,-0.023523614609907487,0.017152583061577336,0.02649651601834869,0.05171469746132527,-0.047507687799261025
-0.027034344330284017,-0.09359130700940371,0.019556157671714286,-0.018473323486154932,0.013076952925736978,0.0363800338658206,0.05710033190440193,-0.05618398060341919
-0.027188881847105658,-0.08647629368074987,0.023101703735907923,-0.021963014797191368,0.022349873013985243,0.03516827862780302,0.06372133703767896,-0.034340652046512085
-0.03070339360180809,-0.08762163156786948,0.024847640074595806,-0.026317273017696468,0.023194730142764197,0.034016253196904205,0.05743861214781853,-0.037332842668198474
-0.02886318553616467,-0.08537711454779265,0.028151764836398595,-0.030079045675784358,0.014973226298937046,0.03953925014488395,0.05680538186476053,-0.05669165473412685
-0.03055385011464317,-0.07135341827283068,0.019963092928161803,-0.024979642245129746,0.01638241732669592,0.03185452517925842,0.048629805635405386,-0.04592530738187726
-0.03426204115338804,-0.07754353733354444,0.008319883116152218,-0.033423622880560964,0.009074991841892414,0.01872068635122377,0.05245032761498906,-0.051271808419029216
-0.03353144495011504,-0.07921650424575721,0.005561558389380167,-0.02618586732844783,0.013650920063192675,0.029945365957098763,0.052654785902960494,-0.04596592442712505
-0.031349548546193484,-0.07529323845592621,0.02052674414590992,-0.03387303277500022,0.019042413757360457,0.02359375317429601,0.05837943247165007,-0.04128916093289759
-0.032082331737114236,-0.07296535358156986,0.010664400994462125,-0.035376147025138104,0.013140531329666345,0.02379628668475586,0.04322588178379978,-0.04547523607402569
-0.03469240106058727,-0.08875689574920853,0.013457082613077329,-0.03999032371857074,0.021087248539808676,0.023551556788710983,0.04879509546595473,-0.05337375073696838
-0.029298734843866185,-0.07521481650757861,0.0016481792335726981,-0.03820623242880746,0.006289208980335885,0.021557705968394528,0.04543816963691176,-0.055550310397820796
-0.027911317101257833,-0.08718613353224365,0.014768851056288,-0.027806746217616935,0.01607950539140027,0.024256889183470666,0.04001342757920258,-0.051809802296421036
-0.03165903958635011,-0.07701579096775002,0.014683083878602055,-0.026699391164291857,0.013720601854811764,0.019751033038445307,0.04927396005731053,-0.04097101882574269
-0.026011706437775783,-0.07517751925583512,0.021388686738958183,-0.030043620512577716,0.01270028856226966,0.02427183342865383,0.05118997325820831,-0.04065493925657375
-0.03135934009917558,-0.0763402133517603,0.01631110858862574,-0.03427299391250814,0.005516580559415476,0.014489596828857709,0.03951844528724801,-0.03502194181220758
-0.02900592108598994,-0.07626227287516005,0.016823531317612047,-0.0335710971732006,0.012931467631117199,0.013490835690854667,0.03882190717433727,-0.052272143241747566
-0.028815220023954487,-0.0785745239824696,0.03312631182507958,-0.033702578875545695,0.007837498084593292,0.015999214748027648,0.036958612041921454,-0.06287535435054069
-0.026645905063305275,-0.09439626881566938,0.029832866627592828,-0.027282302057148974,0.005427598946165017,0.01650207547869546,0.04141998294148755,-0.06354823566461335
-0.02720798702980741,-0.09441843057737444,0.035186315239349016,-0.03255342773371482,0.00751040070716314,0.018355976822858857,0.046843404688240727,-0.04475951561802124
-0.02316160721949543,-0.0842980006953164,0.029527115755530832,-0.02411108243917418,0.016462781720862626,0.020058071909288346,0.042710817354311086,-0.0432124295822581
-0.02704851494836058,-0.08999529872683287,0.024774095769070793,-0.025004270896297212,0.008398739930230856,0.011687989886924653,0.035493408253572285,-0.04590810097430701
-0.024205657201808117,-0.08877903586641658,0.02134482059912133,-0.029976999197033626,0.009135551479441097,0.01957057454915654,0.039363491071902214,-0.0612335694702262
-0.02860891558458145,-0.09329020682465258,0.012030638453228987,-0.028401244475324508,0.01279261161772212,0.018123111553086154,0.03591243182567508,-0.06503746410425376
-0.0290345592754748,-0.09452777974529378,0.018020782090769672,-0.026189150246400436,0.013543092296098382,0.021850185760557563,0.03233668488244419,-0.06814570749955219
-0.032282819143483084,-0.0924073702903519,0.027425450119354936,-0.028187866958619846,0.009750447014637724,0.02279643827715169,0.04330389715265555,-0.05400131955621892
-0.027630277249942683,-0.08027466619810089,0.027564603570279882,-0.03563875590103181,0.011018904890870344,0.01982455587412464,0.048701741992508735,-0.04468715117744375
-0.028127948897666538,-0.08730454613537707,0.002040819074957609,-0.029313311481760675,0.01342150032383251,0.02492984972400377,0.049216680791118066,-0.055029171911736216
-0.024367894108997163,-0.07817385549821174,0.005500174074232058,-0.036809903072176915,0.008370177086776783,0.018244989981818886,0.05172509659607216,-0.0680009623099925
-0.03354503357259743,-0.08613427528882878,0.011567705365240693,-0.02900170653956487,0.008749520231211802,0.02653958728226857,0.0507370711425411,-0.08130045351627663
-0.029276913768796927,-0.08221064549098332,0.021586358949556485,-0.02660551864804083,0.013764026966133318,0.029727019880687253,0.059231392763441935,-0.073496543266388
-0.03159337666873371,-0.0842090871670678,0.017838817661668283,-0.03931412371597628,0.010507019290238647,0.030615034514870035,0.051960339527163155,-0.05992678089584924
-0.03130050412298014,-0.07256101160234657,0.012919535625479364,-0.03642694991144124,0.008553993468431761,0.025651201552589955,0.04768631845463785,-0.05309941402682061
-0.032032902073092985,-0.07163150460698262,0.017712893616621733,-0.038078367836122645,0.0014664647075611553,0.022586214791767957,0.040757240277560274,-0.055214353341022857
-0.03494925006062091,-0.08776280313815243,0.01550927795699315,-0.036718095906507146,0.007721100102689166,0.021659688701676127,0.03250691596488145,-0.07842683798418691
-0.036472143288763574,-0.09815101044613751,0.023415932677638127,-0.02489509749011489,0.007404310103116608,0.015614781506532132,0.04354211134659623,-0.07576360083253933
-0.03278260330781537,-0.08192916366977543,0.013296031486629922,-0.032299181412315886,0.007482345917397393,0.024534355393014646,0.05165323355471095,-0.05937070036228621
-0.03753169512210712,-0.0782289229801543,0.02262261802460772,-0.03087541460616239,0.016755640866085622,0.0233000740665529,0.04615398975724731,-0.05293374079935088
-0.034320192787404925,-0.08692971893904314,0.018992392081118418,-0.02589343228195509,0.009193253323574704,0.018578664307612684,0.04614006065679383,-0.04653515439008681
-0.035567018499100815,-0.0900497944592688,0.019593074753538876,-0.028639321110415412,0.014660846853797618,0.015620179287969086,0.04642495326799069,-0.06825145399671141
-0.026468744625801028,-0.09411891420778382,0.02029156132694922,-0.025378117547792706,0.005826271136116554,0.024427782041199796,0.04350620931107142,-0.06065724136381742
-0.03791405934247882,-0.08371674015717175,0.030315634280620035,-0.028919314575323526,0.003620953677275179,0.02268953463752948,0.04608772902010819,-0.03541437287585437
-0.027431968565880736,-0.08516954445960417,0.010395821249612604,-0.033667075574409726,0.010092526467678619,0.026673592302525913,0.042113323020502545,-0.06231678804534376
-0.037644824492956065,-0.08879065610792332,0.023040984887109338,-0.029539904959562425,0.014576253957949044,0.021021781760163713,0.04709384776095349,-0.04484996966571769
-0.03654746316597863,-0.09653792642375025,0.017050300057866116,-0.023149832410242915,0.011023254557172478,0.017439676711729954,0.04146336288624244,-0.05721497527936883
-0.032386147896702314,-0.10415752189331448,0.012708536108591404,-0.022752425943229918,0.009592415080571461,0.023604206913929046,0.048693777053531055,-0.06158581605883716
-0.03181806827278185,-0.08294272431444515,0.02892129333410198,-0.026206283354637983,0.0175442722003146,0.024541372634121227,0.04865141063992233,-0.04360516872086084
-0.03571292858428679,-0.07584461766642492,0.015555808508938423,-0.026419759627864945,0.01166447557702606,0.02386297129736816,0.058802840051900396,-0.03892557118484704
-0.03123494906697406,-0.09295569982300246,0.028661212557966657,-0.024534600933414905,0.0175646774433214,0.02367318993071252,0.057600087106600084,-0.046465998162710125
-0.03726536590047547,-0.09991988844659772,0.01653534798575807,-0.018002696953138223,0.0130937421267706,0.0242923884193235,0.055743672513431534,-0.047957027402485246
-0.037663330851505555,-0.09405609077493518,0.020977405814600985,-0.02387809169892349,0.01250464643066722,0.02744703917465744,0.05802440637534082,-0.04478233549609511
-0.035456183203730125,-0.08496688791644723,0.02955500534255675,-0.02033943184307927,0.01940931280986856,0.03428548711875486,0.05906667652594698,-0.04200384563528091
-0.03549684832816211,-0.08016391096756002,0.03181645409913638,-0.023434445260798145,0.01328089123625603,0.034635384739636885,0.06639834826030111,-0.04104832355974981
-0.03651603926882097,-0.10048885881295805,0.02771114847574427,-0.018472768457533085,0.01755992263132325,0.033420614256530895,0.06157175036653147,-0.03687686518214777
-0.03624623828498787,-0.08840470982693441,0.023786191272683426,-0.02360707441724218,0.017179337206371846,0.03003218196574885,0.06787347463240648,-0.04700452583590105
-0.03629319206630133,-0.0835700085667621,0.02216863576288275,-0.016072219118359984,0.017164448644099037,0.03391027939071895,0.05930687610985594,-0.04773003071547209
-0.031263074425019965,-0.08710924854186564,0.02835085332261634,-0.020759540892116006,0.01967104091912584,0.03578653178752279,0.066383111021881,-0.049073774360772794
-0.033514113448845535,-0.07334161903550397,0.03303214262830302,-0.02836831364934723,0.01994883982955652,0.039489479765873116,0.09037499671925875,-0.03121227587157792
-0.03791940592072824,-0.0862901542080776,0.028859810662397397,-0.01672761875893254,0.01585915373456697,0.04251905381977181,0.07362735556688776,-0.03355158634960641
-0.03323950884435917,-0.08649538633211841,0.02627587016339061,-0.022164736315163875,0.026126224399977156,0.042451409066690635,0.07794934206530693,-0.043312525478293354
-0.035383768731277264,-0.09838871686277934,0.026061735303859464,-0.02269278364336079,0.028475199190333957,0.04020853002832743,0.07131568654035694,-0.05202422405841414
-0.03322101821381817,-0.09878743035728352,0.0280144969892754,-0.026521632601038434,0.017712766695912527,0.04209442630085447,0.069989351895187,-0.055287629395717894
-0.028983112906772912,-0.09618607960709762,0.02740400524282256,-0.01736053588701755,0.02403749771973061,0.046467721580064354,0.07092704774209033,-0.042387115014920346
-0.03860241325639538,-0.09406660001645556,0.033428910774068205,-0.018984782702839053,0.02606116478980762,0.05308405118973546,0.07676162717915924,-0.03108867166989968
-0.031206275065548846,-0.0776183307783428,0.03626395395983556,-0.02211819996888655,0.019639620151862932,0.04882186434509971,0.0722728328253564,-0.03392996251352471
-0.03496526211435025,-0.07766012178242562,0.02420687019132806,-0.027263691349745107,0.016234785311808133,0.03855469528049877,0.06861843970276463,-0.0313299849879251
-0.03410395593901331,-0.08310223764250423,0.007979635081460403,-0.02652394251431642,0.018973104781427524,0.039874149557183144,0.07143527275420064,-0.041826230754690046
-0.03884724197654823,-0.08689246347221978,0.01958095078908372,-0.022331520677145028,0.01548348611710594,0.03876005911441699,0.06447794134085588,-0.04538085289208754
-0.032749751342658645,-0.09631681621826696,0.026248803620340645,-0.021747427744327186,0.019626608962208608,0.04426361988966943,0.06982596073476632,-0.03700518384487585
-0.03556667545725464,-0.09100119492352647,0.023663592790334257,-0.022847299616335373,0.01756126513395282,0.04367959303013117,0.07036890573601362,-0.019420208112223347
-0.03570203151826654,-0.08364449400385025,0.01897642616658277,-0.03007236043314461,0.023078380210296345,0.04148272627814681,0.06410787151717,-0.019069200086878034
-0.034864401961413286,-0.08044709756400407,0.01873858675573771,-0.029395046080449946,0.021589071476643577,0.03310884523296288,0.06540819502176261,-0.03253649245313854
-0.03946444686261857,-0.08838766143128805,0.017787455213581792,-0.02631244972440392,0.01701415070056434,0.03632626145688098,0.06966004998717258,-0.04577830929663841
-0.03391992637361128,-0.10275494688297018,0.030470153026987582,-0.023844312989514168,0.020523719005745185,0.040943877559212014,0.06934296484403318,-0.05691465421846546
-0.03597749770217568,-0.09116250034792296,0.026580452692596762,-0.020220558188389776,0.020912597009036832,0.04350717115366615,0.06717338664761201,-0.04146127824735765
-0.03952238869339559,-0.08542841502943063,0.01278475533473199,-0.02665083955207257,0.013421519417341177,0.04636881982091515,0.08106373650791589,-0.03377698290898982
-0.040467567656798174,-0.07828007513797607,0.013431542693899089,-0.03133884001682413,0.023000767069194274,0.0403278379485883,0.07164196261894949,-0.03312424389556807
-0.04074089930709278,-0.08973613857093231,0.0015243595798510583,-0.03030094822206043,0.02117581890875848,0.04639179737100586,0.07113543314022638,-0.03833156512075416
-0.040399971500464205,-0.09841318881603509,0.02483344314673609,-0.026599952275134273,0.026871567620942005,0.03832885180346102,0.06248863067464152,-0.04760550285370518
-0.041906193720972575,-0.10343501005343586,0.011076517148015429,-0.035710614339078454,0.01948235109821005,0.041716007062742644,0.07647050575015145,-0.057450306169146786
-0.03848099712175859,-0.0897483910845412,0.005778196601870893,-0.031531570424725486,0.021162513085891545,0.040110185393201936,0.07016641502387055,-0.031449536475362264
-0.03840145556436491,-0.09534203803516292,0.018803829766423634,-0.03611619759758097,0.023612150421205024,0.04071398566223872,0.06404996622713,-0.038500760239268565
-0.043632401937245956,-0.09158551383997285,0.013970710047256267,-0.029767588343325897,0.013072223767691366,0.040645329531526206,0.06882166233795547,-0.042003485653274816
-0.04037462234199745,-0.10185292966877998,0.018103199205830593,-0.03696429350307897,0.020581689464510375,0.03909730597384486,0.06628312049116192,-0.058294491197246535
-0.03856686152011671,-0.09209962247045202,0.018958926805720762,-0.03531030160202757,0.022756323316152027,0.0396126444359457,0.0654272081768925,-0.05368366076753167
-0.03738406619794858,-0.11920925581850363,0.007564778098432057,-0.027013821498214227,0.01861977721012623,0.03501821650048819,0.07270452288592223,-0.053641618512965894
-0.028964771578697594,-0.08677726110220607,0.00867027057631965,-0.03206036137692914,0.029017158597048127,0.039898849944672465,0.0717264071470948,-0.03631017849167901
-0.0373392980450064,-0.09367136745488476,0.011670107834719468,-0.029241522527739414,0.022469393503810556,0.03630763089072879,0.06862866681307914,-0.03397284480083941
-0.037322015848064556,-0.07669077295021404,0.009153904975477979,-0.03731504512195304,0.0135673869125882,0.0470657513031661,0.07215641201429975,-0.030337389535389458
-0.041689559445587214,-0.09691870544638273,0.008219819397412141,-0.034295006600318444,0.024103373788818477,0.039687071717433964,0.0706086706607649,-0.05134641650676047
-0.04742318566240564,-0.09881656351356807,0.015351257848463388,-0.0281845921158698,0.02145390470437507,0.03701723986877345,0.07016190472935797,-0.04984023306738177
-0.03882266404030597,-0.09264544399417021,0.016205816456877718,-0.03357815983783056,0.012428749283518316,0.03325660480683799,0.06543067626731787,-0.04548026674776138
-0.034817257056677375,-0.08287854846880595,0.021846814039934433,-0.025166973464078448,0.020808510813443568,0.04347822188371662,0.07693109977348736,-0.03647651986171167
-0.03676599216317829,-0.0913128848230397,0.009552560775344106,-0.03558541262958524,0.015057438216553944,0.03861687068508647,0.07000699533100553,-0.02263530325391189
-0.040208328695924285,-0.09583019690992034,0.012175780865313068,-0.04084296852255432,0.02040985812397816,0.03920755873946115,0.06536174574651782,-0.03633899076235753
-0.045226963958122604,-0.09188914351968595,0.00936316745124949,-0.029901039462258753,0.023038757203155378,0.038112385271760814,0.07327204412245883,-0.04137678917125355
-0.03765934761645471,-0.09587155539318629,0.01580432130075331,-0.02807838870604026,0.025237341433398508,0.038444520892298446,0.06858055900965367,-0.051346926949578944
-0.04366694198024446,-0.09740911129861052,0.007828463745905142,-0.034949451649211295,0.015572244804936084,0.03906618074068808,0.06268749674128027,-0.04879285223141898
-0.03798872803209187,-0.087530810349496,0.008111969339857628,-0.030679887935908073,0.02237202616879996,0.04196530637066897,0.07290710442325435,-0.03541604462248546
-0.04057979775345214,-0.09415335890970432,0.019771085081363705,-0.039129259481094095,0.023194522880181877,0.03895475623599346,0.0714808040452345,-0.029835946085798544
-0.04165387892936327,-0.08837111710394346,0.011402437497928488,-0.0354022021154667,0.022315340417430104,0.03290401540318411,0.06760665471928715,-0.04076386628534825
-0.04286030952893344,-0.09317932021483095,0.0030436489831599306,-0.037298261842142674,0.018061275306226674,0.038631662076937044,0.06218435430134331,-0.04708714082961349
-0.03641056488437874,-0.09564878338731232,0.004877966153896008,-0.03751782065131272,0.027300062017027903,0.03796412656474494,0.06489697654184667,-0.053734183993631446
-0.04300978944927585,-0.09357758733522606,0.012952658115146398,-0.04073133216380894,0.020077002368911273,0.04161587910793894,0.07095630242536596,-0.033921027635631484
-0.04812946284352197,-0.08461832387710422,0.010941407572315305,-0.035026373999330666,0.021481428989435752,0.035418312120765565,0.06542958089889625,-0.03579168702700857
-0.041779198002051744,-0.09963361237681595,0.004258277359208401,-0.04134962149730319,0.018415087919741998,0.03102463901869309,0.05642184386343244,-0.0328512137272559
-0.04410800027665233,-0.08381645034026479,0.016273194912588867,-0.036100574485200966,0.018040317153970593,0.026422751030141124,0.05972847149762873,-0.053663720245867276
-0.04677606412518836,-0.09434070547746781,0.01226526401156192,-0.03833826988149093,0.021924988665511472,0.0360944239573455,0.06370406790940258,-0.05005437518306206
-0.04226713332648027,-0.1063629936336449,0.013791025987055618,-0.041211613151596584,0.022246925812153515,0.031920081501365834,0.06508425864189368,-0.044734900800286116
-0.04882657092771239,-0.0771261967756921,0.016716154899816864,-0.03651033392040381,0.014731851060419592,0.035638284123088504,0.0625393910009753,-0.03266679925916421
-0.041931594950801655,-0.08096823068144281,0.01399666206513885,-0.043345541148539064,0.022652888806635234,0.02948079068075947,0.06409894248836251,-0.03676929877262415
-0.04791733610903512,-0.0895582120268285,0.004789811144304404,-0.04486357551285268,0.019865906929031243,0.02954851804851304,0.05537888549839491,-0.030601537596526264
-0.0435741316365138,-0.09343794188457664,0.012847892114695534,-0.040245163579311384,0.02182484422312229,0.025753161158418466,0.045114324976877625,-0.0440130121229491
-0.04399460345863209,-0.08927147191750431,0.016244560749897247,-0.04176591954085698,0.017747020527917996,0.028558718700582547,0.05838013270413803,-0.05223653197285868
-0.03883635947777424,-0.09858442020921346,0.017743590230605014,-0.03795647097922411,0.01515817162087896,0.02760445948675703,0.05904188568880615,-0.05240198914257565
-0.04192023276218865,-0.09098514994324554,0.016812152298276047,-0.040074680973455956,0.02286802597599047,0.03374349194590433,0.06179902060144399,-0.03882941009813536
-0.03496022283644738,-0.08958290100493642,0.01111689235433454,-0.041449820247690866,0.028611925112331914,0.036186081512866446,0.057762534893588395,-0.03287403990480752
-0.04215888052787753,-0.08800587101307294,0.01146335355700692,-0.04479623768702544,0.01717506905854601,0.029414164777702177,0.04876207853883915,-0.03804070328923073
-0.04173603919996037,-0.09478805917199547,0.00792772837623288,-0.03510901253677402,0.014950302599722173,0.030747956408501087,0.051115870015192105,-0.048558824684296356
-0.04118993996271577,-0.09493386414003673,0.014305745890389219,-0.04556336513079287,0.019144659250298998,0.027824676210841802,0.04754195146909272,-0.05380214463590265
-0.03602982249489469,-0.09317597108354293,0.014356957659983032,-0.038534862384826306,0.019589102826680246,0.02961921403171165,0.056432037485881666,-0.031304078339087306
-0.037644593532399594,-0.09164076326013369,-0.005631291951952223,-0.043861792416143214,0.025882765889007377,0.025376672287167,0.05333094291028116,-0.03840691086486896
-0.0422302099144426,-0.09333253244444199,0.009955242413007383,-0.04098739548894047,0.017600158483977807,0.023325353162625895,0.04940660425669407,-0.04144748223134723
-0.04492056281616161,-0.08441759829396496,2.3698775017830787E-4,-0.042580535508261394,0.018281548646953097,0.026841529853455677,0.04787680457269644,-0.059509869527286756
-0.044319794947568006,-0.09077001121694278,0.004944608956368125,-0.04584140972641736,0.017588828306283357,0.023575367450374755,0.03813844454019521,-0.05261844947824606
-0.03838139981532177,-0.08500136691905899,0.0019648275750657447,-0.04028348436940986,0.018104752798904594,0.01968900718003275,0.049390793074391134,-0.06251796531494914
-0.04236534988438281,-0.08502935809035253,0.0028948214936484347,-0.04313829124217196,0.0275417714367957,0.02625734724010499,0.043168577103617274,-0.0351251993100523
-0.043963131841432586,-0.08986914942668,-0.0022543240734801324,-0.04266732347581773,0.01626846786676465,0.02526614989791431,0.04546410102112903,-0.053132079954166876
-0.04307019782614752,-0.07453238316882722,0.005915493113453189,-0.04701850074749645,0.022628568417453154,0.020209298884720072,0.037487927530548235,-0.040467183946593106
-0.04394584750882285,-0.08426326053172731,0.010310729540251052,-0.04514557493852623,0.02255228624664049,0.023359582734194483,0.03416342215132606,-0.03448449145231363
-0.03924212520997392,-0.08137616335910512,0.005791877793108077,-0.03844740718013169,0.019569444170260967,0.01662196777230773,0.03687157057798635,-0.06456656212820223
-0.041751960866091155,-0.08609355722533188,0.013538673965434704,-0.046907148744286045,0.015721957665139823,0.01947289860657448,0.04291974036511182,-0.0457969728275783
-0.0383381533633604,-0.07705281534078427,0.011039929807000061,-0.04924456742818494,0.020021974607505176,0.019109091374277576,0.03912604703818851,-0.03042586586694184
-0.04583623478403904,-0.07235620279427794,0.009891191109744905,-0.047155380934514685,0.02573637176674568,0.0167268682623987,0.03748347108337693,-0.024233078265482728
-0.039620798583304286,-0.08639224052252027,0.004065052616677861,-0.05376930392398708,0.020693100512379523,0.016502731001084816,0.03243492652010506,-0.04224308932441039
-0.04142734369943028,-0.09293906198096101,0.003816862011840031,-0.0459681836360643,0.015152044161990298,0.02175388116324149,0.03151243231057392,-0.05092313066484535
-0.03914853956114009,-0.08684551299334849,0.006314917089480072,-0.044146377600317976,0.019811602626654226,0.020043477561195833,0.02901610220859682,-0.0631270549460217
-0.04021614939263881,-0.08224020303824633,0.01853054989201469,-0.048285426908371634,0.023388165373804903,0.01936945014144655,0.04258542706184596,-0.03758960749076708
-0.0432993656701228,-0.08406442412050802,0.006921190752217186,-0.04956228263125448,0.023087162024625393,0.015775208645345186,0.037758107179479396,-0.033787992451899944
-0.04214744679355151,-0.08357722020286489,0.01344906029051343,-0.05320018507333646,0.025908355258335174,0.01366795567062502,0.027060318309766723,-0.04048335277791995
-0.038089657963838404,-0.09443686371936416,0.00818631458629839,-0.04504616126877938,0.02642244203299038,0.013352885831025302,0.025834745696002637,-0.049347352518583625
-0.0456516900507649,-0.09801842441686638,0.015151431926719278,-0.048373849967948634,0.025818833456515398,0.016943879501980754,0.037245089617726136,-0.05311027756951768
-0.04322230568576571,-0.09282749699506104,0.01214793053044369,-0.04745935073490689,0.02197054787176283,0.024318881203000044,0.03722086360821781,-0.041461877409139966
-0.043043294360380145,-0.07971543103201226,0.004414505422508689,-0.045502510931796566,0.024355199070372483,0.022187867412624712,0.03674903119739257,-0.03523942577422776
-0.043700434393784515,-0.08100032161273832,0.0022272430407401936,-0.0449050977317431,0.029097121681226138,0.02024654899316068,0.0400973074664163,-0.03851593568613057
-0.039181873622355,-0.08217803698057138,0.003065317136565771,-0.04615761311880257,0.031782124534313706,0.015046900676485458,0.03341209031209992,-0.04412078115364923
-0.045011520646894385,-0.0943768180576642,0.009386320227751356,-0.045702124703200314,0.02230697867076518,0.01923252504931952,0.04131777719429743,-0.049633746236923924
-0.04016977259340668,-0.08584384959309393,0.01688254945961542,-0.044943470964611425,0.03202938489464398,0.02545096776940461,0.04008262880025234,-0.043295540418088176
-0.04414176881582971,-0.07036273969090712,5.435856579186058E-4,-0.04414911929197451,0.02481972776729039,0.016491332312300273,0.031778989087917965,-0.03516929240264682
-0.03873400067826623,-0.07232722132293598,0.011607976307304474,-0.04135319416377232,0.022988207269460506,0.023698911837039097,0.03909714580225103,-0.03207929886330076
-0.041134890321822874,-0.09230311707841692,0.02211721858080785,-0.052141556850797584,0.02760429769438461,0.01938387789617793,0.03014519526180154,-0.03960117620295057
-0.0409395231796589,-0.10138552571119508,0.012990168592155803,-0.05043266269032572,0.022740667464547164,0.019536024840387918,0.037244119002791364,-0.05756600443160221
-0.04174694085280548,-0.10409026373402662,0.004006643892274941,-0.04715976764198445,0.02428328546214345,0.022794655082962915,0.03618200892471231,-0.051877762927335334
-0.04805017819633147,-0.08009785259246802,0.018045788502692738,-0.05073382858296967,0.023048610385094176,0.02529004279206232,0.04100811253695962,-0.038679418369914675
-0.039581175169066674,-0.0860936762280949,0.0016095820258212159,-0.05117223136721385,0.025254421527060388,0.019863855780225124,0.03310021595542384,-0.0400837676888135
-0.04531199985640896,-0.09050739123437711,-0.006025145657722875,-0.04494576610607831,0.022561314634618024,0.013751522723815636,0.033389618538443,-0.04522559553889299
-0.03763333670854206,-0.09829003703821813,0.013630234369886187,-0.04957204348280002,0.015142225935555531,0.01897280961372595,0.03345578744680868,-0.051830514932040904
-0.04034173498084584,-0.0973295345346568,0.009538387565093901,-0.037130418301353836,0.01185665346042431,0.02083814333650867,0.02900774827579472,-0.06023621110741358
-0.04657862885783521,-0.08336905053071413,0.010151781758668647,-0.04394301233130246,0.02446701863262175,0.020587223043583416,0.04101443267421713,-0.029931081070267762
-0.04357042034369853,-0.09132293320467236,0.008306298110370404,-0.05314618383915139,0.025460437295437368,0.016511701255557287,0.032609901161672665,-0.030533619688201678
-0.0442603312796216,-0.09550716784103606,0.004283618169139059,-0.04253953929228719,0.02566548095057395,0.02269921818176449,0.03193524395365805,-0.031910488456343485
-0.04738216234863756,-0.0884686575693254,0.00979467455959939,-0.05045711252169345,0.018978282678032764,0.0205981425327912,0.031122451667678876,-0.05397118421275395
-0.045072537336327906,-0.08083026454818941,-0.002680247993355784,-0.046449839275271146,0.018901864627922756,0.01929339465974684,0.031241265501600467,-0.04774768069284887
-0.047307388999243846,-0.09339323869521413,-0.003221551466918356,-0.0522297058519765,0.02184036867916026,0.019144067652103903,0.03565715364260093,-0.04304884955191463
-0.04530911406126662,-0.07921718260218244,0.0021256478246672794,-0.05498802355826756,0.023774708998094245,0.012261313433667492,0.03232456622529523,-0.04582433903632137
-0.04247276063367849,-0.0874930958560228,-0.002321763361802064,-0.05458838399055493,0.022017167403933897,0.0127515844296553,0.038782674411929896,-0.05280866521052158
-0.04676516870849478,-0.09684845090408369,0.01298879903430298,-0.05542302983552232,0.023671863506286295,0.006556177642572978,0.03525510750631819,-0.05934221230540167
-0.05041867914414277,-0.07774213116857477,0.009825126362127335,-0.05711807000966658,0.016501843289546538,0.02129995575605947,0.03509918596022691,-0.041303036440813796
-0.048893183328176784,-0.08055319926393269,0.005450862714157486,-0.05392159303159837,0.022940193210043383,0.015704942475436887,0.0353651708217572,-0.045050150797290744
-0.047310713466395524,-0.09144796086885489,3.3091318180233627E-4,-0.05240734391712256,0.018303711693734796,0.011028499566468576,0.031832162535789854,-0.05282241997131643
-0.052356569447275826,-0.10055374420064093,0.02100476985942805,-0.05170443125772017,0.014045816450899105,0.014361685310518535,0.030621267952143448,-0.060384584339008465
-0.05137285433717407,-0.0978791435346125,0.013201295029841754,-0.047180848217535654,0.01548370406267455,0.010074245801514455,0.023722480740461033,-0.05960007720731486
-0.04592540199664629,-0.08168560278721879,-9.637581362600516E-6,-0.06265105420941665,0.013879830737876797,0.018513459298434377,0.02954891629712827,-0.034383742303087064
-0.049641271372037984,-0.08826004690480624,0.009993525659249122,-0.05492782203432335,0.018770130173126308,0.013223376235947094,0.02597663361616209,-0.034054013316284805
-0.0541072828027185,-0.09820012951242835,4.925261739466725E-4,-0.05900415274084566,0.013137479646122852,0.012310372185682893,0.0209209819846242,-0.05143859197628583
-0.04700196663355608,-0.08877090951404477,0.011268571361211493,-0.05901117199486378,0.019495091611976323,0.005610267481876305,0.02052889224410315,-0.04705258585218229
-0.04991735659529289,-0.0892548201576865,0.005368175872211145,-0.05463806869039195,0.01599810157938472,0.010395184419481328,0.023061792701329555,-0.04742632478068728
-0.057011024862347555,-0.09497216113895214,0.0014255858067751673,-0.06731523478565056,0.009923522308685186,0.010348111000624643,0.018837602112786307,-0.030818445409231246
-0.05225092214479629,-0.0805004346578888,-0.002799809567425869,-0.06143915034440371,0.017048685703871,0.009225609472338052,0.03069491835817267,-0.04891424291954633
-0.05668736798710903,-0.0971578579250835,0.006085474124825694,-0.06285210859779565,0.020396774221990405,0.008194412417228692,0.023835658843424763,-0.043182288926410364
-0.04955576141346404,-0.09537672409067391,-0.006028001469417009,-0.05866353507301161,0.018117962853262604,0.007753811436953445,0.021514771558784583,-0.04664920112245653
-0.05390171021219033,-0.09213507393536552,7.35606908655788E-4,-0.06600400721507553,0.02216047837623531,0.009888067104486073,0.02106755490972584,-0.03830351694386329
-0.05296150445967384,-0.08566291416642223,0.004974648064943696,-0.05580779350851263,0.015179214971465654,0.007588962736705045,0.016774523818705287,-0.03303782000633157
-0.0628744330792519,-0.08698183392771089,0.0021040358299888808,-0.06280693085304269,0.012103726404584595,0.004479879357591527,0.022569592006144924,-0.049235923638703105
-0.057521024960168345,-0.10130199937011476,0.006736408385472929,-0.06381651035761116,0.016356800061819995,0.0033851168602009466,0.015664716325308643,-0.051424805014181875
-0.055989611625530275,-0.09924844142163018,-8.773721605112093E-4,-0.05832365920405793,0.006667165289954009,0.005326693451740511,0.014806610279398252,-0.05315005333489849
-0.059201794450434705,-0.09168795417853759,-0.013693421278847677,-0.0708350025066983,0.015751002609636973,0.015477777742530088,0.014839623438901784,-0.04497072226207372
-0.05479309271350945,-0.09066611571773807,-0.005550643318512631,-0.06367331339788718,0.021682625607370627,0.005367279004805966,0.022240044449601728,-0.04737758659861202
-0.060218932215774526,-0.09851840585247114,5.19134485482373E-4,-0.0622793159877928,0.016216467535729102,0.007372575986712966,0.014046139696097049,-0.04799655063152268
-0.06126815408540148,-0.09379130108023234,0.0045965283259101425,-0.05822476737353726,0.009633866401319727,0.010293161219654127,0.017868431338039323,-0.04794946465446997
-0.05436006822226692,-0.09970287557153068,-0.0037468496332384205,-0.06587967935016377,0.01700098435305605,0.009783414816662107,0.01497713151506315,-0.06704754585939161
-0.05789119218203235,-0.09680017710478078,-0.0026091987392820033,-0.06172840427794441,0.019143650826253716,0.009003506987709277,0.02159478597314389,-0.043903843538333306
-0.056348276898481806,-0.08891936866736637,0.00397825547693739,-0.06218075406943931,0.014998132901918995,0.016648071963322655,0.023665525728362655,-0.03884251604789856
-0.05951632668256234,-0.08799843063679395,-0.0018528770362759642,-0.07791977046787388,0.01611338822712713,0.013449289584449832,0.025969945415923738,-0.04368027235991655
-0.06093934842874054,-0.09347044259254443,-0.0010856835669258312,-0.06275573467000373,0.014751651377689929,0.0058773410502712,0.02338609819475046,-0.05318282118352775
-0.05702749729124123,-0.10037256222760903,0.0018129086251871636,-0.06409784767321283,0.022503522492514222,0.008289894733685467,0.026292649161482808,-0.04665616603899539
-0.05757386439242596,-0.09886341207668044,-0.015821083802084433,-0.06965611542898595,0.013123671027782686,0.004980477969423174,0.017567982230638223,-0.060698077407942135
-0.06224041919147045,-0.0911954800268857,-0.02066990106110588,-0.06870540576445129,0.013016164424216582,0.009429566696547645,0.026523942979437543,-0.04292249027725441
-0.0652977183233691,-0.0950814841622627,-0.003728616322221577,-0.056373217757358186,0.017528651403925927,0.0053079625888646075,0.019291979751602784,-0.03683557139402666
-0.0615840390983868,-0.10061287380217755,-0.013062148409517546,-0.065437892150112,0.021138554081811638,0.01504282062455503,0.029857029349571275,-0.03113511049631498
-0.06555605591075031,-0.1050444027558461,-0.012496828687888963,-0.07266619974535168,0.010589156774618694,0.006293925878429069,0.022613838744130657,-0.05154722265691514
-0.06490271758208849,-0.1121492867054002,0.001227468650467091,-0.07522366486549185,0.004427266937099891,0.007556180970581566,0.018518135025995523,-0.05234603239789808
-0.06452201463098772,-0.12338407270313803,-0.0025189200660114468,-0.07263170167730118,0.007783076286604768,0.0087517942213211,0.018517450256191767,-0.047653913872791324
-0.06629659343692118,-0.12042637153481596,-0.011622171379759811,-0.07196124915743489,0.011554350133438472,0.01720096178268482,0.03772490368035406,-0.04073176125654056
-0.06531862441647289,-0.12601832466060195,-0.013698434944148359,-0.07032126542660733,0.007396358959139344,0.010503420771732686,0.031087588280966156,-0.03444103765050821
-0.0679475371024519,-0.1323771646353203,-0.0054599300997160115,-0.07456790681544619,0.008396933108929737,0.011391730484425112,0.032950924494812725,-0.03969610001974468
-0.0669768820049444,-0.12927665917528844,-0.004313410458851575,-0.0775176814270718,0.00128978508527789,0.009940795941800484,0.03461296784138939,-0.045992831580292305
-0.06517224030542364,-0.12762856233763975,-0.002230685432467106,-0.073117384176745,0.011799325539871551,0.021356495535116874,0.0324469428081284,-0.03725879482468562
-0.06677902854645949,-0.13436664964790845,-9.235357358498677E-4,-0.07573737746485612,0.015231027513529156,0.01894771362820092,0.03634091643714616,-0.03722027229447233
-0.07184186211102499,-0.13633510016105185,0.0015892717861489508,-0.07034768435102626,0.004671969084095082,0.01585511528075111,0.03659900112305178,-0.028067645322401993
-0.06977088586233236,-0.15326896601029802,0.007008515251958748,-0.06527453997661267,0.007233582254055081,0.02059812860102006,0.03606395405054503,-0.04339471097211408
-0.07113676628808276,-0.15292439124449336,0.00791560951628068,-0.07968263888434632,0.00556949181076198,0.019124642679964582,0.03905661410747202,-0.029017345073795785
-0.06362615837370514,-0.1448074863183668,0.005534920810292283,-0.06319590181903033,-7.101696909802473E-4,0.02057839852083275,0.03879863480433774,-0.020339818601544633
-0.0715376471175986,-0.13672154292184865,0.004339225539907316,-0.07462306288693556,0.0011159815415826453,0.018326579606480167,0.03742749036571808,-0.023276254960490298
-0.06809752951424713,-0.15264608503695784,-0.003941353351835966,-0.07473458970530494,0.0046178470363839545,0.019706334544652114,0.05069896435349495,-0.04039392557584842
-0.0760728440943263,-0.14475235612492537,-0.012179858784491094,-0.08115708077633565,0.008609300408743038,0.019223101845079506,0.03942141359204086,-0.03544527424336115
-0.07238851099539553,-0.1505002773281157,0.00187504243038057,-0.07661163434914112,0.006277691073883465,0.024234949083775863,0.049692312873862166,-0.03240931526794133
-0.07569747965051776,-0.1521827173589186,0.0056485751904305145,-0.0824813709331043,0.009682306301376047,0.021936777583739797,0.048827738485665705,-0.02616697272646162
-0.07394612511964146,-0.14043029852780278,0.0012794172213551344,-0.0835701728545847,0.004551354096405434,0.021559013576785576,0.05068751812852642,-0.03466988734658322
-0.08514308644331867,-0.14926938417081986,-0.015612684998640759,-0.09241599996086006,0.01196368471379643,0.017156636996473427,0.042127476510929095,-0.03800280230502433
-0.07726828539372389,-0.15579997157759223,-0.010540719882482107,-0.08110741600537465,-5.513343430874672E-4,0.020325351018034513,0.04542599472546735,-0.040668851083380565
-0.07193144853141724,-0.15278029929224624,-0.01576288972903825,-0.08158428764151288,0.0074786350082559246,0.018809438624841357,0.04824290688066877,-0.036917682674550235
-0.07355542845572424,-0.1508021223976543,-0.0047283532754601515,-0.07986220024922855,0.0017843254243629714,0.01674622623403333,0.04240031779380865,-0.03114788422623893
-0.08046512632734816,-0.15109172063367077,-0.01408639125749204,-0.08963242034919129,0.010047939143222396,0.02886112595772924,0.04165643196483496,-0.03373041196365
-0.07989820125416869,-0.15075104383561433,-0.0035804956597845295,-0.08203206355703463,0.005410189331439066,0.016116271749395464,0.03536802403230002,-0.038675436973432294
-0.08000974131422965,-0.16049794917659987,0.003230837477198789,-0.0819366165836614,0.0045890899365372065,0.021281506513082415,0.04032184034360343,-0.036087033946924585
-0.07722919826236344,-0.14772518993063027,-0.01211211134665929,-0.09237386426232887,0.006641031459335458,0.02371686912599871,0.03820977121865761,-0.03561219663963535
-0.08322200192387351,-0.14723395387475754,-0.00840686174974456,-0.0853418537059804,0.011693332167111213,0.03001746983297321,0.05136574885310279,-0.012603570917764444
-0.08010924992057754,-0.14898050690399126,-0.008089592642780712,-0.08653855198229372,0.007792325386511596,0.03492299838244334,0.04964112817462459,-0.03727378368596241
-0.07744514295674146,-0.14572405728452345,-0.00640870412359065,-0.09105367496101216,0.015976758016751136,0.026972848870158734,0.04309086112800393,-0.044743049417804104
-0.07837770385966478,-0.15050652037131815,-0.003059763133716885,-0.0933891619065125,0.012130147275489674,0.02403060893792279,0.04661969848975567,-0.039735662975022124
-0.07586463584073724,-0.15542287631769136,-0.02049951188541082,-0.09319204546768198,0.018968161172649937,0.04256719010101543,0.06199842125526563,-0.03308399535112533
-0.07492048784537254,-0.14752761805904227,-0.01921376250931515,-0.08515483658279985,0.024223449245278427,0.041960459690641064,0.06816125275307978,-0.0077227084247480735
-0.08220932950864115,-0.14201120201071468,-0.001427413007973822,-0.0911513544145455,0.02105206793429346,0.025702700240292628,0.054304125841543434,-0.009747634315113175
-0.07501768636791141,-0.14940889059157475,-0.015915987554636322,-0.09121216489124771,0.015755410129869783,0.030398385198159787,0.041568656647852545,-0.029601514694978587
-0.0811631102435417,-0.16590564198388313,-0.00893325931032018,-0.09128752140471687,0.006356830691749275,0.021111910058002243,0.05062999345479008,-0.04424994223626177
-0.07797778528721769,-0.17395863379619403,-0.012732005339139861,-0.09345425718094752,0.009918353895043846,0.02084458348305882,0.04400395531007839,-0.053585678034376506
-0.07922882956570795,-0.16033398699167112,-0.02026229772869218,-0.09492387013156972,2.4853635969771535E-4,0.009717753317788565,0.041447209847732834,-0.060785563857199035
-0.08099042164831961,-0.14983492372222454,-0.01272172191574543,-0.09361167137792369,0.0031717227294381805,0.024251730546457028,0.03377787009294502,-0.02598713140229645
-0.08300706321059682,-0.1559586991143185,-0.02273630961578218,-0.08757808827792415,0.003640629447296331,0.017642958029429442,0.04037788290345618,-0.02834993853619813
-0.08333987530050632,-0.1577375304607236,-0.010175001617393098,-0.09694303142450537,0.007603923489036937,0.009110635938535847,0.03243377873431339,-0.040711002925787346
-0.08305327757568355,-0.1659615078652704,-0.011735446079153332,-0.09186998642419077,0.00666601235841576,0.010768478575886302,0.028052220241045804,-0.047001349657309364
-0.0885019484769099,-0.16577273874016832,-0.01633597935668978,-0.09375009101304306,-0.0025713747133400628,0.01662087829109239,0.03075721563604007,-0.04547478348237973
-0.08400989150194184,-0.17100873192035282,-0.008403896801981765,-0.0945855568104186,0.002531851540987153,0.01848857350977182,0.040485878133411854,-0.04627001522153786
-0.08438193692511466,-0.15086759593115964,-0.014016516061555288,-0.09546575745552761,0.010858293651879462,0.01854706334515149,0.045720251843861526,-0.030178676140711225
-0.09384514718194506,-0.1671162514159477,-0.024143993813501827,-0.09513418497738364,0.002122375564309314,0.016687300894393357,0.031150372178662317,-0.039630419663055534
-0.08086848654269055,-0.16114603273590355,-0.019434403725604697,-0.10063902140823651,-0.004405073005694082,0.0016912244884529008,0.021457183283710206,-0.05466414129591768
-0.08506154934790616,-0.17441151007986624,-0.012122417057023313,-0.09653068987887095,-0.004486097623758476,0.0035059714047306163,0.02344872550595988,-0.0549905841785897
