0.07085837024824702,0.40753791826973484,0.068632134200776,0.10591368967427695,0.10794229363824569,0.09346202767589243,0.07340189853953522,0.4300575497208993
0.05504661852571202,0.42110651858995257,0.06367029358030188,0.09236663478443466,0.10341143553954248,0.07267983171538424,0.0712040381063772,0.4370187805756866
0.05602191482039979,0.37088178673231254,0.042412748183679926,0.07616364551481765,0.08498602691065582,0.061241335878847024,0.04978927955626173,0.4319661272058988
0.03271067531647801,0.37998363146054603,0.026058793424383025,0.05345016740847252,0.09089479369053317,0.025408637823996005,0.02848490469713866,0.390185111607745
0.07215359121329949,0.37663921621176366,0.08951898932001238,0.14006155151213376,0.12696551979891407,0.11970957035872395,0.10134430457085435,0.4076013697077538
0.07496687178445778,0.38378182388161974,0.09163632254961168,0.1525660051539398,0.11862300820873403,0.12250567995375718,0.12460514426867345,0.38524425465904377
0.07547694667432461,0.3889554166786319,0.09427030332775196,0.13609798462518685,0.12107367119908855,0.1205795911727167,0.09537066199901949,0.43007427747319255
0.07022936746838895,0.37911240496703885,0.06454804858239904,0.10928059032750483,0.09765406336992671,0.07632764941270664,0.08271848137890075,0.37345251578777006
0.048750268535013484,0.3497399352147766,0.044768447947253154,0.08167071552721368,0.07733729355252605,0.03697744366693759,0.037739527777085724,0.3600848577612613
0.04396242393887409,0.43465633281117333,0.03983223635580768,0.07584849879712664,0.07029357509198368,0.054339665068547954,0.04812482782178364,0.34408841751366565
0.0800202690797546,0.4219503714522213,0.09081294078678401,0.15010940246056229,0.10872694243114983,0.11497827661376794,0.10817483329704007,0.40456535710159575
0.07822727701080469,0.38249253171388975,0.10582090997150032,0.1597336651114213,0.11816393659876395,0.12362167599117174,0.10275990717569526,0.41639580449542024
0.07741493278723198,0.36966915759742,0.09511559007892223,0.14290943086926278,0.10842837199998896,0.10648035383857563,0.0819843691314581,0.3975093772594233
0.07348161695010623,0.38620802796308923,0.06906370702179139,0.10390400198512903,0.07611008721121705,0.062109026693879146,0.055008197760732444,0.3937408887332801
0.05151178693900152,0.3480634895946928,0.07753144295363834,0.09663684839002766,0.079710374944583,0.046133942937945274,0.036357879090310755,0.3693856257085846
0.0798887203980545,0.36794875218225875,0.08706830758641844,0.16177338256960774,0.10672863173798468,0.10687433025506783,0.1035149567755467,0.4489079766564791
0.0866703098534752,0.367541958240142,0.09667041559422716,0.18677272949629162,0.1117750498908194,0.11150072155951833,0.07513459131976842,0.45136321414582725
0.0761543162875417,0.35935270002120734,0.11175602994249267,0.16642889555391888,0.09674398207164531,0.09800819155769012,0.07803044642237845,0.4300997348127626
0.06934520183311733,0.3756321168630964,0.0739130341150633,0.1239329350426201,0.0763388953690792,0.07125362911912832,0.022090188361747597,0.3210602487458152
0.054744323248183055,0.3756288857102133,0.0554432129273325,0.0809537074272311,0.0394712291741309,0.02061396283683441,0.017223028234552268,0.34373188940828264
0.0686263974683024,0.41000205740148987,0.0912219399627713,0.1351066833648095,0.0770331499813691,0.06313821991259687,0.06303089489662202,0.34564998388684637
0.08575438730338529,0.40467932466215606,0.1224865914501313,0.17982862301075542,0.09555661553848632,0.0959491023753458,0.09230684741681977,0.34772567946057037
0.09795918770947733,0.37955825457952136,0.127040625278293,0.1853100932213264,0.09626698002909669,0.10594873749587994,0.07612904642029077,0.33539747608543763
0.07246865893272862,0.4250833105849761,0.08111066012861869,0.14283599974030795,0.09588883704689616,0.0827683623121696,0.033906008082663135,0.30107150291159923
0.07149639108911755,0.43706189278848695,0.07047973047156644,0.11130629211945955,0.03488811513087932,0.024292910622978007,0.005143599576021851,0.30698743891828745
0.043975769013344546,0.4384200743416133,0.06270891154492655,0.06671369259449063,0.017103296006643176,-0.021753978237304187,-0.037609898691457436,0.22504961166248577
0.058148044945779,0.46498577965559534,0.07603733316223986,0.12001443053308118,0.04210523498938082,0.03222875547009123,0.019665568365609395,0.2484096812852729
0.06937871754824536,0.44443472509939563,0.08002928401943807,0.1515600124192059,0.0646967440934848,0.08982431543769806,0.05732242750767181,0.2327680242050723
0.06614336738104923,0.44474030252842484,0.0837435683834359,0.15660236574189526,0.06755937131872877,0.08371469959032701,0.059792919790358764,0.24324434231202308
0.06252003725068744,0.45161864649271805,0.05670661275870047,0.11819596015629466,0.06146055946345168,0.037034627653703134,0.03238750624969872,0.2546876937946669
0.05500057874014298,0.48800329490548583,0.05708438176361043,0.07979788503891498,0.03828592924039389,0.004031740872177235,-0.01599295070901946,0.2684204709645221
0.048050283758479896,0.4262208997489108,0.058197770075373086,0.06681807346703589,0.02491084087763678,0.002068399457430633,-0.019145044379708053,0.2877780414501102
0.05964379443265309,0.4573164079870436,0.07334788357852148,0.1251912971975741,0.06328882483936842,0.058199612830609135,0.04801052241071776,0.279155220151046
0.06796823126401332,0.43945441818643066,0.07134933704516934,0.1333772699393633,0.05821754954455445,0.05485427778057518,0.036791490997044506,0.26556811553760235
0.057766635360994106,0.44857174525171106,0.05389230249486345,0.10479159457392392,0.05644325382564391,0.031037924718208373,0.016373887100031383,0.262979443685094
0.046276967862937037,0.4674978777746673,0.033222701712978274,0.06963048499729803,0.04646733692200465,-0.0236193669652581,-0.03403468755074061,0.2704429955946475
0.03167903031114995,0.4830517868263054,0.013852805496545885,0.013586551213483499,-0.007361402506633786,-0.04255424993794072,-0.07612704278184755,0.30685108088890795
0.06774037332574707,0.45947337036860253,0.03978089877080625,0.09103303673897706,0.03759202396893875,-0.006681700206443165,-0.02044914808836694,0.2546179085786377
0.06992234174120115,0.44566993070663086,0.04273586805200999,0.1084810267799016,0.03465950191580113,0.03934722062960516,5.092880872687968E-4,0.23837692466542104
0.06153212013467945,0.43392912951191553,0.03682261910878084,0.11002203914082412,0.03155076729103709,0.04628726737828064,0.008661257946958937,0.23987501212483878
0.05324817702178656,0.5077559759792977,0.029485144876594382,0.06909622592379595,0.018660001279382846,-0.020337097346619124,-0.022813339724814106,0.18770666850518508
0.043374242707392936,0.44190885142081565,0.017597105923855865,0.04044899431087185,0.004227794286839346,-0.05288434081122723,-0.0633858662389058,0.19174386480358502
0.028149754926938157,0.4163232856218588,0.001116292646710011,0.00659598075539359,-0.019486757520779344,-0.05492829508256971,-0.07062212860337329,0.20928836121857775
0.05279447263734022,0.41014189272088625,0.04316774398569463,0.09897106174255403,0.030326608158809595,0.009945484442526362,-0.028272350093217092,0.277354498681506
0.06085405707766555,0.4167326416328504,0.06104534637407726,0.10363441039324803,0.0515658294803314,0.022500467208717432,-0.015488311707081195,0.2547990474705527
0.04815186920383932,0.3913279303464131,0.025172983774854864,0.0638336688847616,0.028688214939142805,-2.8278804967689174E-4,-0.028339081108601144,0.3050454646360988
0.03466000109706481,0.45568014959387515,0.02266042378326599,0.036871669280389145,-0.00484454167463446,-0.04324703685385701,-0.07579945708592753,0.3237431776977732
0.03762033587233668,0.42858417246019576,-0.002961039969485238,0.0126411788215093,0.005478638347389686,-0.06680373163389923,-0.09273479283939581,0.3562144100929637
0.0486947861255107,0.42357728768546876,0.03657959152118528,0.08907066720848728,0.007399526599838897,-0.002679721709063854,-0.025628840429087783,0.24497271898880482
0.05903091744119153,0.4285493478646069,0.045866987160392,0.07591620065441324,0.023155499897647532,-0.014422807299336133,-0.02003171061241688,0.2854865444576043
0.049350390102264545,0.4820396086697082,0.015754321394249274,0.06488963537632507,0.021911336062265963,-0.02479784697280539,-0.041089426936713025,0.28439666626694965
0.052452611626478865,0.47329611725228554,0.015189007308248435,0.01952491027323833,-0.001468779924234754,-0.07160224895189081,-0.07708380813837258,0.256820229048236
0.0596816136985648,0.45047963432001437,0.04215971503784381,0.08782771324329224,0.01998701199360084,-0.00784326078400724,-0.03276151704328514,0.2691205992086127
0.07646807303993901,0.4922685566309893,0.05278835880222844,0.11057650395664981,0.029116708820400572,-0.0013337840827515927,-0.029253716015826457,0.27735765250520944
0.07706217719528217,0.5563953007526123,0.04214933719596513,0.10330716852942216,0.024357493867177157,0.008992998076541981,-0.02531636089589424,0.32399876743550904
0.05306022797714897,0.47860599189269504,0.040205319875993815,0.07096158167818312,0.01311460037951866,-0.03627589996925311,-0.052008698639596555,0.28635467354305894
0.06874119055191887,0.44317027017229427,0.05097804153553281,0.07510827400161055,0.014933805618827865,-0.018243602277043327,-0.05552948753277809,0.25452363048792637
0.07309767150376247,0.40507594426036736,0.07953204606523998,0.12707836487201163,0.04067904200345198,0.039269825293629164,-0.015495287011090925,0.2940223771017043
0.08981089232157911,0.4105555586806188,0.06386103840600091,0.14035500126489298,0.04325088210403043,0.041198630821744416,-0.008419859256869671,0.25680971768384847
0.08565187569180548,0.4287160482780568,0.07441991233234697,0.11043981510928202,0.04210377918078559,8.638304051345E-4,-0.018171242933038862,0.29956008579918875
0.06940588751126472,0.45742897101840824,0.053545637831157844,0.08068674446834409,0.006830985570492875,-0.024282200576568904,-0.05914034678623652,0.2698620139440068
0.05995550521549136,0.46042063455041077,0.055861016376775194,0.09552187890340132,0.023206356933256875,-0.0029740687487342333,-0.03245640833903668,0.2961788240589755
0.08721796824419827,0.4772295781958358,0.08313087282062112,0.14673977632300061,0.0349284912198646,0.04932435771497556,0.01093863732973848,0.2729657847027878
0.08453015092749637,0.4602649237201104,0.09843820100270309,0.15274784503415192,0.054715968990895605,0.03667918098172928,0.026073087749393275,0.30760751462836644
0.0829391820961055,0.42235683448980726,0.07516624462643517,0.11630427834520707,0.03452692147862756,0.011258284055257778,-0.0053858476031689775,0.3063978104935981
0.0655265373061899,0.4583604977089796,0.06092368648004132,0.07943237736598148,0.008716586572709021,-0.008427241448486037,-0.01437751115333086,0.30805842789663723
0.05862943325315318,0.35841786729764125,0.03520016670734602,0.05443212191823897,-0.004356376035232464,-0.03672647405877371,-0.06109966300047605,0.29054839148343026
0.06862240963669561,0.4774369599759243,0.07693547864465307,0.1253870756898613,0.03152546777081773,0.02540558369747104,-0.0028479303698361737,0.30558453550846404
0.07422162328691807,0.4417326203577915,0.08516001568166706,0.12909633949070792,0.0378557912737065,0.02773949124532911,-0.001215374909909814,0.2759266405228123
0.07007008642638135,0.4040844747372916,0.0710626881792541,0.12207351994255974,0.02628690319653237,0.009914222981274303,0.01480426199371952,0.3577215136259754
0.05783373896918214,0.4513598979776362,0.043886927309458534,0.08259610724898554,-0.001882663938026421,-0.011537345331742131,-0.03361566926802284,0.32078303005633313
0.05163631145251856,0.4012494461692871,0.06428139777025278,0.08449999222601316,-1.7696703941862004E-5,-0.018272395966246684,-0.038343737851948806,0.2917755535892922
0.07341333735919647,0.39110051173123334,0.08998559835173729,0.1404882588040126,0.014510997164020812,0.026132288390239435,0.021991711511746295,0.2988940611481032
0.0738115555910878,0.4477057505676379,0.0929387467637838,0.14068136121197225,0.02735016950303425,0.037964789364493975,0.021631003557167214,0.3061769673651433
0.08206303366508363,0.42769843623104137,0.07796138622555328,0.10691798236375298,0.0018194851922442288,0.009415798124011516,-0.0035088831947393843,0.31542063778065993
0.05306263795795683,0.44810742243664986,0.06416052037187532,0.0808252901939933,0.010160765264109195,-0.03990123097195549,-0.04843267819248575,0.3320524017667938
0.057876360117265414,0.40997472318268063,0.07615399132076954,0.09801237647708481,-0.00988758271139018,-0.014845391713699514,-0.018865963261335626,0.26054818337920166
0.0713337112008088,0.4357064869600238,0.09552587646322,0.15191747940262498,0.02758076193051114,0.042954839492193704,0.033820704975727235,0.3484210535420659
0.07794008840075686,0.4226857793969832,0.09065513207250872,0.15079626549011999,0.03245760708081196,0.03668451427003015,0.03097714722591184,0.29236210073996893
0.06739477625471448,0.45940107366942323,0.08490184280847808,0.14508137702437168,0.023708690478982043,0.031276177616026635,0.004916925981834085,0.3109269823463954
0.06905560977625769,0.4295253327874164,0.07372539601575115,0.11115175894142786,0.014828389184843993,-0.01883908800377444,-0.02372534173846006,0.2928896889542815
0.06278253310103983,0.39711835242930305,0.07177968380129687,0.1079271017008994,0.023387829538751147,0.0025622789541757326,-0.004132011285074829,0.2760418300941613
0.07324696753976394,0.4140735652400694,0.09187963222111846,0.17029120750535828,0.03489977402015986,0.05921921277758983,0.048879855965325354,0.31332714659997846
0.08229086415977925,0.46378948952760246,0.11101972277933926,0.16022527734720007,0.03731784508694398,0.06466900214044266,0.05798412610543643,0.30617624056146553
0.08618126816334912,0.4350482783092098,0.08570666350457605,0.15832922348072132,0.034079307952284726,0.02403675426009719,0.02576437066611745,0.3220783068363068
0.06509271567049814,0.395689697514465,0.08620471847357165,0.11483582618184858,0.023422221266670293,0.02207209946055566,-0.001281644961807775,0.2794137509992898
0.06847504478910157,0.40399728900451926,0.05798819823075078,0.11737220304315109,0.014360263339662643,0.011361084753726465,-0.01241274258127356,0.2991419292950973
0.07750600473474498,0.41981786491541134,0.10188499123567026,0.17638611649136374,0.058487576144652324,0.08183744280864542,0.0471860017320135,0.3126343321143675
0.0709279776075705,0.4182204722343321,0.11539379125366142,0.17838617179845628,0.03058727041370649,0.05724408143004891,0.03391117098196864,0.29867719157585937
0.070532336743376,0.43030091896302236,0.10040616581774879,0.15732248308177568,0.030940853742850615,0.037578174559806686,0.015769166648896167,0.27544859762067714
0.07283080544191012,0.4166681084124746,0.08876467865351034,0.1381930673474415,0.03177902198855129,0.016226847682260775,-0.00642506574040457,0.3047997165913008
0.05493197732157473,0.4129777387400888,0.07459760892641325,0.09694977404705891,-9.785551773536644E-4,-0.013575487257907286,-0.02994374675746331,0.2684990092709824
0.07275844279029167,0.41205151527916617,0.11348500359091021,0.15949885804692504,0.03928805348667524,0.060729299135555095,0.05337634365548382,0.2654582026858016
0.08508571152951784,0.3909878028752427,0.10323674818718037,0.1775529205713258,0.03087816208507596,0.057365222414076975,0.0379893929919531,0.24454864802865164
0.07590223194477812,0.41067887099366024,0.10912384026731202,0.16279000234074936,0.029632508784691796,0.04632564513725906,0.036171457298370756,0.2905660229095071
0.07563958321963331,0.38716649038068773,0.0976164524758376,0.14648369782089557,0.007393169676992101,0.02530920940161349,0.00464750636085182,0.2980499806891692
0.056174050963238534,0.3532218202436552,0.0678820243233002,0.08872337941171118,-0.0058852525869605155,0.0012096040076261401,-0.02336100279158107,0.2974913790369117
0.07221505004296758,0.4365361926225305,0.09731532180504755,0.14492882027077963,0.042672798061238214,0.05336651129392903,0.030034355075383445,0.3000182628548451
0.07730204372649799,0.4492479502530235,0.10332326636467119,0.1732864248044177,0.03640624403652902,0.07259478568771602,0.046902397138063164,0.3342029212284809
0.06757487277947678,0.43618091702402106,0.09597728118913224,0.1652455365929128,0.03963963077120827,0.0681625127800402,0.04428314024737636,0.31262481772183676
0.06408213663520519,0.3852027528007104,0.09482402109426587,0.14677610469735403,0.022333723860160783,0.022967351437522616,0.005499029300129909,0.33812941933948165
0.06129977580505856,0.40460050565629374,0.07179124151681855,0.12589816420478142,0.026682277708929947,-0.012262016224250416,-0.03776353962512366,0.30827783499042755
0.06933297041352504,0.44013291352177913,0.0878636180597989,0.16074508717219776,0.018249680243522796,0.02604542361157433,0.014734657348848917,0.31945559357569986
0.08120319152970773,0.4517836166888585,0.10161355994708256,0.181731696807192,0.034641226943327,0.06756683875230846,0.03499116792227101,0.32173443523041073
0.06625852667810131,0.41868418568210797,0.10190811344706786,0.17385483338376978,0.026666396763149237,0.0582653523223455,0.05435220723948807,0.32601155429459305
0.07121622994909581,0.42084870406152164,0.086410415132078,0.14638266539058067,0.008236264996938374,0.019600536739808806,0.00796679978548085,0.2717291779029632
0.058742820439728685,0.41808468627563744,0.08139741231008908,0.1250242368554539,0.005909601181471505,-0.0029917396262346607,-0.024581842831180315,0.30816168271552263
0.09212615687080956,0.45755730609608675,0.11597475771709893,0.20765627746253068,0.03674085856240751,0.06350445596940434,0.04432244990392856,0.3202431208642166
0.06831114090129786,0.41141474231230585,0.1015153531603211,0.19312226002822297,0.04647078882385156,0.06578904295323301,0.04572112990961845,0.3354891369909459
0.06213866233357049,0.3926589599914637,0.10083212576941693,0.17015939249945936,0.03309486323677153,0.05929439136595427,0.03774332272750541,0.3032396226885276
0.07226866993440884,0.3934026020933881,0.09441739982445488,0.14750860341301691,-0.00631960640089946,0.004337340668264069,-0.008947569055131485,0.26254261016748687
0.061511519789278414,0.38414093862997084,0.09090116749589112,0.13002900832186243,0.008540860481982916,-2.583568245365421E-4,-0.0050978335813497005,0.3152420882506938
0.08355115497334717,0.42835273413736463,0.12396259758677587,0.18805787356891554,0.038084060313606595,0.07826775290815144,0.05845830500520679,0.28492531077728955
0.09155503317849276,0.37295036629283745,0.12252226925271835,0.21171760772065418,0.05415577887418282,0.06572184617647572,0.0344265563390494,0.3468151599848122
0.08943929310150743,0.38072583979732905,0.11099492376635889,0.17578785404397307,0.0241431989065675,0.04630554336336027,0.0323378669399061,0.2845311458719649
0.06207898459023431,0.4017706439792482,0.0744513294458109,0.16150587837279304,0.01854020446059062,0.017334104252740918,-0.012819801547052673,0.24625756999674947
0.05136607137706026,0.37790949318942557,0.07137635022176422,0.11998607489180943,-0.017216487916085713,-0.023561681437412146,-0.029543090590623662,0.2625675598615241
0.08743227121516366,0.3980602340297815,0.11100215324304963,0.19742317218730357,0.028709895929743764,0.06459671776298181,0.040929074576024904,0.30421768447198677
0.08828511327605663,0.4424664897052986,0.11535588098742952,0.19477728081047654,0.04149308010161375,0.057100756928859756,0.05485887167897963,0.288442906314934
0.08127184068729645,0.4050758876867421,0.09612592680284168,0.19355696251995297,0.045631363412373054,0.05184013462258732,0.008399534176797355,0.2301095415895995
0.07220716862272589,0.4099627429606548,0.09969405361154453,0.14439828953407768,0.01974680847074746,0.007861433059327396,0.007939344508656214,0.2923027871560231
0.0697038296724762,0.4005161245829149,0.06673136060265386,0.13770618683402874,0.019283292027234566,0.009922857444981463,-0.006681525586986142,0.3296577114157464
0.0745012811239215,0.38334769012542386,0.11619048085222967,0.18481535596115473,0.05339307896410714,0.06949741237678506,0.04332568430665369,0.27060670710929313
0.09128912475333974,0.42699621849212316,0.10291173156678053,0.16908782641622178,0.025487766424965846,0.045518679979735216,0.021764017260424116,0.31401010501855164
0.0650437514497265,0.4152419107168127,0.08829241622658932,0.15291165126052542,0.015972014898251525,0.037046910322909625,5.338476009818411E-4,0.2621885467623789
0.06060052814578078,0.3740812485071878,0.06477463624439042,0.10502865068031937,-0.005158832315804069,-0.006126014180441337,-0.029832919281745283,0.32084688592376764
0.0721103720626096,0.4313502182527825,0.06526275995387616,0.13692814819595592,0.00634117407122174,0.028293749009447235,-0.005713382351609417,0.301023881833628
0.07795784414042631,0.40924613497817397,0.0960883654462572,0.17894547686440926,0.019694552586386374,0.04907626859607004,0.020232164910442767,0.30460996158180936
0.08132992893941145,0.4290506307053072,0.10152889835018848,0.16913694225094542,0.025048167265737834,0.0465771383042587,0.04471933316758181,0.2749034324619746
0.06632964881789855,0.32957487804218183,0.0837565409194149,0.14060149938682392,0.005978771246352565,-0.002140131737829772,-0.0017040210109724521,0.28881004223414
0.04602276406532423,0.3439310168955092,0.06120011510642025,0.10554740556273841,-0.009771746330449568,-0.021255061279076982,-0.023790185868250657,0.28776803718370236
0.07704840786015392,0.3667589391645963,0.10319679567585406,0.15892240110983444,0.018845687380022215,0.05781573917039675,0.029602441162121622,0.26759789073073403
0.07823002316086143,0.32575500316827655,0.08752742839598907,0.17762487743884386,0.03606786097212065,0.0649636830663437,0.044845872848239,0.26161619580486567
0.07296573058534805,0.3637549428317867,0.08790390219465033,0.17098503142691543,0.020489923940180114,0.04501379403683048,0.028359559848036713,0.3029582206847799
0.07205252048456942,0.38492255813220283,0.07783677231607064,0.12538863293231636,0.02190103022934585,0.04101973883724139,2.2554482275548445E-4,0.2899105578841925
0.05786571975309686,0.4011230073293169,0.05530578336426945,0.10503196326037059,-0.03381885089908964,-0.016263103723361667,-0.025992689227632863,0.28051575130027934
0.062025026713644266,0.38569849029122455,0.07759034118505408,0.11181238799174767,0.0021792331030841433,0.010314960741166905,-0.013794024623324326,0.3013007830534396
0.08261365917747127,0.38094571810338484,0.08898884318612035,0.161234985362349,0.00836167806542033,0.047535288771920536,0.04035493702868132,0.2669016998653815
0.0698806009043393,0.3458530974843852,0.09348060698446609,0.1635988826522229,0.01974717815751601,0.0386309256620293,0.026454855547695968,0.28433013344526664
0.06615413073729587,0.4238744036701526,0.06538504738128038,0.11858168689054055,0.016545574030801296,0.00998382554430542,-0.005415623764904746,0.29314439684700877
0.038693231139735905,0.3849288774275889,0.041057561715179436,0.07898781575337527,-0.02098443273715499,-0.008092959987830661,-0.033674583285724875,0.35122019871120325
0.03435011097144753,0.3437753800220196,0.04338365597299829,0.06885768920167518,0.0014171692524837902,-0.018770166677632972,-0.043414029641195256,0.25525216221750197
0.0548335279592581,0.3718182633775605,0.06454290958794275,0.1418569227210178,0.0019306662095243366,0.04622292188375551,0.006460760579483517,0.25346786029202284
0.06015145597414642,0.36867952385839303,0.06717414978027628,0.1220729668275877,0.003822365240460596,0.03458561317385326,0.008486045152573621,0.3028893768027185
0.04586143227957077,0.39949753758343104,0.05615917954254678,0.09978422248833253,-0.008129141355478578,0.011318733450322986,-0.016382510504955483,0.27113084409072963
0.03367410559472997,0.37784652608975433,0.033893118715745574,0.05711101048216837,-0.015307909716954813,-0.038977859174232465,-0.0350945347542262,0.29199634356497434
0.051164349106645524,0.36140270270027813,0.03944887137290095,0.08074115031644653,-0.0153221086474959,-0.008776140674877685,-0.039980342505780135,0.220710154547613
0.04229858485156681,0.32431032260410825,0.048498510389112987,0.10657181297027421,0.009264219590218786,0.021853411975737144,0.007383792167204606,0.23186577363352204
0.049678110788035065,0.3391359532969343,0.055090786075680485,0.11079075860149305,0.004100552113475079,0.023638469009783315,0.013821738949863941,0.26736018816661483
0.049984320529037306,0.34451843842010266,0.03461800987611946,0.06721621262857909,-0.010575996074681609,8.781254283305663E-4,-0.025947670007891128,0.26400798077032533
0.027484935864540646,0.3692969416480194,0.00550277255535772,0.029850834350350134,-0.03013844269949897,-0.06434701301169472,-0.08686497264472876,0.24910193146182374
0.04057418673317873,0.302236913679978,0.056528913055354,0.09835648947215211,-0.0020387398254905196,0.022328298021036936,-0.01841787444765697,0.2388285411645176
0.055685070552740266,0.33317745484981276,0.06381895485890733,0.13037958914580222,0.012691628790067775,0.040677071610565656,0.014290176252042692,0.28551451624681845
0.05531541716704669,0.42360916807842364,0.05924198446015311,0.10697456459206689,0.003752093653669158,0.018275161160198224,-0.0076005370313429145,0.29206208963279595
0.04389684967838528,0.39855422886253133,0.03723578055390761,0.08227187406975243,0.002016186307436462,-0.0215225513605669,-0.03247217034350199,0.24848088132035404
0.02699418337230461,0.35621643741301084,0.02614736048948233,0.05486150322409258,-0.03204490840116788,-0.038421908436648916,-0.06358340853883292,0.26242509804557124
0.04486465641795327,0.38439201379076865,0.04960819552429861,0.11697974579082591,0.019715416219865757,0.014136770598430269,0.017714331865340292,0.25449042263734195
0.05724597843838214,0.39142976453762046,0.06107523050865689,0.1151711803164275,0.010151619615219014,0.03894448876067556,-0.0030131362577782905,0.272110765438106
0.05168046953547241,0.3752443404225233,0.05167469775625895,0.1105184934213602,-0.01196797048314931,0.007669958758415964,-0.010612872207114593,0.26534696935485674
0.043516115050939025,0.35250538473758103,0.04343797838427501,0.08265024161982612,0.002707727242100862,-0.016329120571457918,-0.0311497342881205,0.2937395917569799
0.028503159042410537,0.3640402415483565,0.04902012979514991,0.07315121239424432,-0.009299938514925445,-0.008049859506782709,-0.042697806380347855,0.2705311619365392
0.04980975901905088,0.3952012781628663,0.04989810597752145,0.11852547867590371,0.010680631697200101,0.031633751633126574,-0.0018056189525913861,0.23763807450967397
0.05023596365848677,0.3647707040906942,0.04158339174560974,0.12656956681994608,0.01922869629052413,0.011233851373760647,0.011954425159248204,0.25833072399709306
0.03329411472991033,0.34807853519215287,0.04527981417271508,0.08821896150690944,0.015005197462119958,-0.007083158710287314,-0.014260786765859552,0.2826659245085101
0.02665378864932544,0.3983792964337522,0.011445375810998621,0.06662798092214722,-0.02066682893312456,-0.02194168372128824,-0.03296082872187626,0.29681367551148913
0.03510915572812125,0.3395499097540247,0.0466084168670648,0.12184452907990197,0.02942626087529917,0.04239915871996615,0.010440649036630084,0.23000815734320787
0.04709772888423406,0.3297262491519537,0.07961705111655859,0.11681735109802321,0.03360691458641965,0.03673528379444917,0.016367621442326855,0.2346065318064352
0.04472470572454144,0.36144067408457425,0.05789214245173538,0.10589239314535114,0.029158712372202685,0.020207730952446278,-0.0040870353736630815,0.2831221862848864
0.04357485468571502,0.3787198752778188,0.029631627521319565,0.09046060453293482,0.010220212671871119,-0.004887447739586308,-0.03608429463442131,0.2517135225063318
0.04789841504557521,0.3810700664601139,0.05020842573597658,0.09292983755285761,0.015428016705002908,0.0075382511574990235,-0.024565207601976214,0.28151169135634346
0.050677429171664554,0.34553277821670764,0.09003338738600888,0.1409342985181763,0.04571391624722762,0.05427308941151729,0.0460985701646627,0.2564643940010496
0.056336838701847435,0.3585467587025525,0.08532280841482469,0.14020129752145008,0.01495149603779274,0.06204362616604581,0.0305274969332693,0.3185381111938129
0.05507311288131025,0.39266919915336457,0.059494411187894294,0.11832845184463893,0.020260895015457542,0.033455612507209104,-0.002125497518386371,0.2938220122565353
0.04769213389683095,0.3895381225783218,0.053013444908100914,0.09154206181692001,-0.004387663656214991,-0.004387614587631139,-0.015662962700318413,0.31971285058838383
0.04551389742447165,0.418867702440303,0.06666088076971778,0.1256177026230797,0.014651432401490678,0.03345739885627907,0.00312952455648288,0.2906674032653887
0.07069657695919246,0.3632916268911525,0.08763869766074506,0.15630840760041342,0.028442564064269024,0.05859642950817191,0.042236238127023144,0.26731656418660804
0.0476123939477408,0.3813924201067218,0.09271955616700266,0.1642191920929519,0.02712802682447047,0.06116381884260816,0.01694086974184981,0.3103820174049499
0.046250831106014294,0.381697955352882,0.06666942709719657,0.12730922026338062,0.033281016440921664,0.02622838995001685,0.0037689589547844037,0.2997597661302324
0.05097899257929851,0.3690024393142726,0.051891411619771295,0.10276982985560595,0.0062046466644174415,0.008079519828511928,-0.006130637259007394,0.2926350817296895
0.06553793949906767,0.3722871886608196,0.09483611283896776,0.14735840409346748,0.0439171030257002,0.0739561074579976,0.03814006032096754,0.2308682713591961
0.06557774148255135,0.3696247639898708,0.0891490070720448,0.17372729249606333,0.022648294705413016,0.06539270774326088,0.04297535378594348,0.30455953901617633
0.054752875493221775,0.349108367764369,0.07967256974118815,0.1353992242236104,0.02767277272334537,0.05804115171053643,0.02572949516069501,0.2407758476668707
0.048684513944435064,0.38517645064720935,0.06308560633211342,0.1101127687011543,0.027596604205673843,0.017644842435622057,-0.003102869336186976,0.2505266007022889
0.04104739506465695,0.41593419741907167,0.05976905584120884,0.13308308456654266,0.009150484275124292,0.01736819694970878,0.012093599028950904,0.30190300656186986
0.06874303932772932,0.3960779331565502,0.08164150859747968,0.1708591492291193,0.043881077045913645,0.0772297149787743,0.04341606635242439,0.3227314972767061
0.05569470959905246,0.33730385949993075,0.10400009755566238,0.1593553255871434,0.033147657665392766,0.07273276981564697,0.03561499147409322,0.25523014926419374
0.04918077916048471,0.3517254446179785,0.0867157406415765,0.13670356689160523,0.026684644363771718,0.058009368863249,0.021880021151162842,0.25863158369999784
0.05260993376832675,0.40037997008417836,0.058004423509138286,0.11181016379853255,0.02362978294234553,0.02341126091521742,0.0061893104047605575,0.26943003415854366
0.03644316735169968,0.42358321639263846,0.05351200356698406,0.09902916634068847,-0.009433271606633356,0.015809643545165075,-0.018932246489283083,0.31594260790373213
0.056831455433295416,0.409404770866907,0.0783617406402811,0.17120771565478343,0.03271975473734101,0.06439993801293817,0.04762764132108602,0.2334044519179737
0.05108374336873219,0.30225065753772234,0.07482046626244829,0.16311963574918034,0.03620351252933679,0.06824493133882363,0.045717806395284555,0.23238532528267428
0.053600829967437744,0.34084611140721416,0.07952362127901905,0.1302450757127336,0.02033412596077544,0.05645034329752697,0.02234754761659817,0.1977142893546197
0.03580525337018587,0.38823113349396327,0.043818366695476736,0.10988235813435163,0.01939577640953957,0.024984504147147268,-0.0032433403245244264,0.276150430752019
0.03155860922638479,0.4441817298907457,0.04449629043737284,0.06998077024236295,0.0011730805161106086,-0.009803382817159,-0.018291923943855898,0.23864586353810563
0.05306236364784421,0.4274262670174117,0.06110793804200916,0.1329750318502298,0.030474920882641015,0.05663122896798272,0.025682170383488048,0.23267815012695275
0.032937126389675865,0.39045485603893526,0.062368275560309126,0.1262800476891293,0.024804820185802958,0.04900741090479529,0.024657975528220504,0.15361491605928068
0.04016225539399975,0.33078578081440213,0.03900211011807507,0.1131421035498799,0.009755833228029604,0.03589862932265899,0.008116668867417754,0.19355346425388315
0.025134851959687808,0.3623616248536211,0.03846440523024673,0.07595240570692312,-0.00635439744335185,0.0010520917449775681,-0.014727338545148143,0.17402987877983428
0.03490722939353223,0.4170164474789931,0.04089411257174689,0.09204268625279868,-0.002312393696958407,0.0011978269580397844,-0.008637173056552882,0.15084862769864535
0.04297038576416346,0.4330816681158168,0.04259154168416275,0.11702306653041077,8.917177439195675E-5,0.04461381899917652,0.008915699255485283,0.1536583607783078
0.03462465664865033,0.4294980954735364,0.04959522526996053,0.10884099620057665,0.0022356138178005742,0.027347034486059914,0.007103444472183567,0.09312496468383501
0.01495455809219708,0.40867822134715187,0.020015420342395746,0.08492732881277495,-0.022289120732554676,-0.009477642330441322,-0.027139014751555328,0.023258803753364924
0.003486436711790158,0.48777648266878754,-0.006357677171978713,0.05912774754054593,-0.03184291429472625,-0.016690344638600987,-0.06984429854097421,0.09607699436986386
0.04120814052414335,0.5511059810461858,0.04105001143543712,0.11708318094258734,0.010974097013120618,0.039152569721381786,0.004915915428496728,0.18398689428838158
0.054892103418797876,0.5430826453876246,0.05101844279267638,0.11646790726135606,0.010931531648394688,0.048558074391961005,0.0195031972870098,0.09755214075062335
0.04206942403888339,0.5061980151904409,0.043750106420272515,0.10506697422646405,0.007416847683510022,0.04874364640869195,0.020632604521276503,0.14486896422328574
0.044984780833146464,0.4747256929789983,0.03289845010700114,0.09722123999168072,-0.005097649052358428,0.005103739936686391,-0.0034571388440411527,0.11794658999594868
0.027591455574613576,0.518161788180529,0.0024489851972188665,0.03816242806538677,-0.012469905147082898,-0.036808413147224994,-0.031140918563573195,0.16137167593582083
0.051749850998411395,0.5445052105895634,0.04101737117722314,0.11688750630540555,0.0025876248320251694,0.05144373086796786,0.010707805577578729,0.20653147707192746
0.052917664591452813,0.5371017319631213,0.051699891238001026,0.12482995174294767,0.030116976137150604,0.05920468978085631,0.016534491766602624,0.10192110547371563
0.05686423799622658,0.5100751867813176,0.040118794312609424,0.1130172653603999,0.03013722402960955,0.039355655162975525,-7.191354694217277E-4,0.1288246944472529
0.02898247053989067,0.48765192241907557,0.02859968130203765,0.09385768309103819,-0.0076525340728564074,0.007974174690637964,-0.023575570958690454,0.11517756262117786
0.03687134036051286,0.5327134556831573,0.02921460144006043,0.08571283203948682,-0.002300090244316422,0.029295677662977335,0.018656778152127663,0.1716318005325614
0.045610684779223774,0.5747370941106387,0.0698594950337369,0.11446973547311219,0.031869566256788405,0.06830085350545143,0.033259299610810304,0.1725592956115874
0.048043604401598466,0.5690057343547056,0.05537286472825974,0.14130378189329248,5.0334461449854134E-5,0.03953003799692332,0.03776311653425424,0.13880060893544288
0.0535054968155904,0.5297336500224167,0.03439118621500942,0.0951182809056652,0.002223271062275256,0.025253041853484363,-0.007991583770008363,0.07101019947646552
0.03670108235394959,0.5415436775460045,0.018809685118952067,0.09211508082671238,-0.013179653725400755,-0.006009062544302,-0.027522017119335617,0.08923076564578089
0.05591085572382906,0.5572847612044071,0.06359307042540044,0.1339878688657499,0.023143435971003837,0.06790910557366145,0.043710401001836874,0.13905264930064143
0.07013734414696524,0.5851916431517233,0.059807513735083175,0.1338783257860256,0.029052647567247746,0.07568937775352075,0.05472338612483253,0.09874182072197193
0.05663955114685861,0.5420708405032336,0.04397217206460654,0.12018347982914136,0.03690220953286777,0.057894992740254926,0.03387950650989985,0.0688226287321715
0.048007885320878206,0.49188123847473775,0.03372518309735122,0.09909676491100405,-0.001097093394794077,0.03636310245070409,0.013556590679102034,0.08372212645943188
0.02738621612310218,0.5356996140380598,0.011922439815071684,0.07599660120943263,-0.012505412671193252,-0.001930425395469989,-0.012994072295582587,0.09037703005148759
0.045913875677205805,0.5372685112233738,0.04621804134599508,0.11134714084316083,-0.0014318173795929065,0.04824904062944739,0.020980487653889886,0.1478657005842766
0.06515927804543678,0.557443568300513,0.07897206107638224,0.13573246012697696,0.023086014007621686,0.07768912153626034,0.037281882873934406,0.14045893809973825
0.04305351264179629,0.5557588174034584,0.07777236249654058,0.13421374236605482,0.028289393746810162,0.060008062669130745,0.03116156784728896,0.1597261430667398
0.03623295190096884,0.5423381248033264,0.05155715614025501,0.12094219847382454,0.006100111215729041,0.041883423606611125,0.009291995957358246,0.11872603725988481
0.036090591486421256,0.5278185186353557,0.019967441494872208,0.07568381901335011,-6.379401069561122E-4,0.017104230068943058,-0.018567151180475253,0.14498743290912117
0.04553783595057966,0.5102217817275071,0.0219607976384975,0.060998726752104764,-0.02542112946001698,0.005746783968584088,-0.00623622580933425,0.15279613989669164
0.04109583603940714,0.5293663537300887,0.055327824168037866,0.11609483412432195,0.001661234291743469,0.061825235190874205,0.024491885435613047,0.15134543754037347
0.051010210140995695,0.5464858288477304,0.04345944379515368,0.11653409539784446,-0.009695627805746234,0.047897522144849276,0.03532975710168032,0.1706786235437835
0.0402714673344373,0.49113438561116346,0.04158264143607464,0.10849458013054657,-0.006146717182192317,0.026269597785748555,0.009713543854538797,0.1283945138271493
0.030850130635320345,0.48725762770311426,0.003789090001537262,0.0746811152355299,-0.0043061028682079,9.297724889145838E-4,-0.02499822968277711,0.13620400017428266
0.03437851828876239,0.5054201090552007,0.017371566594318138,0.05413591973824604,-0.030271390958117227,-0.01607031119037573,-0.02091958223497944,0.1515692293548234
0.04950787589340083,0.5179511926882769,0.04836123820427046,0.10953482254502876,0.014273198806242558,0.04449204936504672,0.028907640054799334,0.11227993134741497
0.036914033700378455,0.5165847680748251,0.04656376898860145,0.11413928181665957,0.02118398403403172,0.0507798408665208,0.020933924183529854,0.13426203057423527
0.04093880231872092,0.4750077223221543,0.04204618668821125,0.10066934792820967,-0.004504913692827399,0.039729921866021006,0.010603707886160543,0.18296272059464191
0.041566443276442,0.452784074313166,3.539463821211652E-4,0.05288839993579964,-0.009102991049563159,-0.006977880791557415,-0.01147314309496867,0.16519022824986745
0.025937316349515203,0.4497607177006068,-4.729837873446719E-4,0.028886886756413765,-0.027530042045181027,-0.026984753714008904,-0.05514629366116104,0.14076141310739831
0.04157017722838079,0.49602078894636237,0.028732925909226936,0.06566545016544255,-0.01080224051453398,0.013215747591634889,-0.007420691946736155,0.21855518347586414
0.03376401218211803,0.4743059860439233,0.04577911549483283,0.1128477970946969,-0.0016036431690234691,0.05044781013411589,0.036004078113787794,0.2121042980919928
0.039292503156578104,0.5311594462716985,0.0313036386284489,0.11945753346860201,0.00267266729717664,0.05500036952802984,0.02226153484213527,0.19606870154053643
0.03838600656673837,0.49523004038455304,0.015382835425020622,0.08724509263085084,-0.003742899726119883,0.02708845161482802,-0.0017343976371410358,0.2035705541753875
0.02303060462699063,0.5338673446988395,-0.017600019430648876,0.04745902241422889,-0.02351551846224232,-7.749760878893445E-4,-0.028521964172985175,0.19426501423141299
0.015607099982597102,0.5131773465212693,-0.046637073130035823,-0.00823477412666007,-0.047075328787041786,-0.03913426982894783,-0.07196348114445997,0.07999511808817174
0.025400213457404286,0.5311311316476843,0.003588264214086245,0.07632221670969876,-0.006333443363197211,0.015127266472587528,0.0012304266519150774,0.15828145262407767
0.025271356628777743,0.5181543427842933,0.0037626824081198437,0.08566863935217872,0.004750996648765878,0.029735440010756543,-0.004390301583271453,0.1998878921993261
0.0195207587866909,0.5096168597599567,0.002916374627638403,0.08011459077569823,0.009801365401277996,0.01927829356976056,2.520370454978596E-4,0.21765815589621754
0.021436308788519473,0.439760861793113,3.3616933882068795E-5,0.04584552540591744,-0.006728743001796566,-0.01274024778762124,-0.034359464497648165,0.18853785261348047
0.0025473625220454577,0.3654246029640358,-0.031190303334554446,0.003032546997705993,-0.043038093063775436,-0.05052480310693851,-0.06487057124772629,0.19191274135028924
0.019415107717602877,0.42607363863908243,-0.011922375106713737,0.010441838808638169,-0.02857555408767312,-0.008394012417392986,-0.021566437267812058,0.248274734245104
0.04007762419012238,0.3727366075208737,0.008841151178394336,0.06662024778090847,-0.015988108921223133,0.015044443641958371,-0.009425039464769379,0.2788031707236048
0.016212066218833695,0.3416821834167027,-8.95073967954327E-4,0.05842051449362645,0.007990534290605977,0.0025882567750027167,-0.010410938380837955,0.23423586143612854
-0.00671144739355353,0.3774607123181441,-0.02138268370738923,-0.002547642404392504,-0.029365277916057086,-0.029445063945548907,-0.04993112085004459,0.2199419542541145
-0.005059269673680452,0.40281590790557625,-0.04921327029263937,-0.050115315656734674,-0.05900637240457835,-0.0873189396437125,-0.1130518434406997,0.2260620543278882
-0.0024818517834937492,0.38235060982423186,-0.049334539699790604,-0.009318610062987806,-0.03691542532281042,-0.022068684477479634,-0.06350483263433362,0.24747446368336673
0.034914530539654265,0.39583743760619033,0.005290478365277419,0.05057422532973034,-0.008127891470886887,0.017500104517575134,-0.02376195555362037,0.25457699223944474
0.0036026206616644233,0.30864501886746304,-0.0032032241011797384,0.0465565711440873,-0.008169589846374323,0.004644747974779073,-0.01849243683555037,0.2021532745315994
-1.1865378391689656E-4,0.2601771768978273,-0.014757495374241909,0.032744729763761596,-0.0058471632788700606,-0.031160907569858613,-0.05290638193427135,0.18823693184865398
0.005302386909750036,0.3236168875823019,-0.058166757828985144,-0.02341996172700597,-0.04008823331215994,-0.05684012609838156,-0.08217928692134277,0.2562450420003916
-0.017275687969405318,0.3456744191567352,-0.0853727925676489,-0.06877207008540122,-0.044795740850081915,-0.09900097845695964,-0.1044770428780103,0.256391193192414
0.014989657796724959,0.39593930734521904,-0.014996762694348537,0.027670842251599565,-0.028494917070810647,-0.012620766471588916,-0.040172514861986315,0.22585257899876485
0.014061866002981902,0.40943140390870536,-0.02619427504960567,0.055739982357779855,6.077634029750707E-4,0.008170487159701121,-0.0464337322128271,0.26102066590715034
0.028475261646301254,0.38164940393010305,-0.014001489877728295,0.04080014985375832,-0.012829617493552443,-0.015180487223613186,-0.04980893049414089,0.19235814615342384
-7.653466560681442E-4,0.3738115266969897,-0.040773069418310236,-0.01123583084254185,-0.014832645405845205,-0.06324311882726533,-0.08549001335319904,0.2660766321050354
-0.016148421748402052,0.39380083848734326,-0.06606964398338869,-0.04055106860212722,-0.06961186884627212,-0.09078481644811132,-0.09870176208849123,0.19710753079317403
0.006371475232283398,0.3365592501325943,-0.06381246952409908,-0.020853551665322993,-0.04887631778482988,-0.07562262691984825,-0.1001261956291146,0.23142170031624218
0.005986351935367667,0.32810794753896866,-0.027305259312949293,0.031188786064116288,-0.019558830703993554,-0.023698213554573556,-0.0479371929924977,0.24050438657706288
0.007515221806697106,0.35793937098816436,-0.04205780736819696,0.025718168730270292,-0.03416411898848868,-0.02643118609456848,-0.047522276217845626,0.1984039081914523
0.010647950751469482,0.3780452518261046,-0.051674339901737705,0.0034801296157543223,-0.039433436905459966,-0.04963866658504232,-0.07087918102739776,0.18260418779772566
-0.01639488613533421,0.3133029577149239,-0.06611849229267748,-0.05690229912370515,-0.041802167908776125,-0.08662790837170407,-0.12709462726378776,0.26140989005715426
-0.0012669234849943185,0.3186135798311794,-0.054404739254653715,-0.015263855703542509,-0.02155009654669478,-0.05233769940814819,-0.09814269481709859,0.22455823372429085
-0.0022205173411296783,0.3206832230380557,-0.0153261926472287,0.035240413066544206,-0.004333182241608554,-0.014723432464158661,-0.05590292381317734,0.23669522578236968
-3.79814549766549E-4,0.3646761966687987,-0.01956889652501471,0.023534656156242475,-0.017106942055839926,-0.0422438658812118,-0.06032593086659054,0.15977897297143315
-0.003641490911543656,0.34171167010332937,-0.036087914884425254,0.003581558460693341,-0.04843520960763463,-0.053397134437475555,-0.090723212027906,0.2213984371779404
-0.01961550205523126,0.3127927286424387,-0.06571112033520744,-0.044497873558718745,-0.06997745261188507,-0.0834864451878857,-0.14218925856860085,0.15894892293490173
-0.01755673642276892,0.3398739844859908,-0.055264003509003935,-0.0011168204772284383,-0.053686129481044474,-0.06299198631844113,-0.08842091944422123,0.17575894627648245
0.011321212642956251,0.35127586183519427,-0.020739349662746907,0.04796873965699532,-0.01143759899496999,-0.00636114208315177,-0.039554782610207326,0.2234238867383689
0.005753138361076622,0.3869580203447454,-0.019791895452135916,0.04476639076109944,-0.0038430336469563843,-0.0042458000947265,-0.04405309570474125,0.24816827728462915
0.01766095653873147,0.3789208651441367,-0.0477235109929975,0.025171718126878122,-0.021422874137633028,-0.0398721522125302,-0.06536725001620856,0.21749966242837043
-0.009331556422175516,0.3855234880362559,-0.05452241499931196,-0.019774024299205804,-0.04320723693586836,-0.06610509770288694,-0.0927658961856844,0.1847418528421217
-0.016570058650823085,0.38108322124094024,-0.0944268890323549,-0.06927314205008986,-0.05020898573326366,-0.08798290217989486,-0.11411282279421898,0.2132241245951253
0.005354998296215995,0.40605198696451317,-0.011275993247709526,0.032711864396061906,-0.018092631756600367,-0.01929761804822166,-0.04472138459766733,0.19788589086038866
0.023111914490547895,0.3633166317272283,-0.015107647529660786,0.0592417024138082,-0.021797054724742398,-0.002487365417874228,-0.027780455173527768,0.2032378196598859
0.016897335302253933,0.3498322749339235,7.30222346678562E-4,0.04632060960252518,-0.02767168184431803,9.878966785531456E-4,-0.04479434331752155,0.1921302155479798
0.01271531017537142,0.2898538630712642,-0.017641329414752424,0.020721840808923135,-0.023446328295064097,-0.0356519963958703,-0.043554237514733744,0.16195187658886173
-0.017009072203388605,0.29909404838057474,-0.04762257419130327,-0.021679639242719137,-0.04551025920218924,-0.07745338123969872,-0.07450613658938254,0.17656269224867935
-0.009190801385023208,0.31433373849417906,-0.06369220408978667,-0.027248793611079247,-0.05720858222878828,-0.1003110082330885,-0.10432676669273085,0.12414630325030941
0.012781929283495586,0.32289565785220975,-0.013302413695309597,0.05321385318191934,-0.029189103221865888,-0.005269750103396621,-0.042628366559422,0.14201214747092536
0.018472117895016626,0.29013918142299266,0.011990335657641004,0.053995823398547776,-0.020509988386526422,0.009438801821603598,-0.035302920463053326,0.14113714773295746
0.021248685397539113,0.2889525547357655,-9.685914987638268E-4,0.04153504023752694,-0.018212268880023842,-0.028168171229927045,-0.03032858312326489,0.11619679469205385
-0.001306830531390542,0.26829430712359903,-0.044822478886696146,-0.004219742563601183,-0.027565264132385404,-0.05173820165861185,-0.07956309961169342,0.1653817170589223
-0.02689036791795885,0.3480340083961187,-0.050701591259906774,-0.030056288189923185,-0.05439880095267442,-0.08055366452989077,-0.10598005975352512,0.13637860287745787
0.008082363842273474,0.3322997860012955,-0.01195321691606223,0.03296462049834369,-0.017877357392416564,-0.015032573077421986,-0.030293243223212616,0.17521234081835654
0.012967515416794403,0.29970404506639375,0.0014549010611361489,0.04411297694119688,-0.039042215177426606,-0.007352582036912608,-0.024803595366317852,0.17280274271443738
0.017100995677656227,0.3267282495875878,-0.010678346611671304,0.054050412028096184,-0.04150991876257682,-0.02658710751911844,-0.0286841331889512,0.16296589982429463
0.006970434522512431,0.3561948530696391,-0.03322916467755772,-0.00399180020796777,-0.0405636276364587,-0.07165136723108399,-0.07916400060311922,0.16787715509651063
-0.016177576032982897,0.33916993237936954,-0.04958250316588183,-0.037630083202656664,-0.06814228845505407,-0.1086953181420458,-0.10564191879127739,0.1560829322737599
0.010867826064272581,0.3362309530684893,-0.0481532466710563,0.014372853701413491,-0.059109673634678964,-0.0559639919974447,-0.06308692376622181,0.1434563992176616
0.021198487778105804,0.3763241245682259,-0.016947613032228998,0.0721570260689707,-0.007118570224055878,0.006924590938116631,-0.02310484771382048,0.15081359054781598
0.02151739723445743,0.3612626440274374,0.0024085404325921533,0.07639468537359975,-0.01594088400595773,-0.017616731094837017,-0.014407276631373265,0.20886476310668053
0.023148148924908157,0.3500899820371522,-0.02156062220331304,0.044520660683543274,-0.04974673312614478,-0.04258449721972974,-0.05606540097855873,0.20741254166042156
-3.521381339663482E-5,0.29249208655531883,-0.036084223342149446,0.003338796916675866,-0.05345755920181097,-0.05860967399332561,-0.08131111181228579,0.14138218882602335
-0.00653891821840618,0.2886692965299853,-0.07427685264781358,-0.04664914930795386,-0.08271003036248842,-0.10892261363284698,-0.11521683002347465,0.13821504592751377
-0.0010202356579310206,0.27358921846054307,-0.05306436353008006,0.00810334981129068,-0.047785454233779716,-0.05840748013863371,-0.08076575257372698,0.13736976318633623
0.010166434553835667,0.2951946402607163,0.009029906123605071,0.06204291968710554,-0.026609510132261323,-0.014702750865521055,-0.028508342991745067,0.14081178841547584
0.022386499860519958,0.345345437259603,-0.004952863308425013,0.06208870787240618,-0.006124746247068144,-0.01930764443054519,-0.05174568027292096,0.15983681623210588
0.022258318669933604,0.3133684122806303,-0.025677634036459722,0.007687395761248011,-0.033500131310756895,-0.050215135814411435,-0.08673466120475028,0.15751357517615552
0.005384045329312902,0.3248715313264875,-0.02278044299419923,-0.009497556306467494,-0.0748281816486923,-0.09732364331717647,-0.10914864621491975,0.14071449841286648
-0.0332958815525699,0.30024223324838967,-0.07786113646852372,-0.07376448418420749,-0.10054383133893323,-0.1243225887978133,-0.14892642835548986,0.14018935192488488
-0.002699520835073004,0.2943452191039628,-0.05247570145101766,0.014093874350887292,-0.052681679271506444,-0.06153065209143272,-0.0818660000503213,0.08961691650121516
0.01644903971315553,0.36321640709120473,-0.0013864743545932525,0.02785845575095647,-0.03531714679073811,-0.03692563654867738,-0.08668773125373676,0.1186874574367253
0.011918890061741176,0.2902386533977817,-0.018099143033814945,0.03451388043201011,-0.048196309095278764,-0.07706102795780503,-0.08764312761067845,0.09439016360791067
-0.009585382186731887,0.2912175163953796,-0.03529734104867865,-0.01177091130997505,-0.05154134423427152,-0.1127711390968405,-0.11895590573525167,0.13748609949528626
-0.017434110806253796,0.3311020043772799,-0.06295812248193615,-0.05785932563137353,-0.0808527357870815,-0.14891346863367835,-0.16528030859558912,0.13201112495450673
-0.01073026166029737,0.3107761921285811,-0.04517155729745956,0.006352448346690665,-0.062357693860287375,-0.1017536027210654,-0.12081628090620397,0.12048423341048962
0.02758987592243845,0.3668914002503533,-0.005223275741883303,0.04022291000996176,-0.04801036338933432,-0.05706387970582297,-0.10551390349834118,0.10099668556683014
0.007501417103056961,0.3612015115423845,-6.692394041855449E-4,0.04120475267071398,-0.03453750628535991,-0.06542821882422185,-0.09907762338958573,0.18770967181089612
0.01013149547428569,0.30463566528820746,-0.03704150445240888,7.398355117738136E-5,-0.04329333026634113,-0.11653805782597026,-0.1311500920902997,0.1860911835220618
-0.0026957956018219074,0.25893766384296685,-0.05717631253716723,-0.04048673176287402,-0.08092509850434458,-0.12594415073519277,-0.1691078096920013,0.192011255037709
-0.02571043403814194,0.26559883005613405,-0.0875181844314835,-0.08237398156388359,-0.0901534929088873,-0.15783541659483646,-0.19876443182953354,0.13012895497360244
0.01092148505758792,0.28633887114036677,-0.02165254948526246,0.03071563279991419,-0.0375363732029524,-0.0713929316733557,-0.11033559516742268,0.12703285387030122
0.03423956933188387,0.2817874016333713,-0.008758373459980987,0.05738121807506815,-0.02828066987924749,-0.06820327608481488,-0.08702524024385067,0.16636346197164667
0.012183172864545084,0.32357883024612183,-0.01643581209668402,0.04025238212941578,-0.03424233090897725,-0.06499996764729961,-0.09544817898808779,0.1584509595576951
0.0048167629340019995,0.22881579065015994,-0.022736073352506242,0.009279194430425727,-0.07860389719433118,-0.11151480673280909,-0.12701812846857993,0.10395784262975902
-0.006303862140920648,0.30522801966607394,-0.06555880349493602,-0.03184667230609985,-0.0837050373218812,-0.13784916928704657,-0.1711840221714414,0.09278605346715299
-0.012565938769241166,0.3224568709080555,-0.08645568574277168,-0.06525134206579959,-0.08311141659183963,-0.14766368839244087,-0.1921106298746319,0.1367522744681932
0.0288292601331886,0.36270569380019047,-0.007587955520246435,0.04276331020015762,-0.025910068337344713,-0.05804249209403875,-0.09577442204100048,0.11772443528771354
0.028707459108848334,0.3211380520890938,-0.014919799854246291,0.04636772267287096,-0.04001927490832247,-0.06582171690671822,-0.10244502423521709,0.11353347744794737
0.01699061789640705,0.3162763373485612,0.004327984576683788,0.035508842698286254,-0.039912706517670135,-0.08650106333157824,-0.11392548939061503,0.10961949859408907
0.015088979313048196,0.3516283321664191,-0.04152161404652915,-0.007574520051974695,-0.05333431173861848,-0.12258495901827071,-0.1519664299178695,0.13305971284509838
3.2787606735193584E-5,0.3715946751887723,-0.07626324383159767,-0.047535693710211546,-0.0701886719006161,-0.14518739658141486,-0.18137753076765978,0.13338739815284972
-0.001777004805267435,0.33818869377354527,-0.05729253659877463,-0.023068677209019006,-0.07563719749846141,-0.11573647630857768,-0.17980453961299006,0.10941009400010848
0.018183674084700275,0.4014757323284461,-0.009498979944507671,0.047307803749794694,-0.041994704075087104,-0.08633148916143522,-0.10709112666394732,0.13040337038315827
0.019233026592196188,0.3362383951351289,-0.007848901500074168,0.0302611428277726,-0.03711198095991767,-0.08067970346058514,-0.1246744807674715,0.13064340819369186
0.022840479583571403,0.3424262913579691,-0.03428678248926325,0.021284732433396677,-0.03684740184778764,-0.11242665356796619,-0.1652559670416512,0.1540529107894333
0.007556233484426132,0.407336201802537,-0.07258981330691074,-0.026795389984992795,-0.06320004611112734,-0.14479923043259066,-0.18337765034556056,0.14805504995323812
-0.0137823011028328,0.30890625538392835,-0.07858674090438947,-0.0798872591476597,-0.08586239906058132,-0.16484704249815013,-0.2128721279931797,0.174316954965366
0.006993150172361723,0.32604156207569396,-0.0298957121078145,0.012210447932339361,-0.06584847800500822,-0.09704858659637394,-0.13136109767779627,0.158476173030456
0.030496981765696624,0.29169205005935916,-0.02080320793420924,0.03610778174412054,-0.027056050313498274,-0.09278644680635209,-0.13808847411604297,0.10590476122154084
0.02765258230172214,0.32934457248331245,-0.025716247329181686,0.02090898712756446,-0.025066309130368593,-0.08305358805771502,-0.13214909617110238,0.14121348030012906
0.010394773525893016,0.31804586725530026,-0.0459058914297941,-0.013567501207619013,-0.07160691564119898,-0.14051138831136126,-0.17494730115934648,0.12213312171053126
-0.01033128343152281,0.32530545280966683,-0.07188455085729456,-0.06798673923250179,-0.07572675828152425,-0.14359662514794297,-0.19729307864217896,0.11442607658046432
0.001424679715120653,0.282529232509386,-0.0673742957409204,-0.06114665759001345,-0.058513872648357335,-0.14019296718000973,-0.18381463954027952,0.10603787663950968
0.027269408894814995,0.36005724920256804,-0.016572492382374144,0.04053006009055919,-0.03724282661859266,-0.061229198156064264,-0.09415096308118308,0.11166200805329754
0.024159731864452298,0.396860147283047,-0.019017524960049506,0.03255597691878701,-0.04062810171842026,-0.054294343035661795,-0.10165780153965369,0.13775587400742062
0.019372519931914186,0.3975288169902946,-0.019186683424504854,0.011727765492956269,-0.04331289042772083,-0.07831300061469602,-0.1234245088734798,0.1277673886188747
0.005041171716857314,0.37894950478967343,-0.06156746890560176,-0.024861165952092344,-0.05709969873702843,-0.11755215746163852,-0.1511022330109976,0.1800348810977984
0.0034698973817862415,0.36055940775284595,-0.05585418050255596,-0.06326353994464849,-0.08168601548490807,-0.1627330345151871,-0.1846534412203199,0.13397865098052372
-4.471172728731311E-4,0.385523106523504,-0.06158579798409886,-0.05258659549803581,-0.065471188769669,-0.13910367087006248,-0.15556641689252698,0.13271592495759643
0.025412411972971963,0.36063525542445535,-0.02299275179618403,0.026369736364568887,-0.014435144493078877,-0.04073713220167342,-0.09303753818117223,0.1284532439447477
0.03130683539564474,0.3818531880676784,-0.028205799185227618,0.03820549661547228,-0.015227701220988543,-0.04224665783178754,-0.10334538830556311,0.12831032353193358
0.024156434278424198,0.40508162590650276,-0.03836016830432702,0.0047763265189783785,-0.03117221514431889,-0.07826421844277524,-0.121747605307063,0.16358199996399725
0.010397812449308552,0.368299491594249,-0.05403197759166844,-0.0193829523381231,-0.05652190640569205,-0.11074471302791278,-0.1450662745544131,0.17481794308722698
-0.006286643195084431,0.37845832492075127,-0.09065030289943152,-0.07074235233328534,-0.07494309407401521,-0.13520892556650918,-0.17395356706610385,0.1549650490173244
0.004803063841447233,0.36531023133269624,-0.08290831855294152,-0.06120792004646069,-0.07686109478389404,-0.12546278172569555,-0.1477349153503632,0.17331336270246975
0.0267961161911192,0.3681931529406278,-0.026531268056269052,0.01767424305411669,-0.015623690837445902,-0.05324236600566957,-0.08417717950203137,0.1809576956395679
0.026632828307406282,0.3337162483349692,-0.01824095338468872,0.019382389853598345,-0.004359010412988416,-0.06299388425865751,-0.08131580424619766,0.15728827089606903
0.03585218764861572,0.35591881146102544,-0.04252470848617089,-0.015652815619161042,-0.05201188622753686,-0.08678758581271914,-0.11254869790075667,0.1519265738038208
0.0038899325614735,0.33785879700266025,-0.056334656235503995,-0.051458709865603,-0.05356567685573902,-0.1087531778883761,-0.13373740938656906,0.17078332699837218
0.009150690407346358,0.35016196270354466,-0.09754115312243916,-0.09170825433746774,-0.09012991354993659,-0.13269070579572662,-0.16367630382377324,0.13898739975351304
0.03225505017901275,0.378001700332115,-0.021181538880705647,0.008359616663025428,-0.027002347357909393,-0.06786890886621237,-0.09111278600228631,0.15784227325170652
0.02614178761407561,0.41245602256654695,-0.022963163756983644,0.007862400219931578,-0.043963321827715986,-0.060939264427045524,-0.09522038067585535,0.17119240832595392
0.01925472507345552,0.41612073044312564,-0.04381064468370252,0.002361029226115828,-0.018530024679964827,-0.07276082975452436,-0.07800258911722846,0.13152608440753785
0.009163599890947395,0.4178759653388622,-0.06357315128767065,-0.027355349546497293,-0.057467483503654104,-0.11527585157372255,-0.14578912817519554,0.15600766945060152
0.007449086565067408,0.41234481606303214,-0.08406722452247586,-0.08441116265989129,-0.07690491348901783,-0.1326402998105853,-0.1680297495227036,0.08462701935662814
0.004375376946583901,0.39146895382210284,-0.08467382625631893,-0.06261082464423616,-0.07160274984200633,-0.1017240686601863,-0.13629088103044512,0.11217196538335673
0.032425896669073494,0.4721038485719581,-0.03116968660913387,0.023480936955527176,-0.018267123813900207,-0.06338294828929592,-0.06536077551206633,0.13724004098418005
0.028346077120644127,0.5062671084488174,-0.023333399664654066,0.019500712357151118,-0.024190250068541655,-0.0418211266023111,-0.07507520345836709,0.13098687912824458
0.03515398327743287,0.4580302093506319,-0.053504882991755175,-0.01222662723849052,-0.0314324651416304,-0.06478202635323596,-0.10601276843808759,0.09771798906331206
0.02598230267000262,0.44303722311647076,-0.06565258830484828,-0.04693331332552401,-0.052320895428051455,-0.10433904167129149,-0.12682498991767885,0.10620807155914318
0.0075933724548192605,0.455708401906239,-0.08224425065979883,-0.08432725174472123,-0.06551451153152388,-0.09613591144436397,-0.15751330270543437,0.13933842807311209
0.03346041551102538,0.4132746742242086,-0.014122537981402847,0.04281505285311186,-0.017492649241249183,-0.03875256273181945,-0.06899375965350757,0.1264351688556263
0.034944360897596324,0.37769197133618926,5.503864821644394E-4,0.03839742688029059,-0.012193279466598502,-0.013333106238576798,-0.04971926685698422,0.16081121162438688
0.03141789453003979,0.4062557102901042,-0.010907732916416365,0.032289934489638975,-0.015791372823282867,-0.055057125156470814,-0.06589032316295639,0.2041624461390961
0.024844456347834134,0.4268823964924236,-0.027253251987460068,-0.019416072940616147,-0.041168934241382064,-0.064899029560761,-0.10449634125098786,0.1425119007673588
0.009481895380119072,0.44965008662400713,-0.04785650079089762,-0.04939244339418891,-0.06084090878393672,-0.09420066486149964,-0.1256972351836838,0.1871990202711536
0.03606897184961456,0.3757234437882311,-0.04303798240068227,-0.005137280499728697,-0.024578589371989944,-0.06753161378486723,-0.09212223631679271,0.171008444647669
0.044950260262376925,0.37115230131345833,-0.004360636202602664,0.03835827291421534,-0.002506208531948136,-0.022244188963084197,-0.060841213680198944,0.1500235972917819
0.05074594722937951,0.41651598552982444,-0.001298101437436955,0.03790700080743616,-0.009333561995403283,-0.028254672953717648,-0.051038239490465806,0.19421474769801506
0.03441931165721775,0.4307058789886604,-0.018404896670379603,0.018803920870945876,-0.011781643779559179,-0.030218063002278077,-0.0612290154146823,0.1320240230408936
0.03252726553059385,0.4064816818029876,-0.04427440097501311,-0.01647076053725897,-0.03215633998682738,-0.06572873919892157,-0.08759461773788173,0.15697889598775838
0.03042365834648962,0.3928305217318163,-0.01849695741827847,0.01754907926372515,-0.01638248254134958,-0.03245091560187676,-0.058913571047624416,0.1865696325328858
0.06490377219516273,0.4772484962096295,0.01961496650874854,0.08977152866964358,0.03013977536074817,0.0204335865288837,-0.022407928826900923,0.16891707289647273
0.06960672716138727,0.45961182263705297,0.028393460520479537,0.07816619298485009,0.012716455228874097,0.012204528324462111,-0.02467481471867604,0.14831349422232531
0.044975101023960656,0.493319075297414,0.006218729518869396,0.06846936796280322,0.004496738684198943,-0.015250327527811768,-0.04697965522424652,0.22777846845875666
0.034869848544986065,0.4610413891299315,-0.009089865975770259,0.02232010941973558,-0.018721115938705367,-0.04041224141479412,-0.07507567902667706,0.2126540621407729
0.0197217836703417,0.4207438676432911,-0.040829299183226586,-0.024688723936917772,-0.03234132680396405,-0.07916462150700841,-0.08152484275517394,0.1337553066697498
0.05469944849040321,0.4156145003063353,0.020443288077733945,0.08160060327143376,0.009388189869337184,0.005706617477484557,-0.02765771499731161,0.2268507613841951
0.06257388316701522,0.406843079845638,0.0469973371081603,0.10599972776106424,0.021421560001560286,0.011765908665394923,0.011646949999619858,0.1873370445202064
0.06681543814177895,0.4474904976788016,0.027739450252034607,0.07920686647271483,0.03752421728901476,0.04238021429008525,0.007044408931755438,0.2102847450354344
0.038613547546068584,0.42480781197563255,0.005025092375029219,0.052485871157790305,0.006706014844902236,-0.02435052937996833,-0.03400759575411169,0.17175416188115025
0.02843631278580371,0.3939065543889782,5.966500604682278E-5,0.017632331877455196,0.007926452566521027,-0.05056587081999446,-0.07125047570475594,0.17922583437137968
0.024684556794716067,0.3666641475673583,-0.048700861089186614,-0.03011940372251299,-0.04496187173759239,-0.0912037507683723,-0.09583500794074197,0.14329532183897414
0.03734974822626364,0.3913114187137482,-0.007882109434251602,0.04131768787666519,-0.0011253307389906323,0.002054758696298122,-0.05943654870220213,0.10232510937541428
0.05359967851918769,0.42737173824891483,0.02439711058902615,0.08310766028913766,0.008356109458222558,-0.0010431063479599094,-0.02742818535718851,0.132636666623118
0.055040303122213134,0.47262598252738214,0.03137912704508939,0.08963403739562903,0.0017817368527921148,-0.0028495692550566188,-0.023980455154628016,0.19600064589565347
0.04553620099012516,0.40870762825157997,-0.0028701906775270396,0.050206513955361194,-0.013446706070887613,-0.029720242800954463,-0.06471154245872106,0.19479880336918437
0.02938534626566797,0.4192502784402007,-0.023381171073003068,-0.002227116437854675,-0.020487241671436108,-0.06610980622042549,-0.09613950175610847,0.17472309316084672
0.017105362122786884,0.3683063108797407,-0.07360075398058935,-0.05327892280442364,-0.05742300277081124,-0.10131728243007977,-0.12168662602972918,0.18059875726829885
0.014261806822969653,0.4159535162394748,-0.03836165893203701,-0.0220671512282435,-0.03231611589004244,-0.07932013938509978,-0.11018296981817835,0.15246105257854528
0.03640410525227579,0.4387653042687549,-0.002112816366683606,0.0595720491182942,0.0021031626456833466,-0.0329137635364402,-0.055559206753939785,0.20298582432187404
0.04725560682173776,0.45051518496144016,-0.004107293762777447,0.037893539611231805,-0.008258823356449537,-0.04544800560269827,-0.07014612666721524,0.19863977684555795
0.034996612689724066,0.37839136375333055,-0.016402901582547036,0.012650131239666306,-0.03330238210126155,-0.06961419829132134,-0.0934195862553851,0.2061171717174406
0.02797401318471011,0.3814320482234243,-0.04251301779554881,-0.04782419903764586,-0.060954231583037914,-0.09298722144570343,-0.13667548469653937,0.11764960433066711
-0.0029789776426921515,0.41738094444469215,-0.07434942633236155,-0.09604917934395231,-0.09884477546960359,-0.15126188310323382,-0.15606554538897255,0.10350806535593754
0.012264061382109757,0.46651406971860615,-0.04149315113279619,-0.022752578178709005,-0.056997582170336,-0.08953904979433316,-0.10427430880286971,0.22027869865048172
0.026413450417689114,0.40056619001154786,-0.003901279565562496,0.019267814414186672,-0.023266084104291873,-0.05273902186945167,-0.07722561131630687,0.1561749208302265
0.03200379317438968,0.4090861075850367,-0.025620879556429253,0.011983843785541603,-0.031458182668998115,-0.07388401168864725,-0.08659720235387419,0.11918898511534927
0.022263376011783655,0.4082833543857018,-0.029176447382975475,-0.028776747825472224,-0.04399852409979991,-0.10809056101170067,-0.11543570329458495,0.15084855215100307
0.01786170820562694,0.3843424395740641,-0.06834159523561271,-0.08376264796648228,-0.07076671527690001,-0.1530766019746163,-0.16112720910835804,0.1380536008804125
-0.0037475361634519808,0.4475858412861079,-0.0945661292563848,-0.110608762347275,-0.08204457924237775,-0.16668345835790438,-0.18654123357128374,0.13561143579163834
0.03508155581077352,0.4274711054513197,-0.03731181833423462,0.006427165302051427,-0.04341955852753056,-0.059490457083990714,-0.08143882620100419,0.09628986533363905
0.037796317271133965,0.3762340547083027,0.0023841504877445178,0.013708430064022592,-0.012836443786493694,-0.052886706949291803,-0.08309829397117605,0.12042655503699337
0.03460829908624618,0.39968979754738876,-0.006077443220800171,0.0067144322012509675,-0.04235292001949203,-0.07286452090818703,-0.09404266194213483,0.18093288430726942
0.02586132634833631,0.4362863228085323,-0.05423617090692877,-0.032704279010660225,-0.03511205394247988,-0.11221529902105692,-0.10399058460030683,0.10704394160237106
0.005806857070690436,0.44567590509999194,-0.059824267901102235,-0.07700613309338765,-0.08385735038655245,-0.12855335493177616,-0.1476261882977798,0.1522330068179056
-9.494813411015543E-4,0.39342338225193507,-0.1104615926737208,-0.12155881285360294,-0.08507639233891916,-0.1480859530727605,-0.18271813759934763,0.12279576709197253
0.0238178452592424,0.3806928567944189,-0.011121341789741643,0.006916188995478004,-0.021127512106195283,-0.056736312253589154,-0.07207165071185727,0.16131867638080635
0.031500456346069086,0.4426143856593929,-0.02656748435714281,0.013138968801251734,-0.036255977920940693,-0.056065318972882215,-0.07279692651632667,0.1763418407753295
0.03499255951185689,0.47447117552510887,-0.017203968941528588,0.010495890309982318,-0.03009535857049448,-0.06474958032021477,-0.0959545280291285,0.16593131603817404
0.017101589201603994,0.43277109729902635,-0.06191574380533988,-0.0332763012468336,-0.0473206715544279,-0.0826876849419537,-0.12283293073154017,0.18345951924744006
-0.0027379137332474196,0.4355732123655016,-0.08319120532461248,-0.07649657813174372,-0.0723731695266553,-0.13233035759649525,-0.1670933672636799,0.17206222335391466
0.01209162612881373,0.41862627348446957,-0.06149971026549758,-0.04565444589715031,-0.06571099915778476,-0.09985261893502002,-0.11681684514266145,0.14308885887722236
0.03146048252200802,0.433212938940879,-0.017044026641428595,0.013224330618707238,-0.043049336655175206,-0.06643001708743324,-0.07876310586269382,0.14208525901090632
0.024667798624807415,0.4088369584132846,-0.02373636451106561,0.013919795992547406,-0.01605159694076397,-0.05767939068952671,-0.08288410989422688,0.12066074978748528
0.01751456168056528,0.36101404742286924,-0.03169952765796296,-0.02060054450307342,-0.046202000471031394,-0.08499456800751894,-0.09790055714207192,0.15196512969652634
0.0036727011673336214,0.3204128296182133,-0.0870445744633346,-0.081732199637892,-0.07008857062731864,-0.12603852514187708,-0.1289912790220281,0.13577269087906496
-0.00907960724174277,0.2921968874464556,-0.1006201053832628,-0.1299287968221838,-0.10078625631146451,-0.1469388492707619,-0.14658240523219448,0.09795008187804892
0.018714361276563746,0.31745003286642337,-0.04315702165915159,-0.00961822286144318,-0.05646275104856538,-0.05961141552167541,-0.06351738628877922,0.11378866430502348
0.031183788314394664,0.3747081217963157,-0.023919241481516494,0.023617792734539535,-0.043434708159672125,-0.05495874690798017,-0.07237913250482846,0.12096943404083015
0.0292426451339532,0.37920097487235915,-0.026104966938510853,-0.007018500046348298,-0.029609207630744972,-0.044751233944669386,-0.07624867515496338,0.1799391654134653
0.018366832128615358,0.33789128484238995,-0.05858560628158238,-0.011944340986465516,-0.06330859769339597,-0.0830577092701689,-0.10506904314145564,0.12371821472146743
0.003857645403990819,0.30977802785576775,-0.059978471043923204,-0.07463643018250424,-0.0769507011897026,-0.11285558860163887,-0.13360244815383654,0.1116931005589517
-0.012974162603041649,0.33688302803274417,-0.10765878427951264,-0.11527416147974202,-0.08095292956264571,-0.14546260699510383,-0.1409749086086134,0.15878933173376508
0.02619535332634694,0.3922920708452204,-0.037782352845101334,-0.0075493141050443505,-0.024177367491530537,-0.03723261049137796,-0.059946886081635606,0.14904498919294357
0.03910701047378723,0.3683183090165583,-0.027618151233030026,0.019969091634906955,-0.018748783319445832,-0.029467530467031076,-0.05103243894483155,0.12920717266157172
0.0344457079211525,0.34671362747255874,-0.032485540727687695,0.005910279364499344,-0.02073395945275024,-0.051818892478059354,-0.05088746646339974,0.14041405036282267
-0.010643055339747026,0.29211662119408566,-0.048110138532974495,-0.040035466311077766,-0.04840844275562217,-0.06278357742660162,-0.10319641614129209,0.12773552100087152
0.009260618835729319,0.3527006886329162,-0.08003430562528882,-0.07206358614734902,-0.07882913591447502,-0.10257490297075923,-0.11730462868240467,0.1262156614304011
-0.013368397818877253,0.37730890905899034,-0.10852356242299974,-0.1390596375342029,-0.08393418763616418,-0.1396702390689209,-0.15078063490834417,0.17677691850200714
0.025223737894923066,0.3714513251654656,-0.047477842036112126,-0.015564548809587714,-0.04893347556474608,-0.04914079201111334,-0.061961902617790075,0.19635080382488224
0.03100441291531793,0.38046301583516057,-0.044730661973799775,-0.004883284679611234,-0.04531620911839534,-0.04193499165290204,-0.04125183956686914,0.13306229880295237
0.026618418543838656,0.3612306917450737,-0.05754632982264697,-0.013351472460625421,-0.02858192226944303,-0.04702483142089105,-0.05671481873734187,0.10379181969666483
0.007880705318166448,0.3378099241598849,-0.06607491575909565,-0.05850415329993061,-0.05748571701023087,-0.09270718314256592,-0.1110602866338357,0.14525435950081045
-0.011945768900834687,0.38783615588522685,-0.09239575215650699,-0.1100443063208385,-0.05554488359317104,-0.12112095416554099,-0.1262395083459187,0.13958477666315472
-0.003549432719361508,0.38181446367752864,-0.06987507424631556,-0.07120355370134837,-0.05437631277646536,-0.08516574734190559,-0.1049872839680414,0.16561974125285525
0.02693171157332477,0.3496495326308835,-0.03943559535290902,-0.013220183597745894,-0.047771299573258014,-0.05130178087630702,-0.07003886040247723,0.13767526539983282
0.0130367787139219,0.3858666419121825,-0.04600067076465652,-0.016234101945180063,-0.039147323414030474,-0.06780924504844676,-0.0756217619735761,0.12480961054658034
0.005489913081564755,0.3393272477728261,-0.058859389412754114,-0.04590093516041775,-0.04384018205669114,-0.08989291281806802,-0.11576972844522433,0.1968388806204208
-0.014028700601402946,0.3359714499285659,-0.0870864872476958,-0.09381276590789171,-0.06484036504171972,-0.11928447331684991,-0.1118269210872748,0.15094164526582962
-0.014262557657207093,0.3697659714231121,-0.11279142002290471,-0.10431953668611944,-0.07690991263096437,-0.1266763375096669,-0.12181086969810608,0.19988459368248584
0.01734992003336035,0.39043290365543054,-0.034014801789215905,0.008789753400713378,-0.033833176042775144,-0.04894029058123214,-0.06027454244515931,0.19848031212872666
0.013992003191578334,0.3410829070660139,-0.028128811226469444,0.017063384698057217,-0.026221788343397993,-0.04312362931840269,-0.07381487152943797,0.16600601435913118
0.02323911122182091,0.39346866760397237,-0.024262245599167273,-0.008710715201202602,-0.03404894506306532,-0.05602980613227508,-0.09060281109064836,0.17802898595746808
0.0017926932421777671,0.39388736325460055,-0.07220424272168877,-0.04903485342222082,-0.04025565729173645,-0.08777714518273909,-0.1113279189274091,0.22524369561951485
-0.00974937783109745,0.36387592896525167,-0.09004470909503987,-0.09523584955903736,-0.06886720537946969,-0.13698663241446352,-0.15512673674514696,0.18271891017702693
4.2147517061734185E-4,0.30919119485712476,-0.07200223702395407,-0.06171049976439066,-0.04319047053063619,-0.08309326611002744,-0.11398900411882774,0.22252585694208543
0.02043175827187696,0.3740139782249327,-0.02624045948302299,0.03177667166116192,-0.01449711000010478,-0.038120676775827395,-0.0697917097854115,0.14022980467474247
0.027385724012499578,0.37862681730410186,-0.025739898818043425,0.023004920977782166,-0.03718137060925833,-0.04019011821016247,-0.05898472816966834,0.19067827456962116
0.026679108221026964,0.40420009232348064,-0.04739155588718098,-0.004441976482342235,-0.0330172713446999,-0.07416280244559234,-0.08160451962857143,0.19262032266772755
0.014679048897913001,0.3933162982013028,-0.06830073785107726,-0.045554948789240005,-0.057279149565972826,-0.09360028066892294,-0.11346823223780697,0.23253194972457875
-0.007268081145437773,0.3553330082625094,-0.08952685359397473,-0.09719504357454206,-0.0856406548202881,-0.14141059867137418,-0.15184932940711307,0.18752170045945246
0.00773269924817582,0.31740449142185895,-0.03793791868675162,-0.03140969913403142,-0.06685407020014321,-0.0957966709081692,-0.1055221021905138,0.10063565286919501
0.02855027652521148,0.3780801395252412,-0.04098061933577279,0.016778800181148374,-0.05314429300794262,-0.051561841375248565,-0.08252614642688719,0.20029993517200717
0.021609484323710886,0.4159618067715317,-0.019916251750610736,0.021068901625874322,-0.015227794762335944,-0.060399594365756724,-0.09675919144387629,0.1940944380917743
0.011566125267795367,0.3572782447219033,-0.06232573242497104,-0.014863914576118667,-0.041072353610853866,-0.08536901864939063,-0.11166901285564773,0.23331232136503352
0.007431369105285757,0.4094233649564256,-0.0743262058902749,-0.06540058279571094,-0.05152343545698695,-0.1066818508496489,-0.12895382294461333,0.19556409584079235
-0.005450947156789774,0.34247689548807203,-0.10215467695827611,-0.11006637445601847,-0.07351025927991359,-0.1476171742818445,-0.16404767300556491,0.19485860333984006
0.012515485512828725,0.37554032318221753,-0.04066257034632069,-0.012745282665337362,-0.046262161215227166,-0.07683772171891545,-0.09371275210317358,0.1899583023714558
0.03168727878712431,0.39780081449641375,-0.02946098515320019,0.004385368549325209,-0.05973535186519393,-0.06626073614058542,-0.09268574079347915,0.21578027473213382
0.023731462958685987,0.3638261634324885,-0.0490106018153589,-0.004607799130356896,-0.03965824047941162,-0.08934015684000038,-0.11067201853785423,0.2852884137384492
3.1289719008444334E-5,0.2718369440041068,-0.06378052815329255,-0.051924266923991005,-0.07436611044412632,-0.11488031542724729,-0.1265095494264407,0.19883650855379167
-0.012087563993919373,0.2416008255106862,-0.10119280843815918,-0.10538860133526784,-0.09784933257780176,-0.1448591923601818,-0.17947595281720627,0.16969222242044826
0.016076194653146275,0.31063487158425546,-0.052613987938393184,-0.06378284746203451,-0.06490034026862139,-0.11420638537558371,-0.1269485054286146,0.2181482502272029
0.02557759486925089,0.31728268841086615,-0.0341998315121082,0.023845127360302323,-0.03957324997680984,-0.044391898762326285,-0.07322947478464546,0.21909263687847297
0.021994905530147074,0.2973071366014833,-0.020187137763492118,0.014710667969907538,-0.03628319107776764,-0.061637092023078266,-0.07101379505216687,0.23538023849264925
0.02649977294397158,0.3662859088950964,-0.04532753063256638,-0.002081777414445605,-0.07682969912262846,-0.08633558956644691,-0.09965517316095086,0.2291591941064976
0.003494039847865345,0.2739202294553724,-0.05859323902891417,-0.05573096724793022,-0.05255263579739294,-0.11698657078161274,-0.12960550660877537,0.19597010481355273
-0.024116714198580923,0.3140506874955559,-0.0914928796189111,-0.11422580761670409,-0.09663551791129979,-0.13794711979996552,-0.148626973338761,0.15772371291359052
0.021525313157035007,0.32823478643697424,-0.04139763327054279,-0.02010367799138867,-0.03907032362308609,-0.059953031331123285,-0.08164316823282554,0.20531880952822837
0.02790929764058076,0.3241213437558334,-0.021279809681673482,0.03663820073421071,-0.02627739064537136,-0.03590052302105078,-0.058137070564880024,0.2088884600259375
0.03836246666443695,0.33205151691909074,-0.006352596504338562,0.03552528433743687,-0.011845873919433626,-0.038411420123775374,-0.05252261869455971,0.1851709061310243
0.028583906392111294,0.3152583190805143,-0.030082282252301088,-0.0037732733502886117,-0.03575565796777263,-0.07401137803831166,-0.08346404410839119,0.20702461846333708
0.011648769737231168,0.3062884463977839,-0.06895479312620284,-0.04527982543574805,-0.05281406705760038,-0.11110678435382167,-0.11422862372299775,0.2395022062371746
-0.01382420467341684,0.353727985047607,-0.10187225904865252,-0.1089971221251223,-0.09000481465984085,-0.1499704484498945,-0.16170257123316337,0.2064122254996422
0.02305493372077137,0.4013719007778538,-0.07104343974214274,-0.009873095691054391,-0.04513480214248683,-0.07400542969001982,-0.09489977013494384,0.21057817128972298
0.034059669993757584,0.3912253792615941,-0.021083484305505797,0.028203531474325534,-0.026949819875456225,-0.03769305125591493,-0.07120045430702358,0.21760474845689848
0.0348167083883528,0.41577189710325624,-0.02866668894003375,0.019560838361287546,-0.018033977089612303,-0.046340336907804834,-0.06338837089836259,0.23622107271390436
0.022222224133673255,0.3815733302151416,-0.02730767240076251,-0.01319318904769424,-0.04108317051162546,-0.08910107340585202,-0.08997162628646173,0.2344176797470559
0.008863653172507993,0.3756111758308501,-0.0606480206363979,-0.06583022868443565,-0.06328713417318377,-0.1220385765674691,-0.12439483497899932,0.24076653670489032
-0.004736370677214243,0.3361979353154772,-0.09476291512274544,-0.11222740129443874,-0.10679886791616461,-0.1534339581351271,-0.15093470292948083,0.2341372126048179
0.02691908804630904,0.3791920492239831,-0.043161576533375344,-0.024361293373172603,-0.04584350978929919,-0.08491616855436467,-0.08132716232110371,0.2445700044965561
0.028457008420014498,0.3406213909329672,-0.05196495848360172,0.0028674154317190684,-0.0411063975515626,-0.06804945934106406,-0.09463730783255256,0.21726177050166595
0.018489531978646733,0.3628547720959878,-0.023269561309333338,-0.01280575650616509,-0.03757808254305111,-0.09140834594507519,-0.10237511069045324,0.24853304154064804
-0.0024815344288896713,0.27917421210018806,-0.055167304261191125,-0.053647591803827145,-0.05317349388599371,-0.11083562013350098,-0.13359893417839133,0.29643921649014066
-0.002930430540134067,0.28985798256635625,-0.09084667414909539,-0.11084218491538302,-0.07889045449866994,-0.16198650543612939,-0.18155534642368468,0.3073712200535975
-0.006052963228904002,0.2910358272676703,-0.0978315654823121,-0.10187296075213208,-0.08678652871123846,-0.13759654413030487,-0.15726114600471572,0.31807425508606957
0.022221128624111616,0.3457856876019964,-0.05201305553479927,0.0020207458725940088,-0.0331687667849568,-0.07717400761315592,-0.09722561761280388,0.3072441628952903
0.017242406026818487,0.25017665841429426,-0.03694127264720002,-0.007735520261733174,-0.04128316707457535,-0.08065869183205264,-0.09759286417077127,0.2735027922200963
0.010074878019802778,0.25200400079189594,-0.06485100461339445,-0.03618168716474031,-0.03886654508777339,-0.12274275889194589,-0.12786647503644694,0.2366984281920583
4.4462348461608793E-4,0.2821226791354517,-0.09308231562486889,-0.09108057363533927,-0.07603437715426911,-0.16342037407151996,-0.16838351945596972,0.3047357939238007
-0.016227966085275373,0.332834050508265,-0.12488180105624953,-0.13804057203846745,-0.10752223061423156,-0.17591567706772032,-0.218233393391042,0.2399534160406198
0.01410001540895671,0.3027497064897564,-0.05324850926359758,-0.03588222037240924,-0.05817764542881126,-0.1188293303608611,-0.14320445260384337,0.2585795785189089
0.027015050110917146,0.3185683369198432,-0.04197097695086214,-0.005018648000964453,-0.058902696309646084,-0.07369155915061706,-0.10868387413221883,0.23853973000882447
0.02845705085993896,0.33010165137615155,-0.04093007159809809,-0.018329232933262416,-0.03869486239165104,-0.0800040334249268,-0.1345680364668862,0.20754730514774283
0.020171292314715632,0.34428587817250256,-0.06140146189235648,-0.05275185016122718,-0.08326631682325464,-0.11639495189302686,-0.17161972759845,0.27054363508757606
-0.004723098291361788,0.33371842273249497,-0.09566363079373703,-0.09496291117423239,-0.07492179905867044,-0.1586567135475026,-0.18534343944990095,0.19971814783975628
0.03855023105567009,0.3547475097182944,-0.04155071255087012,0.006630145394523382,-0.03627120940829358,-0.0723673247657491,-0.11728298663539015,0.16613074163589484
0.02181050410913197,0.35854170058945617,-0.013927234479891346,0.021046326694479277,-0.03329013395142221,-0.07423460723766157,-0.10730704985750895,0.28889533217577273
0.03871481767929386,0.3613154212412361,-0.03143928035222919,-0.0018105568201252204,-0.04139781443845011,-0.08906860518081292,-0.12557077399232405,0.21633485680056766
0.02221371856990854,0.3888507134574799,-0.056287756854038674,-0.04547288636565728,-0.06427786438115599,-0.11141404876406345,-0.15037978686479767,0.24060065867362387
0.009213850935855604,0.414118471553507,-0.06331386306798607,-0.07969751726439177,-0.0599521549306889,-0.1395987779533761,-0.1619605029490039,0.2382313501332002
0.03513103166740421,0.3468668075089433,-0.013084435962773474,0.011590218525530268,-0.04302727897055805,-0.051302027085604836,-0.09934309338691738,0.24100497788001243
0.03673367775792866,0.33755801105117267,0.0047651545986095835,0.014155237580812885,-0.017743966834468886,-0.06424071511461384,-0.11368514085573667,0.2139400848044397
0.03951804936157413,0.39538658290662815,-0.01848885198629881,-0.006761105040923194,-0.03839384224529253,-0.07201722089866745,-0.13160636878140045,0.23794203395429062
0.03755968810177259,0.4283535217828229,-0.03628658239443299,-0.05196286304558609,-0.05900121815493294,-0.10721014517611148,-0.15638939902998308,0.22530091519790216
0.019431791397157956,0.3567305668923833,-0.07621121171708359,-0.08090833615176568,-0.0850510508389568,-0.1460134343229558,-0.19553336507100472,0.18652789397669978
0.014500280531488217,0.3273015698099182,-0.0772632900691781,-0.07035734040138761,-0.08451548024835637,-0.15456914241583794,-0.17762615706164342,0.19585502355096251
0.04871770374199964,0.3489541275523667,-0.026770257128555297,0.010823381745834942,-0.03520163257759503,-0.08079356184425042,-0.13231040335927358,0.24290027642643286
0.03820558727299191,0.4251811124243071,-0.026187088874500174,0.001583100542396815,-0.03820386155729699,-0.08230869445426799,-0.12375385450788083,0.23949653712737073
0.04128094782487502,0.38264145724494564,-0.02870073650215589,-0.010390553019811214,-0.04814184237082793,-0.1018315941934681,-0.15137049367730437,0.23019978269073696
0.031196313019536365,0.32835093929913123,-0.03602066919522562,-0.05658593204783647,-0.07431266744254542,-0.14020266235234607,-0.16754312599116206,0.20903509279790683
0.013305170332188344,0.3385015603262497,-0.0835368114805082,-0.08132078916446658,-0.08726478927288733,-0.17121249851440418,-0.21372587726276637,0.1993415625350182
0.03639187986701087,0.30884584924838565,-0.02907065087372203,0.017107972978600956,-0.05852413878623763,-0.10331325055499406,-0.1629490560496797,0.20290700882590976
0.04251806854333644,0.38110725835491527,-0.009324693254630092,0.01182141686599714,-0.03430622472028266,-0.10150957275069543,-0.15036749003878172,0.22074968555060115
0.04391562525643009,0.36266403734369224,-0.011752211652929001,0.0056636226278139485,-0.058427546987291766,-0.10595753918341094,-0.15230955881890063,0.24210515812905553
0.021961185935389847,0.3874660730322566,-0.04723817011235845,-0.04562953791866595,-0.08997121804873365,-0.13605019121653522,-0.16724514113097727,0.2413849298869751
0.008094554873519668,0.3779842517869329,-0.08151358189488875,-0.08275145659155073,-0.1004099976507365,-0.18078674088875424,-0.2010336812915563,0.22109391221179198
0.013698339277020395,0.38531323277330526,-0.05680257831862294,-0.052246804452629546,-0.07154399868657031,-0.13529658162528008,-0.1743334433293127,0.22906451226419886
0.05199916880208229,0.42156051813442197,-0.01642442242289502,0.02822642491031072,-0.0433205833116555,-0.09287063477814583,-0.12306704326413787,0.19809630288659436
0.033783966531272726,0.3549895134936893,-0.019012655352403564,0.019369065848728606,-0.04263710285986026,-0.09877604941182697,-0.13317615313228334,0.21303557904037143
0.03924049739201483,0.3172205097236103,-0.029618482167067698,0.0010248458839869066,-0.041122400589084784,-0.09719815906520594,-0.1450971302814709,0.19598883029376968
0.02380559669394415,0.30573831324708783,-0.04357450080590048,-0.03352390971002794,-0.07338063252662477,-0.13862836648921928,-0.18954095616907662,0.16636409028687504
-4.4590704388873233E-4,0.2907224136711012,-0.07842983805611546,-0.09329997328016652,-0.09767185046485306,-0.18624178161416532,-0.20375497628694633,0.15266296657293102
0.005202906933979916,0.37643973596564806,-0.06734675603829612,-0.06674877229103526,-0.08511419359175755,-0.16250421758814018,-0.16662294231787553,0.17735960708389464
0.03486669631252155,0.3926329099090482,-0.01183943404436919,0.025316633880029825,-0.04169679121014339,-0.0771651188462025,-0.11859336708996826,0.1679547737162677
0.036938727586731564,0.34617481046851845,-0.01704943692513794,0.019951933498386712,-0.05548036042786078,-0.07723066829076314,-0.10727355375675562,0.1459934432693904
0.029129601740375752,0.30477087541600284,-0.018320386842423226,-0.005000965147412433,-0.05112771262818617,-0.09105130291979054,-0.14186503461491554,0.18668653395753818
0.02348401265483682,0.32870185640295924,-0.0503885866537217,-0.0503656809305718,-0.07191447516599207,-0.1466654219535062,-0.17441614282460616,0.2123967531871874
-0.0014730232611656327,0.35785342493368205,-0.10220240998875271,-0.10495277282509148,-0.10627806394818999,-0.17600684205620296,-0.2207294231338719,0.2249534258149117
0.012040535175853543,0.32653158384882003,-0.07607831746115348,-0.06560921513334951,-0.07524732437153339,-0.12730605408487117,-0.15573834639625855,0.20969746318881857
0.03553944102048824,0.3253708633682359,2.17661337796755E-4,0.0018775433235012878,-0.03127668091696073,-0.09577145236171354,-0.13659238312569041,0.224935427583943
0.026370026865306387,0.3131237385324952,-0.02719455145017483,0.004964352423572212,-0.041006195137151535,-0.0901399574709635,-0.11956807591581531,0.22576340038053394
0.023306586879583056,0.3177218166688923,-0.03331192783790518,-0.024405988151702168,-0.06417985667906863,-0.128567400302596,-0.1415078750862233,0.2104454085074206
3.723055142037706E-4,0.3379489438872323,-0.0711595098719379,-0.07231989912735307,-0.09487465647744633,-0.1488124417926136,-0.16410247193016134,0.22739041729199827
-0.00505119884620478,0.34708348811161793,-0.09274877142695313,-0.11029105143412822,-0.10777306908898639,-0.18240639692969407,-0.20799163783825234,0.22910857593439563
0.020131060951076533,0.32892497052207204,-0.02997264203941889,-0.016328619129579607,-0.043506003995968254,-0.10491851212488426,-0.13669562492871806,0.1993150075609667
0.02359783643270374,0.34731017112317075,-0.02762927169080976,0.0011297352416054865,-0.04196170100232946,-0.10145431888048541,-0.13823868233230965,0.22113851580089033
0.025428058057401042,0.3559829917911382,-0.0316361894190653,-0.023912658889930452,-0.03445928955067467,-0.10849093496768618,-0.12832762390402774,0.24941538876734268
0.004173841147650228,0.3625913226188483,-0.060096912323326646,-0.04892117715438016,-0.07059038441115452,-0.1338286440181796,-0.15523292591013577,0.2651424411431959
0.0016318811733869133,0.3083157847701747,-0.09765026811764185,-0.11478028455127103,-0.09398208831292779,-0.17627039979742815,-0.19003235238115027,0.2251186040671753
-0.02454538737329467,0.3870537251900853,-0.09292740475538622,-0.13767193527474086,-0.09953325035554401,-0.1724666470705338,-0.2129607958431311,0.22069438790496612
0.003567308507256226,0.3270421797175867,-0.02219742578920771,-0.015644722643154373,-0.06548831173681365,-0.08441279921465437,-0.12938539877352054,0.23377373621066277
0.02460606863971691,0.3687042268537052,-0.01902480924962938,-0.009558094918040962,-0.03496800655827125,-0.07146825164756872,-0.11485333204302452,0.2379619683261756
0.01610777243035048,0.29753914492013406,-0.025782018017947207,-0.010567862457704977,-0.025721879305961735,-0.09940017667818653,-0.13178300879743607,0.20135965555681384
0.009886554463901675,0.37345310390868136,-0.046180520128408654,-0.054678250116984815,-0.060501754870525226,-0.11761474162269515,-0.15599211696648674,0.26211398719070855
-8.806386185751186E-4,0.3282140619263629,-0.08710838140576434,-0.10718357978844535,-0.08431515323568418,-0.15946361512722138,-0.18762090955286553,0.22067835208572978
-0.02320625006144566,0.2846157034653392,-0.11108768204921134,-0.1559215967176138,-0.10812933898350782,-0.1943478874388974,-0.21992397306853487,0.17453023566743087
-0.0020255188857999117,0.2905382975396062,-0.05753226580882398,-0.0428937731151763,-0.05488873326156689,-0.10076057542387616,-0.15668317899003475,0.22332886914765496
0.019380409288349647,0.3491548783084191,-0.00880366965677704,0.00513350071280594,-0.038175554582442886,-0.08940921879269835,-0.11163025098096578,0.18968170236410267
0.029703220880462976,0.3641825078556959,-0.03658288898760879,0.009805186598056709,-0.04668488114392883,-0.08668227454578618,-0.11076385713586592,0.24019569732088425
0.024413275975040196,0.329216286343097,-0.05293291124284747,-0.05840920306111739,-0.06699662841059978,-0.11135833382891268,-0.15362945000763442,0.229990372904892
-0.006914080429833728,0.32077385532563724,-0.08325572177925944,-0.10031960013216124,-0.09895408722600439,-0.1601699660499367,-0.18865695276260971,0.20489771731285633
-0.01785914192629114,0.2952954070843211,-0.10785020377247986,-0.13693524997694087,-0.10835526954327504,-0.1827038207846297,-0.21352440672342407,0.18286185154927634
0.0035836582423672317,0.32703857928638774,-0.041963956944615154,-0.027909637311065588,-0.06631139972513003,-0.11038354571945866,-0.1455616088139563,0.20922242161904248
0.027121149777311265,0.35820564190416404,-0.030275719977539202,-0.00739658980689551,-0.04857353619082596,-0.10042460325780023,-0.13735279790699534,0.19847926866829393
0.02657916618058957,0.3312131579211588,-0.041024237585987985,-0.02502140560650554,-0.054251063204587543,-0.09767534861085016,-0.13611662009882172,0.23888428608277623
0.008353841157415236,0.31101727274636,-0.07551537500328807,-0.0618192748158434,-0.08351860865466275,-0.13702846063865548,-0.166610409760862,0.24344124185970686
-0.015136895445563207,0.3176098103082896,-0.09378043341309016,-0.11004827696440554,-0.12310795895991551,-0.1679490397054438,-0.2047998243485408,0.21764451952312977
0.004907169321932979,0.32049702904566924,-0.06120043667123161,-0.06360456262737402,-0.06624452084806691,-0.12840933740580823,-0.16220198413073528,0.19062699112554077
0.042840173896914975,0.31246802418460157,-0.02484582462589851,-0.0044060351444864185,-0.053369588880822445,-0.08231187403934974,-0.1204655344080899,0.23360546748269173
0.024985961792095595,0.3636253838242127,-0.019673602030396267,0.007418846452463772,-0.030856561721689352,-0.08139168734076897,-0.1020779427336783,0.20623440335947285
0.026116225117221406,0.3165107283109334,-0.05095853510723532,-0.03895330394174575,-0.04606616815552469,-0.09843341471618729,-0.14381401744523675,0.26200611148403363
0.014249565458892919,0.32161878584492243,-0.05648347711407889,-0.0686492150810618,-0.0865113115798077,-0.14638925761361535,-0.16835252155271027,0.22159314847773665
-0.009853710681947417,0.356933658083891,-0.09353055126985625,-0.10639055983047828,-0.0940662232491296,-0.17345398054918856,-0.1948564514290072,0.15767514755882972
0.03790102523605898,0.2646977242533853,-0.03822687650074988,-0.005243311285259935,-0.02959585260094877,-0.0852178233960987,-0.10997640161128872,0.20377161801626073
0.026799736657664407,0.302889257594121,-0.019223436242189286,0.01615551666105834,-0.04652421992342915,-0.05604713165450007,-0.11630476175477317,0.22829664691904797
0.04036351635908158,0.3411868505160811,-0.018978914034489733,0.020237196239300502,-0.034132474707490125,-0.06239501555101574,-0.10605918984599687,0.2053511952013088
0.026672850908626228,0.3426740268435311,-0.04463631870267536,-0.02295731975217184,-0.05568124233054652,-0.10059469777502959,-0.11165375425666729,0.25103941602986257
0.012209238791358974,0.3012552381407973,-0.05859962602234417,-0.059301817254397406,-0.06488418973710544,-0.12820560434299716,-0.16086565040842915,0.2199651610143554
-0.00703738994954338,0.3207169033643406,-0.10249620714517141,-0.09800106044970795,-0.08815698925590651,-0.15097199816149312,-0.1846823059951653,0.2145778189977923
0.019239056789461927,0.33445403089622705,-0.041425111315045865,0.002152353892101216,-0.03513325961616403,-0.07047297707846294,-0.11762980569633032,0.2447556528826121
0.015245931769205141,0.3431523196707374,-0.012667823753226799,0.019436257033737896,-0.036836709938094604,-0.0673216347856838,-0.09091826434633528,0.2216967759065274
0.033922966953471655,0.3507387315699864,-0.012824745572411134,0.023783523739369438,-0.038238276198855066,-0.07007649753523636,-0.09134080604014658,0.2165072645646449
0.025222958806957282,0.3604336251213878,-0.04026674188747881,-0.020237276593735126,-0.048380411847836306,-0.09918627960226735,-0.11730757455682267,0.22920403815658258
-0.004986245424896899,0.3139767703385851,-0.07741165279035135,-0.04968920670301925,-0.08008384037919773,-0.12572858099238032,-0.14279946498286072,0.2440135324263856
-0.006421371649206532,0.31727812171252906,-0.062838055908067,-0.04087820270616869,-0.05070359165066254,-0.10354639554475356,-0.13643546917956656,0.18633528294597476
0.02799983121196641,0.3627796828124909,0.00245873477461848,0.027448364330573252,-0.04350761329384894,-0.04429663214965793,-0.07293800491955017,0.24313721292833718
0.04064344876167204,0.37407424528995736,-0.009774682828353521,0.028189533339038585,-0.014046805632018494,-0.05782958926938184,-0.1023672047066039,0.2658772345340467
0.03682426859701582,0.32465445739412746,-0.015689320450307524,-0.008380237404586627,-0.047541874613597886,-0.08830947263168583,-0.10787460512819395,0.29695615550668125
0.00901743292581699,0.2868522822489628,-0.053112088200532905,-0.03856802275282509,-0.05443536337573076,-0.12204548554639671,-0.13972442297757873,0.2402550759456983
0.0032737791584699786,0.29728838386437223,-0.060526889814595156,-0.06817303318350267,-0.07848329033771033,-0.12359960315404335,-0.14585645599877525,0.2779302186660507
0.03710073868887518,0.3474571731958183,-0.0010226772464526294,0.03893640070497425,-0.04902650621058126,-0.05615354334913645,-0.0710282101546839,0.21400176289592077
0.055682477508287496,0.3811090904117565,0.02462847677940551,0.05459176163612314,-0.01593365002527369,-0.0394628573558348,-0.06289296450971768,0.3089889715765797
0.04682206239975466,0.2932687437557667,0.005907605030054747,0.050242536647839384,-0.027999276107130842,-0.05397490544306854,-0.06456892298803557,0.24593964140703312
0.03794970230944452,0.3147936414649061,-0.025386902817701628,0.006112421514377903,-0.03151635037663051,-0.08606746609932223,-0.09203618213846584,0.18773984366032487
0.010616605286658937,0.2932914761259952,-0.03812742223285799,-0.049299406008281366,-0.0652862857223512,-0.11077504309634208,-0.12027614056362708,0.2848216665999705
0.03375722901726876,0.3387285143315278,-0.018638598047348937,0.015075897560396859,-0.037485677113981944,-0.060245501138191146,-0.08223543965664593,0.26170013384343527
0.053450140296383584,0.3229724384795553,0.021641389387406118,0.08516878192089651,-0.008134720293822386,-0.016407226874783923,-0.04261894508005022,0.23438534731557434
0.055955719767085986,0.2909491386188193,0.01660596131228766,0.08040184961880388,-0.01347418501009422,-0.016727075723464994,-0.03529118629710059,0.19639904266943928
0.047592151833023545,0.3332262823465473,0.021141024621766303,0.06107523734302047,-0.006022476038046108,-0.045974753606288624,-0.07072377546799205,0.24238629495938627
0.02315519711693494,0.36582300599237333,-0.011330165421433192,0.006484141161530155,-0.03301987622238438,-0.0868699273096059,-0.09395463701639,0.25182421680516437
0.014668582280618847,0.2910092806531072,-0.034694686902687094,-0.019285720924398685,-0.06891403869585988,-0.10644150926573026,-0.11593085593090552,0.2942410368845701
0.05053165453496859,0.3349945993105859,-0.004327850883410819,0.07956494680783635,-0.011047768688896268,-0.0210807403255802,-0.04225381111390292,0.2544061883955145
0.05128184091877391,0.3493333469355722,0.03153006256819292,0.08820170226915684,-0.023507188104992405,-0.015515812886959884,-0.04667450589330975,0.2513727216578002
0.04825149079386715,0.33462453939710535,0.014743825229949754,0.07297265763872195,-0.01675590559918904,-0.02235332261999964,-0.04361482196570369,0.25610037558709103
0.03551101448239554,0.36389217999777,-1.543550881766403E-4,0.029682704000066108,-0.04309463291015997,-0.06353408130764308,-0.07580081742132208,0.24703438281905132
0.03214305789594959,0.3656665150204542,-0.03366633453846188,-0.0128120169627912,-0.057834419586889146,-0.09005652679785724,-0.12386849490646455,0.2695703146942999
0.03326674398256462,0.38255090253634605,0.007353155062614384,0.04923653884910007,-0.02174472001103546,-0.05005989769867078,-0.046589033154793104,0.25426001280956584
0.058962189968711644,0.3383085582172525,0.03484836862639601,0.07119580557432673,-0.022214746171891096,-0.027603069374487702,-0.04998378011906923,0.2608105677201363
0.05995885982001219,0.3236440836972925,0.028415436092917194,0.06112168319902009,-0.02719274809908833,-0.03037756934790627,-0.07286227796340873,0.227094550478522
0.03796271837351546,0.3199203791151481,-0.0031060816968364905,0.01976591098797665,-0.04430640721967308,-0.06087445146372903,-0.0919561878258627,0.24233955886118522
0.03331592818127652,0.34704721778716074,-0.03413640473188071,-0.024467767876142958,-0.05941110788497485,-0.10457673884228441,-0.13536312421296243,0.23406620060331526
0.03909008187853714,0.3525544600820787,-0.013380948064959243,0.02227948944867544,-0.05754320690666954,-0.06983102027889575,-0.08268105768649546,0.2551933049438793
0.05766126496674575,0.3017870149917817,0.042805230597089454,0.07506578670734526,-7.464315976546125E-4,-0.012500624361998915,-0.028525421845754212,0.23407018223445658
0.054939404574279475,0.2892273024040478,0.031541949651788324,0.07265272541665065,-0.004844155880270482,-0.03414793605843575,-0.047042295035832876,0.2479083163849231
0.04753645169970579,0.38184154861961317,0.01059471697869623,0.04847700424528311,-0.02743156974335461,-0.04433945461258598,-0.05614961906282177,0.25569743667774547
0.036944091155232985,0.39075978777885656,-0.009179565317191713,0.004529690275997492,-0.03691359876708017,-0.08082829296611062,-0.10314206923386138,0.294025660585375
0.036366317756732165,0.40764603553298323,-0.00303104198677347,-0.010272621448653834,-0.04875962699902844,-0.0925163535384385,-0.11280435757744638,0.2690306689818529
0.06897846826736345,0.3595054849953533,0.030263454744027068,0.08617914536758112,0.001661818493040358,-0.011592171443185187,-0.04111786407829602,0.269652201018555
0.058336131491472716,0.3800370400607217,0.04685406380027667,0.09644847800547637,-0.009460547586264953,-0.010793611765771158,-0.031944553239717885,0.2827353459798959
0.06712834570324494,0.37790427085063627,0.05427368176547474,0.06904087223241356,-0.010204160904079796,-0.014407541588396171,-0.05233334228126404,0.2805360982168537
0.037689202560676205,0.39396686676813564,-0.014310096155389966,0.02140203922513065,-0.021759635792257224,-0.08033483235061867,-0.09195849704749738,0.28415596392546
0.024151106840481277,0.3702011734652483,-0.031050235083445198,-0.04379304176505038,-0.046311479722875165,-0.1041086207071104,-0.1006434106962562,0.2745138587723085
0.04987772310637549,0.33579782892207943,0.010059231395785389,0.05200301910194252,-0.02485376091800647,-0.03360206037626452,-0.05615810681413338,0.2143585633285151
0.05286534014777207,0.37443825866631364,0.028378997246842064,0.06897791545785453,-0.01688320929099969,-0.016976793079476252,-0.03484690196567282,0.22132624675782397
0.06351906270825748,0.40487605491507017,0.024311641937387173,0.06009321856893012,-0.03329275730221726,-0.04000979378322009,-0.058632033193957225,0.2573196799112944
0.04381359792076422,0.33484958694640604,-0.007328670687124236,0.02094194179487385,-0.04066415162794937,-0.07465197279003516,-0.10184500186260621,0.2649260285751533
0.037475641001195645,0.3105327666461203,-0.006962443722186738,0.007770474428411976,-0.05581244978119409,-0.0816539109111462,-0.08628092581256418,0.2601442842816157
0.05460923142788926,0.36809311653023896,0.0363935417517241,0.08639944038482138,-0.013592991477559187,-0.017951351056010315,-0.03455672780256981,0.27525388477001245
0.05667457876409644,0.3261815130517276,0.04092442781132348,0.07511827013023872,-0.0166757438188232,-0.019315824769673168,-0.03180937348944748,0.27926434320841026
0.04048722270227584,0.34803996566720885,0.025240514442703525,0.04680372545764052,-0.03762210478250957,-0.058050816270770605,-0.08792065869052883,0.28529355107512855
0.03239267702769552,0.3554181998204388,-0.027007321042924224,0.0014065328806583295,-0.056784355193098,-0.07561516073726228,-0.11249500699984831,0.2605209528946784
0.06367041154851387,0.2951749139530287,0.012276110244302417,0.07774280744551652,-0.0038200606112724442,-0.025149331032297356,-0.046567504732593544,0.26793194709387197
0.0663863951590851,0.3357498838943381,0.0392035866112539,0.09317706052740014,-0.00990378056448996,-0.014381598773303942,-0.02784440054431719,0.30453785314374043
0.06884374813409443,0.38775223272458254,0.04842797027139269,0.08338978333260637,-0.010010327435404379,0.0030193180391688266,-0.025963965780055238,0.32790539289413567
0.053509417783174376,0.39605068695514734,0.006455689978137505,0.05645397296568923,-0.004871367425516855,-0.04406366392866764,-0.06369660900523055,0.3155121539490512
0.044092174961921415,0.36880689733657585,-0.012088938731554153,0.02489722794295229,-0.024531744046702244,-0.05181302399395551,-0.06624890647109055,0.29453646153755536
0.07467484042805227,0.3497705065657331,0.06452575616418449,0.12615426522535178,0.034927922080230676,0.011712758184145666,0.008194704807067183,0.24963175455811856
0.0819244464754356,0.37727367350479224,0.05339800168368662,0.11990385217114466,0.02402749030550583,0.0263132310685582,0.008326901313007546,0.25118165097141687
0.07149802997349881,0.40578997659025606,0.05733630028116108,0.11796253892808252,0.013494011306560874,0.0010461271906691766,-0.005885386813821741,0.30099639176105364
0.06589457248179993,0.34922742008005814,0.033132256850692446,0.07421924854096051,-0.006284284266916432,-0.007943171396050814,-0.03369534981648088,0.2721217580768781
0.052766774401235075,0.3402850084410933,0.0018614485360187983,0.04124015487481732,-0.012601469906797306,-0.05168443213584151,-0.058269681022131245,0.22548645939288578
0.08400313585720826,0.39576194711778834,0.07130354686081326,0.1367141010258784,0.035079167010825585,0.024923300463413584,0.007562488620153006,0.23461342898254675
0.0875080028501499,0.35383665854517354,0.07965456419478932,0.14110626337295196,0.03311483184870863,0.03951428314294783,0.003233165129009749,0.3051272455495342
0.08911515071932613,0.3992476469652583,0.07067559462510584,0.13554070803990143,0.021480398466341047,0.02004787803171257,-0.00424548722656431,0.2719837145744069
0.06921936560773263,0.369715965153233,0.05855175034383615,0.0860021152516916,0.00997284996524607,-0.009667912441232059,-0.03989524165441082,0.26838706499574994
0.07516207897201324,0.36270423101014726,0.06244771110308166,0.10382376145662005,-0.010482969416538309,-0.0060586556005933125,-0.023867846124110397,0.2470602729322042
0.09290296817772183,0.3477645176867684,0.07304324825223489,0.1359029511639761,0.04064590629139355,0.05604053932506369,0.030501565265402434,0.24805233616191288
0.10622271661211152,0.3630982153997088,0.08174982319250727,0.1522861880308177,0.0485872064111816,0.05449942087133056,0.008461107261765485,0.32362137621824527
0.09380498913076009,0.4349874242421437,0.07199114206376218,0.13716332150747432,0.0322517447321437,0.021143988483361263,0.010194195144765567,0.3144884510104311
0.08490540257127552,0.37611167736261325,0.05182953012643947,0.09316413025068951,0.02989624792352637,-0.003920636362726249,-0.03425813569035743,0.2969039086779784
0.09903585987702387,0.3889231742096242,0.0944989199474732,0.13356273426927934,0.025815196404734193,0.0039179057863996,-0.014180405029982374,0.29304986391731985
0.09501816819679343,0.3832506154252554,0.11428913895465148,0.17342825744749327,0.044320927040980285,0.060382793250794015,0.02538701834498505,0.34715086795578515
0.11463167764509143,0.42173716530611344,0.11455805019110263,0.1746830248496019,0.06083310159322084,0.05234851938074913,0.04190549460364238,0.3356166209687743
0.11201380327258023,0.40536761979434804,0.0930739071532956,0.14708889608853412,0.059459734226446806,0.023273848372124983,0.0186507743541252,0.31893002574199564
0.08535460129509427,0.39343077597451553,0.07438253887557023,0.11365156282373765,0.02168395956112264,-0.0022313526730022033,-0.03826110018968678,0.37609990577459196
0.08691350747242599,0.37640937830485244,0.06894794108812488,0.08281807332457207,0.012480635158013259,-0.022191461822428885,-0.0363015966120126,0.26053116721526687
0.10095115811998058,0.38462766922818614,0.10632623830369511,0.17211898457360045,0.04809796107541869,0.045403302243246416,0.01868572498948631,0.31632265966757145
0.11395406891380909,0.39334717134709024,0.12091041490975288,0.19261517579042597,0.056915283716789146,0.0485362432529025,0.02311952140739171,0.3210580720418411
0.11983105358428389,0.40180686706129826,0.11176753754227767,0.15786414816004193,0.05560257075412122,0.05046929864281473,0.008705613495839598,0.347357295854921
0.09041668905513175,0.4068896274940062,0.09087408764005897,0.13779378443916626,0.016796668559714265,0.0035292886774303174,-0.021998759747017742,0.29088030374490437
0.07653760190893577,0.36190283539932067,0.07288450371954944,0.08691994830450456,0.011229512120292646,-0.033793810160735405,-0.04600040661852247,0.3120306903811083
0.08628071003184251,0.355482858212921,0.0946287385848471,0.12085359668788716,0.033653258251914356,0.006619861504047603,-0.02373071899932587,0.26078357919567213
0.11384541182892317,0.3719232275832016,0.10699954015734339,0.14774222827036443,0.05331298640002309,0.05733707580822792,0.017696084323829835,0.29750599065997096
0.11612378424861343,0.41098323810493925,0.12206231735457489,0.1674724140947481,0.023672764635942537,0.027437984984828166,3.203222792782362E-4,0.2464801242472558
0.1044694310201165,0.41950540805602415,0.08881878029031148,0.13291705589579014,0.03310498707104565,0.008095615772150478,-0.02887759562567427,0.2825371607768011
0.09333152720595413,0.4168984902072956,0.03898612356062795,0.09882859848373972,0.009440341170469232,-0.03378750572515947,-0.07332063802473038,0.2374772786814397
0.07262926312922777,0.4384320612125344,0.05334027122117264,0.06208242447633961,-0.01260156838100318,-0.04358539873276572,-0.07667907992731954,0.20303409952080217
0.09453598190287163,0.4712110626658795,0.09640034492685484,0.14170467213121585,0.025898034614191396,-0.005712737836561613,-0.04585551648945013,0.23730947578120545
0.10016497402646068,0.5061441207700846,0.0925894133667831,0.12040612753359549,0.02794518285888141,-0.010463324292119774,-0.05591591199176743,0.1948722486785593
0.0982903946292576,0.4925180790555263,0.06738193583765584,0.09979060740088537,-0.0064186250692811605,-0.020839145468713748,-0.0740172255937887,0.18893686267353585
0.07754087169501918,0.45579777791350684,0.04354637682964818,0.05837922714353416,-0.014493231415219392,-0.07093269222668963,-0.1118955684714167,0.19589971502172104
0.09019725922791477,0.484909193801809,0.059005107348932946,0.1045138211079839,-0.008892373005236556,-0.04715943110619864,-0.0746180126895321,0.1977010336169206
0.10028259620243117,0.51594466900495,0.08140510066451692,0.11753428150264107,-0.011306585663596528,-0.017208465892334594,-0.05557862926509921,0.20560431430672885
0.09754640530022837,0.5468897050622309,0.06837969211886258,0.1058469269585318,0.004582893407420043,-0.024621652820500058,-0.06493380490979744,0.15386945228816754
0.08748164319719548,0.607516359935762,0.05119631871565501,0.06523223318096569,-0.019018677354244142,-0.0755231607800569,-0.10520116943540707,0.1807033802758283
0.07807304575893932,0.5711682089954205,0.025955750086741117,0.0814920377291676,-0.02054622627603208,-0.06364132187060727,-0.09792498749623028,0.14311779962806342
0.09589276977894297,0.5813854916926349,0.07691663370429923,0.11043679492558978,0.026508171677431296,0.0029668810110653095,-0.03764463925358416,0.12906189269957577
0.11508938829558822,0.5408221957856505,0.08690455779045067,0.1287851838963364,0.026634506372773602,2.6322957914516913E-4,-0.038642091030990276,0.1508869948156327
0.09053743325497375,0.5855393007679955,0.0727613044481595,0.11173852759471173,0.010956047829294862,-0.03528960550470929,-0.08466819576507616,0.17671187901985183
0.084128467951584,0.5438640288438665,0.04509609127782917,0.06839827627343675,-0.0225980834795925,-0.059992244393605496,-0.0901763903194386,0.14451536233728565
0.09512445226729757,0.5679764784934008,0.0596687807109695,0.1188693695066714,0.009168402610403257,-0.02067803314255666,-0.07745777407473692,0.17277658524080827
0.1065334001303126,0.5709055076670841,0.08713741150179227,0.15210993946935106,0.023170125248073964,0.021170903916186055,-0.03450410803400615,0.17559184806319297
0.10488999453618619,0.5309999160676458,0.08045985501289248,0.15060267745549796,0.03824411068130829,0.018431667964692925,-0.03574340181057135,0.2076035818970341
0.1089919269719996,0.5344698286983532,0.08273918773493702,0.13377269477635403,0.011175748118421818,-0.009590195756597638,-0.0529091469370647,0.21319569660210155
0.09318653068393125,0.5720383883481194,0.0505719429618204,0.07708686162640169,0.00952668208594938,-0.04125906913913137,-0.08281257501833851,0.17773004096038333
0.08364180132636528,0.5618630937522353,0.05555363442568763,0.10172792316277406,-0.003084871497450938,-0.031549956722986425,-0.083275566293076,0.1679781537823051
0.10353307577367656,0.5803767532288181,0.09852743608764218,0.15978769665805678,0.04214607444785055,0.02888154815756993,-0.024139954493855174,0.2003224415395563
0.1199799728584668,0.5879300273714456,0.11124668283418647,0.17008873236584596,0.03347363172862073,0.017024396400271317,-0.012860057284873954,0.20914676642848498
0.11158940895038466,0.5612776337401314,0.08739640629644174,0.1267154052837122,0.03388527869595265,0.017763224571732506,-0.03872487716058017,0.22225521186824604
0.09315905688917142,0.5851430433236563,0.07038133313732146,0.09629468157303953,0.006526252821161705,-0.028803533354331185,-0.06710764263316193,0.17636368034866462
0.08775242835215077,0.509144217284846,0.06017015472708971,0.10023857372966313,0.014983158348316929,-0.024980094754976794,-0.058388079631216325,0.21194474402694605
0.11962945581527737,0.5561019843063166,0.09936361489031666,0.15192427123031485,0.053621082850644354,0.04789455007663015,0.0012376736455674796,0.1890927058328882
0.10956876970323401,0.5622101701455726,0.10576407238598345,0.1532455762801336,0.0648145623646082,0.029790894369137563,-0.01091289090016891,0.2786895766985076
0.10207292614130294,0.5292718039738195,0.08500392461331105,0.14941974381902554,0.03004913070748668,0.014251451305940807,-0.006750527461653516,0.27342705238023335
0.09992781811736706,0.535042625872588,0.06752072706202544,0.11133993047084566,0.031286606902024366,0.00859763230414058,-0.036075649270562636,0.2286444637761624
0.079225553036944,0.5505943198631493,0.0475825704054492,0.08988280836557631,0.01205463129746238,-0.017857313140154454,-0.04644788632553934,0.2463367148916713
0.0919618476511764,0.5321754511211051,0.0961238115384218,0.13762637847216225,0.0619346838351509,0.0808848394928544,0.03697138081336082,0.23558049682777044
0.11272285776410036,0.5301465806105322,0.08480761507664619,0.15698429155958155,0.04322613917559639,0.08685395592430667,0.04137881398688057,0.18482936130675934
0.08741515435173104,0.5512861637102953,0.10931262004761656,0.14262448446602216,0.05823478100847524,0.06253830106252121,0.022612586899986988,0.2414693980839865
0.09137344433590645,0.5870020910290131,0.07910276678611106,0.12617761140363043,0.054365584740732546,0.0252572301464162,-0.026965701700650605,0.2733126601052116
0.07824035119014756,0.6256772504284188,0.049588715324749816,0.08982576793011472,0.011658649338536872,-0.006432739577360759,-0.04604458915134383,0.2529197551579304
0.06043442805581701,0.5345029363722444,0.025015823073910065,0.052039322022392295,0.00777821506566638,-0.032866477660785445,-0.08997980240697713,0.2450509567055535
0.08560259621327419,0.5217553304924186,0.06805714900985195,0.13660593591519485,0.03778701759842656,0.03634165924633591,0.004623065695397786,0.18190144376998096
0.11104482530510396,0.5391901087311505,0.09804559811134127,0.14147085752649,0.04190764240346965,0.06204276254421786,0.015269464133698863,0.19738689648707933
0.11818569597824811,0.5625617338157216,0.09076075781373759,0.1455630629255366,0.040646296604337794,0.06173901775813969,0.018728735703186273,0.22138378647153925
0.08895789709938227,0.5972417965925109,0.07179089991835688,0.09830447822009448,0.030767602390689437,0.014659628959768306,-4.923072518983215E-4,0.23564620733366812
0.08088730056439723,0.5726474657776743,0.04341256204449528,0.06742295053621478,0.026690088217674365,-0.007337775827379515,-0.03808534833769374,0.21562735887907986
0.07030107809636553,0.5649476895366061,0.013315476886950433,0.037086189687682264,-0.009491180269262602,-0.03386983630662139,-0.060022441353180446,0.19831431685265605
0.09533040075049376,0.5328244574748845,0.06783866559968743,0.12219229117840688,0.043324862505275584,0.04652903291563544,0.003251584552765212,0.20137692085931216
0.11638311132816706,0.5968215044882175,0.08574646586698317,0.1186368383494563,0.03165050072127229,0.03815710953936507,0.019589901607551887,0.2194416932125185
0.07150231808399012,0.5455469278353798,0.0737760826529415,0.11989138835465658,0.040754228746126255,0.029932673574679176,0.0156314399757597,0.2577459697587715
0.07824829246535182,0.5802376077299997,0.031198805072263754,0.08116075292387263,0.010073039393377016,-0.019556934022800336,-0.031115422216546597,0.20255210363637297
0.05960841017274174,0.5527066914856076,0.02274425581193182,0.017949298944517123,-0.01393999164163503,-0.041255474924026835,-0.06787191199863425,0.21661488696503378
0.06714419119754313,0.5171325223191225,0.061036126874562814,0.06254743776303477,-5.841224705504495E-4,-0.011307479864963605,-0.03426311117899467,0.2479187002508635
0.07914258676966915,0.6078155764905497,0.06328027729830106,0.13284649177484603,0.02434935586361095,0.044496202792141046,0.006327362135686385,0.22672320571950394
0.09059232168081963,0.5656994371043965,0.049015226411283974,0.12090276923845485,0.033675836150809595,0.039979939342121434,0.023039391697628583,0.2120713273620961
0.08538319623770198,0.5581042026621812,0.058069249147860685,0.09305368204372556,-0.014804329399791472,0.009184914892476139,-0.029344073811231993,0.17267517957371278
0.08155079385094188,0.582184161673261,0.025689519618921644,0.06085233120486537,0.012115303156253292,-0.0211187487092272,-0.06653389913334666,0.13962425180226123
0.06295291890517467,0.5525103551036582,0.0022896425259360696,0.019983428025444436,-0.025550625377962963,-0.06303126968973828,-0.09019292061853942,0.1559351669831456
0.0832456182540385,0.5011138458359474,0.05009482608372141,0.11864531605791259,0.022005330393736165,0.019291255846881294,-0.007014958328963489,0.1764569464335281
0.09533427766367364,0.5201061176790543,0.04228057345501942,0.11476139894940658,0.035592723121381016,0.04406425018287825,-0.009025866980828275,0.28433090846618053
0.09340836612565276,0.46865339065694567,0.07656036601234632,0.10987815672731253,0.01867375186342856,0.018847271696229413,0.011547865375179557,0.30247817525919485
0.07845345866134446,0.4320127317605068,0.05198570588975049,0.07920287747976992,-0.0045334449718181,-0.021983337864182526,-0.035829313231123205,0.295231521104991
0.055231567625427386,0.4581849152053576,-0.00395520274572284,0.02699666417449924,-0.026076646537615746,-0.05008773366084322,-0.06405198061401672,0.2704142716247383
0.043328695617672566,0.40440037513128,-0.010762316444073418,0.018846462686336586,-0.025136753993445213,-0.046601972578943794,-0.07327908497765322,0.29066285254853974
0.07680777578909381,0.4579490843579003,0.029817339265322568,0.08337365065921887,0.021980992004128758,0.024945363852996522,3.1342747578079044E-4,0.2839343586539706
0.07231596598711751,0.37374284591906437,0.04342958803661968,0.09369621372871269,0.020328278796081393,0.0040684201728462925,-0.019606437437844113,0.270217453986198
0.06373525916984764,0.33348951718258885,0.03463237266094764,0.06781865324098639,0.0018805839059932484,-0.006366291272965921,-0.0320928008206106,0.33401158566548617
0.03354531548876077,0.38172276675558986,-0.002825064608774047,0.01698605104849011,-0.026746928267167663,-0.0374919062482959,-0.06704538401015096,0.30190623286252055
0.05318611516578496,0.32535601891848087,2.8957795253944804E-4,0.0237840982152127,-0.01969783749568986,-0.030613310577039445,-0.06838201307426311,0.36600827958974325
0.06771585836266145,0.3385838202022551,0.03896088813716467,0.05577361074696906,0.011803623204679594,0.008635056771004606,-0.014229932823103022,0.34970032872975554
0.06067991802360524,0.3351693085880987,0.0429649229824153,0.05717787281318934,-0.006920956106959019,-0.007223901386087513,-0.03920332133480514,0.23278539204737841
