0.11154534372208863,0.3875388328514847,0.1483184818675438,0.16009292798473934,0.13707293143175803,0.13393405022114613,0.12904238752504557,0.396684503361305
0.09964851016552714,0.39322032335269075,0.13146028286193118,0.14462080359385363,0.1335215458838032,0.1101927391976757,0.1145199918724025,0.40798744613270255
0.09109542068469893,0.35447070914908013,0.12692061729030465,0.1204645419509697,0.10946639277817129,0.09263723713295574,0.09145243596687859,0.39005646604158617
0.0717667973450023,0.35444043791864394,0.09619360352487251,0.10450283759274422,0.11198784989279499,0.060609825457984004,0.07448583363708158,0.351568857596501
0.10708627909142016,0.36678782364623025,0.16183898225693355,0.18769252018804644,0.1445665982249621,0.1474812265551868,0.14727080608982696,0.3847943591223879
0.11063099780987995,0.3650020578327938,0.1637439989821611,0.19638718549861456,0.14933784153767754,0.15377886700423732,0.16871055033232943,0.36434635409341587
0.11191356411475423,0.3719432019733219,0.16556130780402833,0.18036276242249216,0.14462808457895557,0.14262709677856467,0.13419049551042048,0.40120135094549425
0.10132354179276902,0.36564029967384176,0.1438446432928232,0.15582907521536077,0.12305521096097662,0.1030025754172553,0.1154599200027526,0.34340305786173353
0.0866945999206375,0.33307205339470536,0.12035972937673274,0.11847047805429867,0.10026682758380226,0.06791075461752369,0.07385556383525094,0.3270809355822186
0.07557719226186994,0.3998898624765106,0.1105237129101275,0.1180865177209039,0.09187299172534137,0.08495856415628464,0.0838891424984598,0.3217250984496868
0.11058224068259605,0.4003311849258464,0.16820172472682327,0.18975739561460017,0.13764125078227543,0.14892030450496907,0.1443560844915897,0.3783860221947559
0.10726169015955413,0.36470570570628036,0.1688960823376961,0.19457575945184458,0.14160479013743002,0.14920742417732116,0.14123676364231635,0.39254216015227766
0.10553904193137885,0.3541609340209826,0.1615573528876851,0.1802291160525759,0.13510620318929212,0.13017687389077134,0.12331027106643386,0.36947933141857914
0.09670944012538706,0.36227999727901217,0.13483579448180322,0.14168691869885694,0.09763314182176763,0.08854456512607864,0.08813430733743932,0.36327228909148107
0.08231879198971312,0.3256766169362569,0.13802030899462747,0.1318872339922298,0.10037895828586457,0.07114475181650731,0.07595481314101886,0.3378695150373792
0.1096982493437535,0.34898462095857913,0.15880326552623478,0.20617078417364548,0.13251749717749584,0.14160579529652764,0.1374440249751374,0.41690647595885455
0.10971070310786785,0.3519193146842183,0.164224345211244,0.21423833529431624,0.13142186917026924,0.13678848719060838,0.11930499835397766,0.4175060808398655
0.10604792851670863,0.34139590165681566,0.1669358539634806,0.1905310253182193,0.120841697556523,0.12430473511050413,0.11148415384922647,0.3910340435452536
0.09191316302394054,0.34782220930632174,0.14461854399348892,0.15334176826835544,0.09264811507283414,0.09247586457497914,0.06036821210965773,0.2971350537123091
0.08158441433134515,0.3392045905039338,0.1205018321862878,0.11088906196491027,0.05923935729483118,0.040242090153954496,0.03614686640924937,0.3060642364148532
0.08917724715079045,0.37480733076755524,0.146237254059908,0.16464880087542566,0.09646369380850595,0.0856418706734573,0.08888678815033464,0.31960509251515495
0.10589462434156138,0.365113171502189,0.1714715122086108,0.20256612814353647,0.11557407930672711,0.12406570547708994,0.11905709056791668,0.31896433081129755
0.11155144496568208,0.3514589872235915,0.1766314165354299,0.20531720244016832,0.11022784618013576,0.12696341872521413,0.11306096631099778,0.3161652316164971
0.08997055600372762,0.3846719928598887,0.14140797120158438,0.1680441785574208,0.10228406760311479,0.0946857496953158,0.06839369060376978,0.280582642407196
0.08823589409223268,0.38464414427573934,0.13033425769526255,0.12666554265644744,0.05640668479386331,0.04815417657465845,0.03740362745196041,0.2707993912719436
0.06129675543053009,0.3802368535046673,0.11768936566462582,0.08552923347312283,0.02661844860769816,4.922960829608185E-4,-0.010203333295854228,0.1961991541233225
0.07338215340616576,0.40939617127035405,0.13629520558807226,0.13825094506295033,0.06007677812235952,0.05593088151791701,0.05008925702646422,0.22986142781614044
0.08723444561617821,0.391151438093359,0.1476510420023096,0.1650429872909658,0.0761932754953322,0.109339826154125,0.08639874028817698,0.22114311835336173
0.07721116180415127,0.3905339823393993,0.1319305027691527,0.17046671995182833,0.0819139010284895,0.10131667064811266,0.08496494211488247,0.22973839721656852
0.07513952790852865,0.38808398334293204,0.12017870454558666,0.12508247893063593,0.0683851483312209,0.05972699151994551,0.05808289610805947,0.23051332561940502
0.06882409664025527,0.4157970137050951,0.10392730586109002,0.09877535076558405,0.0509698451946704,0.026391237033211293,0.020727360196728023,0.23564966092779638
0.0597875733512327,0.3619947266535718,0.10054595009713063,0.08252456573907568,0.04433196991319689,0.023638439311801426,0.018030182183662865,0.2579731444597392
0.06903832374230456,0.38840287683131236,0.1162157579192521,0.13722273426029868,0.07904651074840285,0.08468817796002764,0.08360942358678183,0.2559238765343639
0.07283590960043747,0.3731774180843849,0.11370483441397596,0.14204283515174518,0.07370367167659941,0.07744892714566189,0.07379381637306509,0.2392265581369948
0.06619144487493032,0.3759106386718351,0.1082957357041458,0.108413639811536,0.06272304223832179,0.055605257652845526,0.05649499912627905,0.2361871899840438
0.04940652067966202,0.38707092155969547,0.07990411981450962,0.07125414902957698,0.048757651815893796,0.005997260056153562,0.0027698771844255343,0.23492212619028408
0.031435516614856364,0.3946915076720816,0.05206911182257601,0.01942766907871296,6.399635266900053E-4,-0.023473425664360486,-0.03581994323049493,0.25097505457896696
0.0625918363327478,0.37594542038138384,0.07654407186516349,0.09186750914251965,0.04852722318632324,0.02425311871929662,0.019449993076992578,0.2233923070803951
0.06596758897425777,0.37848238151772723,0.09565573978233854,0.11189818617476313,0.04744950389658051,0.06626008495068166,0.04408076561780654,0.21756293893772544
0.06481928939256024,0.36183606525031486,0.0870505779336529,0.11657515849508342,0.03896483711641383,0.06705713876213427,0.038396788393806586,0.2145606492569613
0.051611083998363665,0.41656802625805145,0.07770916760285362,0.07099771737102895,0.02441053849469558,0.007642647178001366,0.014364907855750154,0.16791285201450637
0.040905582303830054,0.3596632165739949,0.06268541447259485,0.04267973377917858,0.005297090121789731,-0.027177074698735596,-0.0265863088377786,0.15598104949980698
0.0189762532395985,0.3303619824185293,0.030936276999152364,0.006704775635899376,-0.01613108832155951,-0.03353891714338823,-0.03559622040151743,0.17236376057914768
0.051544128586546764,0.3334909657309729,0.07720582416227238,0.09188805908859195,0.042471201138322534,0.038202880428947955,0.02146559234028476,0.2464623064034625
0.051466171739115656,0.3386419497522947,0.08320783735078324,0.09047758934312242,0.051947092521014634,0.046921039906291234,0.029094958565499353,0.22527608981888364
0.042341509625527476,0.31847868705135807,0.06690513508000681,0.06493209711339132,0.0385720757835021,0.027047071951337497,0.013336787931698305,0.2616436083437325
0.029662501807898516,0.36245947241004195,0.057970487864840575,0.034920808902645296,0.00329225266563162,-0.014391669044285387,-0.02641101144082355,0.2719717696775108
0.02582981764329389,0.33505620666632835,0.03165782658522073,0.007672579944564169,0.01037277989078397,-0.03263817892644727,-0.04329360785654089,0.28994918287783245
0.043445923837262486,0.339769360694948,0.07304018029401937,0.0821562275033993,0.021644340662380045,0.02953514850976814,0.01886282397655494,0.21420925597752838
0.04529867945818329,0.3473037403651211,0.07605134491593515,0.07573575535675853,0.028663928902501325,0.01740498007819545,0.022106374221324204,0.24734173229164444
0.04301680781220322,0.38663377583239095,0.05834154520095343,0.05969197748132625,0.028493396825312278,8.08599635614346E-5,-0.005347804621645753,0.24253645146696462
0.040869936255638895,0.3723710209272917,0.04499594817393208,0.014357133452443526,1.6824749660136057E-4,-0.0418120988347767,-0.034746677925080335,0.21448007003228392
0.045110502791953354,0.36533348286268263,0.07522090041494169,0.08543912867720234,0.027673824386558302,0.02340814223348437,0.0120857755269533,0.23478951403504705
0.061937781293132876,0.4005630039088256,0.08926482208409145,0.10327103956371543,0.0371058322822963,0.03176018058983067,0.02821758907625909,0.23642875247996067
0.05931049167082403,0.44614044226328436,0.08523987112118772,0.08700829276024914,0.028788801180207678,0.042170888398595646,0.02272591190588143,0.2783375113809857
0.039269854434076865,0.38287467223630123,0.06765980815268322,0.05626878087699732,0.013762177400050533,-0.012760161205488268,-0.012136366899951283,0.23489400665103916
0.049347497810405164,0.35369101510656525,0.06932292755603507,0.06426003652195686,0.01632778705719907,0.0068529854663324785,-0.008923837236185846,0.21494765301104635
0.061144131061557846,0.3278233304507897,0.10467386317550234,0.11500178137541564,0.045086632143270036,0.06332505566032154,0.031074641258263876,0.25805850020978033
0.06447387279563309,0.33253327604151095,0.10248191618949162,0.1247380923933256,0.0451060633955624,0.060991632836245854,0.03890597294050937,0.2295631623433301
0.06676840531710229,0.34693901404861394,0.10499088486391386,0.096802452274738,0.048254907246469546,0.027242552642934483,0.023371056136193852,0.24915324165214264
0.051180515902601226,0.3616621498078208,0.08430747011083219,0.058671405168984364,0.013672068832539406,-0.006935032455613686,-0.02062752923882681,0.22140379085292392
0.041592429122315505,0.365810376170546,0.07533052964416584,0.07626082064913617,0.02654513621560287,0.01941472557797436,0.005593377291370459,0.25075890094538567
0.07040611443989146,0.3797772453928425,0.11323946110159838,0.12531062947406355,0.03978880070359723,0.07001296153596116,0.05122349792518755,0.2365136568827732
0.06472547976228529,0.3671501055829054,0.12586326451317795,0.13179854655262843,0.06105480141951155,0.050923042189639924,0.05511949257468883,0.26153933168099297
0.06527056548644702,0.3365630297345652,0.10551685805443393,0.09702805703247912,0.0411245241258233,0.03163454045398467,0.02340887327823591,0.2513131660832293
0.04571284830603357,0.3598042958311066,0.07984312443170433,0.06220230235972697,0.012598197618297207,0.004751186272579965,0.008386277520906723,0.251727934767901
0.03305872176864494,0.274329995067803,0.05798223759410594,0.02287208489240728,-0.002355593862183058,-0.02483505151466676,-0.03280040010684346,0.23442170421924077
0.04237349557046746,0.37586902084965895,0.09181057934649317,0.09864008914911825,0.03178590218193187,0.03837840210541362,0.024819982498238614,0.25273582911023473
0.04918787183566449,0.3466775642887817,0.10584684823256307,0.10124808499286155,0.039868567034160515,0.0463249816535041,0.029608377501278236,0.2345623229041288
0.043182263415886726,0.31443283445668024,0.0908997575628033,0.08841462297752757,0.02710046837935343,0.027949715315617317,0.03715630909610456,0.29311624141442905
0.03196463943787037,0.3467439022115194,0.0657804007791703,0.04872516203104167,0.00356705505525382,-0.005008036010338611,-0.008633439127204916,0.2543939228627331
0.022964487367399013,0.3031876893989611,0.06357026909624933,0.05304235414518362,0.001057481463967493,-0.004752291942949157,-0.010148190481158718,0.2339559804689602
0.04721046205754778,0.29866766821200763,0.10220985557225985,0.10547822870584261,0.01673106729170169,0.04221437324713603,0.04864939159385456,0.25116023675633603
0.04705330934903977,0.3458996757165972,0.0971684510394566,0.10188193268465612,0.029279733012209517,0.04629813462613783,0.04851248861822093,0.2534233105226724
0.04561046694331634,0.32464045593638124,0.08144359173777294,0.07413570438027717,0.009597965615311352,0.017012492186614152,0.01738431930842518,0.2559008757772393
0.023712686519544206,0.3351144943585066,0.06654554747922069,0.04105678434930563,0.004972338107591649,-0.027203480012792103,-0.02727816135299663,0.26277673451551253
0.028347402393810082,0.30622585615543946,0.07462967073522385,0.057405670520899885,-0.0014311450278078706,0.002089296340207941,0.002945020958803772,0.21537836482797026
0.04246983640444459,0.3373277816075595,0.10325494304082113,0.11048445378125091,0.03303251747628641,0.05858539043860413,0.05350386748842605,0.2885204997529857
0.04396161957871457,0.3249260322392702,0.09517969528445515,0.10415089464972352,0.03283904361650684,0.04863339730725831,0.056309320539020664,0.24661364637663957
0.03481755630232744,0.3453310682610794,0.08371946348054711,0.09407872870048606,0.024663228701415657,0.03265002699837653,0.025766199894216208,0.24922954622236804
0.033087569432850975,0.3194882723889335,0.07124988720618045,0.0625167631330033,0.009163205812676961,-0.011018318478527566,-0.0019709198075620396,0.23245126049745923
0.02899946547271414,0.29258146375847194,0.06694345342202758,0.05876486140744683,0.018016280878335754,0.003890233787479435,0.011234053395059698,0.22240628850448285
0.03778672937996415,0.30985452754957254,0.09715873197908194,0.11619258396378461,0.036101724748103664,0.06266212042012853,0.06871589028580322,0.2630066633737075
0.04190294200240366,0.35599109264112705,0.11010520957668127,0.11314687258250797,0.03889873052315712,0.06536783577307197,0.07176406620549874,0.2548154059736377
0.04597000926809299,0.32638294303938153,0.09102592721756211,0.10617288022979442,0.02993386698617255,0.032524669497297425,0.04253628152618842,0.25655575888371873
0.024354892468861633,0.289111059467263,0.07466042071239185,0.06569368008526723,0.019859878537571526,0.022942211962154714,0.012090782669700838,0.21972673371786394
0.030885142532704364,0.29708396915021873,0.05828338955929731,0.06098779413975337,0.013770690392206532,0.016297988871595396,0.007231298923780218,0.23845794941249265
0.03942281817703348,0.3151392974930717,0.09610467724711312,0.11364846346907118,0.05489512236464225,0.08146705320316634,0.057326635596942684,0.26116627952563887
0.03229266476993873,0.30880664060108787,0.1028490825602655,0.11749523741763632,0.0348142785635942,0.06166334399864038,0.04731514331864664,0.24856927800602716
0.03129126464512003,0.31848870271336,0.09042389349850986,0.10077965869564146,0.02895641321838491,0.044115749540167684,0.028623113778541945,0.22234043254574978
0.028926270333506122,0.2985403133855794,0.07434368771909126,0.0753048638025418,0.025392452076849287,0.015499157513012767,0.0032176865902817705,0.2382895494636828
0.0068313027338313195,0.29672958930354254,0.059963378630274664,0.03458633926842355,-3.446173344944999E-4,-0.018861494305553495,-0.023941408946129783,0.20765884868683707
0.034690264860956915,0.298897953705638,0.09864410982235923,0.10429383492446881,0.03481769892542516,0.06262212547021054,0.05550189862761888,0.21897815283550265
0.03938032599167681,0.2825216879149878,0.09036876507557809,0.11634906869947015,0.03319079630887572,0.05811028951898166,0.04608244119877181,0.19842775510583224
0.03035418416545963,0.2989738946439446,0.0946299480784574,0.10157828042088239,0.02863194507730474,0.042238460758066476,0.03667312723512331,0.2331156561689067
0.025969598677107665,0.26685221309724516,0.07654326515553979,0.07746788204279936,0.010615724820883465,0.017423249868455008,0.011625884284334233,0.23296574291168706
0.009145866034352954,0.24354800167932733,0.04951706627217102,0.025960252155834168,-0.006673974913059213,-0.007544091414765761,-0.017251333011427672,0.22829969041655818
0.027290189889587008,0.3135915441617412,0.0842211625340085,0.08196429805356592,0.043195731725430155,0.053705232244631806,0.04222038194219894,0.24566461948655768
0.03158355952699026,0.3243170574396677,0.09271813917409429,0.10936282792134053,0.03495369842985195,0.07157158957474112,0.05909292141239431,0.274854674783769
0.02648764993166272,0.31123418322321783,0.08687371956728106,0.09895491083341404,0.04341662405183935,0.06773757306463421,0.05661221196975216,0.25088505739567774
0.018189243147452412,0.2664384859331502,0.07182405306122187,0.07493570416342968,0.021992782672128182,0.020209709754718495,0.017590349946251905,0.269996651706069
0.013736894271642035,0.27816987514006897,0.0542388688523131,0.04543965085812175,0.021351745552422197,-0.00674395949662456,-0.020269100382971035,0.23631181000694623
0.016317967472805846,0.3094202125968971,0.06558381120309725,0.08239837873139819,0.018892803651907496,0.02826016957092227,0.022860152630112526,0.2533729161967798
0.03486002390384878,0.3237244322568821,0.09336870777191333,0.10592195393340832,0.03907608375406271,0.06659051158661702,0.05142495606015865,0.2579949092562354
0.017986311417223504,0.297151080301513,0.09301518149353102,0.10117405735466793,0.02744753656033576,0.059028690676663165,0.06327381408720698,0.259284931907394
0.018425156981614565,0.2912813158327371,0.06372841428456105,0.07083711051869498,0.011949124756331793,0.01799025676889436,0.01906542892907992,0.21693490641067964
0.00690695449934621,0.29036098719785675,0.059578717015877136,0.04296917020776203,0.00692948065928155,-9.421798802890561E-4,-0.00463801865661654,0.24077760850307908
0.03216744854239734,0.33016194882997096,0.09730924522477512,0.11760787165564697,0.039428060409254395,0.06597916774645882,0.06060674906647924,0.26349727507716236
0.019119975514022614,0.29236423516534604,0.09585010965234349,0.10986943966062418,0.04480037916634965,0.06561863363374408,0.054754005122512786,0.2728599275398988
0.013984423835944101,0.2699206719655066,0.07621462423280341,0.09337981271949121,0.030672188988186088,0.05483120879848261,0.0443922864055254,0.24103522823527235
0.0124823882051067,0.26900000842706273,0.05594540680591105,0.06632549814942462,-0.0026783461656122195,0.005788740604028198,4.776846829664741E-4,0.20243081329181056
0.004689703887057417,0.2558964803913446,0.06680993900715046,0.05637809753150856,0.01007772683924705,0.010398242763307666,-2.317164414412584E-5,0.2439840267825845
0.02656158942257371,0.3012231732531085,0.09857748156715065,0.10878489195350352,0.0419532142547714,0.08278117735334295,0.07381629017732554,0.23383107552271112
0.0355157206914207,0.258527145882256,0.10127402108569727,0.12468810716162598,0.05645137415128964,0.06972937750264373,0.05394099189837634,0.28431155667780994
0.032831743432067156,0.25998275692048556,0.08945757988423743,0.09156322313871539,0.02432632887029086,0.04977841901900922,0.044496805836633825,0.23105757828801263
0.0067294559050570385,0.27502481087690445,0.054610232108242535,0.0697917165086935,0.01422340622631511,0.019279066567990256,0.00546978870450061,0.19161217534727862
-0.004991766822490577,0.2501463155224697,0.05002054903407901,0.03569020597727811,-0.009748875411576246,-0.01856198305233883,-0.01580289942434509,0.20031523807490553
0.023159826143845458,0.2742408835009732,0.09215945072414392,0.10741939862845686,0.03125226323793968,0.06865285789235102,0.053275794122229055,0.24812395385009092
0.03366352703629652,0.3124022237735692,0.0889119658642262,0.10806380155832256,0.04502311286868924,0.06727912318697188,0.06379684031749616,0.23879215993842645
0.024696784210493178,0.2795579430442882,0.07884746808549906,0.10392488772260634,0.03840606124025663,0.055265923934371596,0.02694680051001873,0.184172117302177
0.013084418902336865,0.2792823987551166,0.06308700303655898,0.06137896378003313,0.011019363437666607,0.011368394148122175,0.020783401635218426,0.22640036365091704
0.008788672457804195,0.2687901595029548,0.04207896576388909,0.05064740340343657,0.012590248233631883,0.007691875248201153,0.0020767774702204365,0.26008036728731615
0.01909361662803323,0.26344810591807966,0.08418298739679854,0.09735693320991136,0.05352642371055484,0.07195122636995031,0.0553686933597709,0.2178871494212428
0.031207171198812826,0.29049996710467446,0.0627832619394926,0.08156113945516727,0.029773211805508584,0.047106492162509346,0.04371010049247896,0.2530393898572181
0.006493791410691764,0.27753949473267286,0.0613768606306701,0.06271665261589424,0.017478937597530057,0.034904819527919205,0.011832862774153687,0.20250769784110326
-0.0037890941670670752,0.24388135078734685,0.038887411052922684,0.01830753944677381,-8.360223514471514E-4,-0.008777626203461864,-0.017031630106200884,0.24749733177451116
0.01258955373634204,0.2907193824237803,0.04267530169457562,0.04733150939499188,0.004769561944284675,0.024481573843547058,0.014083474447638779,0.23937231435993084
0.020285702293400626,0.28088553383996007,0.076582557014128,0.08999009707633744,0.0213931236339812,0.05330742539612762,0.03615867405183489,0.24857497050186128
0.02031907568718662,0.293134870489713,0.07030264603430673,0.0760921478788606,0.019540330720935167,0.04624490002149341,0.049206103352290476,0.21789552851892346
0.0018001214999050497,0.20969260940453927,0.04652970514491526,0.05083842142995326,0.009039022459343496,0.0013017298184773225,0.007306201992040521,0.22551701911884703
-0.010290797058695643,0.2161091083560413,0.027120640211912392,0.011215311445078271,-0.011478654978942966,-0.0201611490535125,-0.018244166684789117,0.21479211095389242
0.013875112790652913,0.24156399891227864,0.06812862131044067,0.07161985455181617,0.02232264186327319,0.055160366926782216,0.040319968781082044,0.21079980481736557
0.01738500077235787,0.21086684086425972,0.062513785392699,0.09133357198658101,0.03292091031806122,0.06642079406958058,0.05898929144901822,0.20615342694495994
0.011036668934915304,0.24150619902152687,0.0651996189131007,0.07902305150935617,0.022015337514275837,0.04823848596886055,0.035485307048423995,0.2361216429100044
0.009040698525520321,0.24922412905159294,0.04937558796562399,0.03693663835727354,0.017284521956238107,0.02783183749228614,0.012026578180750314,0.2203701737199317
-0.004234492772907092,0.2608731610018781,0.025995103020691208,0.00932975487079507,-0.03146278860020108,-0.016772755652217433,-0.020206429814852468,0.20679507112400128
0.0025501849909886215,0.25350234306527436,0.039249125572089816,0.02782111465704569,-0.0017500521879607067,0.012051424714675747,-0.0038884955406297914,0.2356667319279107
0.014329898792360032,0.25213182090583064,0.057837942400615155,0.07201559405356855,0.01102901390773312,0.05046384680266385,0.04596654740213555,0.2114185203925099
0.011170499157116542,0.2273874044318695,0.058520150621596045,0.06941231794126543,0.01671053227122195,0.04196264502235097,0.03525711758041172,0.22394372295416684
-6.96629120107442E-4,0.2890744773683962,0.037855507625278326,0.028001668640112956,0.01305365985803652,0.009017622023557709,0.00657814301493691,0.22657505544465667
-0.020506245300538233,0.2514060014372642,0.013699540255845046,-0.011122191698907213,-0.0229725377236824,-0.010734375905440942,-0.023534236369923665,0.26580249348980756
-0.024220814654561662,0.21699891726499929,0.003321425538878854,-0.016921408002929753,-0.0076206169505215055,-0.021495306728336647,-0.026801964711407736,0.18541418330391424
-0.00865045445832422,0.24170839231385857,0.03382924559737831,0.04668668753938157,3.420608479776325E-4,0.04301067769020554,0.015008553318945666,0.2021202891383166
-0.005510287878019354,0.24217227661768703,0.03757733636245689,0.03858339751686224,-9.915716221945373E-4,0.034357655215668845,0.018939403107265135,0.23741172525639925
-0.011567332145725709,0.26136296847232365,0.025264021106103724,0.006971136000917477,-0.008458209117978871,0.007651434280916148,-0.004011018867528185,0.20355874409151747
-0.02501536545822524,0.2417010457832009,0.002771676927787646,-0.03252967648711504,-0.01994831903510886,-0.03321921912891115,-0.027280673784851342,0.21079881037792886
-0.016371328982804106,0.22946557980207882,0.007347583540175853,-0.01086278814360292,-0.01530555353293852,-0.007362665812644704,-0.025230074659008877,0.16366299920831795
-0.017668970494022995,0.19791679537801268,0.017601536467518577,0.019354873020262675,0.006701495690521439,0.03199623421622451,0.0183886125666343,0.18070565106191855
-0.011947942030926903,0.2133140713986972,0.02699291462807071,0.022603651459630003,0.004099884498777475,0.027033050357507957,0.024558463705476787,0.21102055275933573
-0.0176764198210927,0.2129997514894387,0.005590111485365801,-0.024209799322796127,-0.013505196891607014,0.003190277934127016,-0.01405978482741528,0.20065759032037528
-0.03510047099447869,0.22332044907414425,-0.021174348945407605,-0.05379901770786895,-0.03650524871731521,-0.05272550564544221,-0.0672779160830741,0.17880528366759038
-0.023451907869093756,0.179030754655209,0.024516201040970853,0.011715289674079837,-0.005460004521137938,0.030696264919241687,0.0048654654279470765,0.18765906300399138
-0.010903118864732143,0.20780349590919805,0.01865498747724348,0.036205404104570515,0.010501727393814872,0.04908331650087651,0.030062575306941446,0.22255472478032767
-0.013391552338172658,0.2833315511576807,0.018500524574397145,0.02211760163732826,0.004600311114425831,0.024714240705766267,0.015543339292035364,0.22963469284852683
-0.02102351638333058,0.25634459009830424,0.010210279902310486,-0.00718902230226158,0.004355002707189741,-0.008987289020462861,-0.006056930211551206,0.19144909633314577
-0.037264549612766734,0.22342505190054338,-0.009406689728948349,-0.031676062731906644,-0.029521945697673312,-0.02769670470085101,-0.0392045677635753,0.1934819147731877
-0.016231076419590283,0.24830306341987232,0.023708025394155282,0.03393667617045566,0.01655913087765584,0.02669839128980385,0.03298764105085812,0.206167566406245
-0.010679688848817856,0.257311351843416,0.02825071305103069,0.028468064089072376,0.0082444968841781,0.04507453855006636,0.023107090687156474,0.21561929590008508
-0.016141427591924357,0.2409840542736145,0.015035701024182023,0.02238504545665812,-0.00418953949199922,0.024409614171837346,0.011800470658713513,0.21050064601480603
-0.024693059174920942,0.21389106374744346,-0.007806839545533989,-0.008860950312488416,-0.0010353789592108071,-0.007621247329436073,-0.007277039026991623,0.22959357169100086
-0.03548343431399732,0.23237840293560239,0.011547398788464176,-0.008617056826409106,-4.280332090898734E-4,-0.0017790997942568696,-0.01157145535297846,0.21470417614356416
-0.015743794894495025,0.2578703229058751,0.0065661275789380275,0.03497861144283769,0.012000829147845544,0.046246048071106785,0.028234483330347282,0.1898946333864793
-0.014138454608394004,0.23774392091142063,0.019615706585329035,0.030233344040346624,0.022381541274741738,0.02619342650425707,0.035638331171105465,0.21238949490020678
-0.029425875050555432,0.22118383929616853,0.014821046425651605,3.1027480503738325E-4,0.0146765390401013,0.006526526665148266,0.007190318882410942,0.22223733821530944
-0.03631140374548096,0.2598669951169,-0.013761040943968425,-0.018531914107445077,-0.014565341522135731,-0.011699423678125943,-0.015480338055501378,0.229866668250235
-0.02335568857541534,0.21581037847365156,0.0198643374060679,0.027016169241595014,0.029241587423264038,0.05757881420619724,0.041099808039285736,0.19200976652521412
-0.014661229059183913,0.20829214305051208,0.04021739366195171,0.0331825997605473,0.03805015438521369,0.054899138314869735,0.04527314852405767,0.1986927246682959
-0.020182317633141773,0.23728895735942415,0.028707483928587484,0.02322745765207425,0.029680797298748902,0.036942779267640884,0.02763157662581519,0.23377871381603055
-0.017712161193326616,0.24399063364762955,0.0023961805327788327,0.005928370715441902,0.01285012774812205,0.011709229424299795,-0.0073965892581379505,0.19456264141952784
-0.014221132795545925,0.24685087463740057,0.016566064552759635,0.006564739353175933,0.017137494178231346,0.020282501748523217,0.006394076314673751,0.2267225464146518
-0.009759221066777651,0.22465983171473616,0.047360317891674227,0.05771647421952229,0.0431432965270494,0.07246724384409406,0.0644234533121638,0.21526526919890882
-0.005238489604106077,0.23958178504003597,0.05537746197727621,0.057048347538392316,0.0239735494347402,0.07368163868154917,0.05274470662113358,0.2635688694011608
-0.00489525522219534,0.2615024305046406,0.04076309600764594,0.04006503050064954,0.01789730499253584,0.043791820304383514,0.027407244559117916,0.23880016103461557
-0.015843336136676787,0.2593364532308339,0.02672055894108524,0.011161224499903852,6.220998417552203E-4,0.007059085169226876,0.006755450235121176,0.25119364873868155
-0.015233271083246201,0.2800051226906951,0.0379193809214205,0.051092356740869815,0.021666335627285628,0.046026225477042326,0.03131561765316408,0.2410257830392707
0.00390991162067128,0.24256923593563218,0.06138436241441944,0.07262585196582046,0.033107305206208616,0.06764024276096914,0.06255167685653246,0.22193574049067852
-0.0034934237741550134,0.25420810440454544,0.05007109126119476,0.0724894932635388,0.027103537476215103,0.07216042712560526,0.04610954471418262,0.25553236217176367
-0.009863128645074,0.25535947240158974,0.038894245556527735,0.04351543491804177,0.028237228509059728,0.037909939423973485,0.02560873158377166,0.24796776586977684
-0.010910831868359963,0.24671409768100075,0.029786491810712953,0.026189614739413863,0.01202562352708949,0.021702325971488787,0.01948977075394167,0.24006669200052272
0.0021476072622970965,0.2513464735097808,0.0629403918717349,0.07151427616617258,0.04965941104657418,0.09048665184194768,0.06394345302939283,0.19940984696868053
0.0025314470541747958,0.2510449407260778,0.05920877280356922,0.087597121887935,0.029874209122224396,0.07934650388809009,0.06304776659562095,0.25177856890975386
0.0015446721200517155,0.23291419777434308,0.05325172887425757,0.06169750305469161,0.0348056973371686,0.07013553979263838,0.04694601159452183,0.19922034166644834
-0.01689993762344926,0.25440676094643744,0.04147546591492132,0.037624711316023365,0.028019585877693296,0.029459747826439613,0.02321301644540549,0.20819152982275985
-0.01377994772222934,0.2870698590187634,0.03855476829188481,0.05126166552695874,0.020980459489506397,0.032741841332906,0.03534172207182891,0.253812637732695
0.010052925377655841,0.2730436273771384,0.06196687284095918,0.08984415293506966,0.050821507902876824,0.09309231721100612,0.07431956246274381,0.27189645213529284
0.0038080925065737473,0.22577288467447496,0.07226934145390665,0.07519575890699504,0.03787325656993486,0.08739289686990095,0.06296573768824842,0.21564160216999173
-0.008366253596540786,0.237464680966832,0.05726592960862857,0.06146174216548056,0.03152365024546754,0.07053472605556482,0.046052521267541356,0.2169657692183971
-0.005510602851850677,0.27137715848289207,0.04102471561551248,0.03484516224412704,0.027320221149533634,0.034228961433140664,0.027327528612802462,0.21695901306527487
-0.016919181336066742,0.288425073000099,0.029234128924062176,0.028576637076081227,0.0016900584625621703,0.029863610903009298,0.010100451331511162,0.2556351786207258
0.002651697827128416,0.2841790916442536,0.05876997381928484,0.09513684455254753,0.038477501856907896,0.07685170708288054,0.0714118394014394,0.1980950165469373
-0.004615139145293601,0.201665636360009,0.05369983864566319,0.08329563127389737,0.04086503997647516,0.08045088150264962,0.06982398983139541,0.20092132316234898
-0.004102734198423753,0.22229750023652584,0.04817770013826247,0.05474891368967587,0.023529411297501586,0.06466521276978598,0.04557897535161118,0.16196040733748818
-0.01973502103411269,0.2571516899223042,0.022999655337893835,0.031905506986063856,0.019614823282018794,0.029387063109562246,0.019724789757615727,0.2173842531501704
-0.023424551513251908,0.30589769703205183,0.011911757893784812,-0.010409205884721703,2.0680410776317566E-4,-0.003988068024479043,-2.788469858761092E-4,0.18253636130510834
-0.0018739136430962061,0.2929121311902055,0.038135149670830565,0.05109019232192635,0.030290819476702178,0.06690317351192071,0.046609130492094,0.1883376080858169
-0.019797479542355147,0.26704683644981786,0.03560594721715352,0.04779574180539772,0.022145438739250827,0.05648871011260709,0.040510084937626374,0.12134714986466955
-0.013923112635364908,0.21232874236000499,0.019516633306519808,0.033268465124749,0.012724012395435394,0.04031322749251547,0.021247255549890768,0.15019346495613672
-0.02970282597649755,0.22815607003271904,-4.5746395379537425E-4,-0.004538790259943304,-0.006711024934593707,0.00832019071774055,-0.00337276641627377,0.13108432277429566
-0.020088981486881173,0.28214267638099233,0.019303384518807254,0.015182253900124523,-1.5714917524372284E-4,0.009606398320925939,0.00359950704521181,0.11821327560339549
-0.012346518123968482,0.3047990616570318,0.03754800799785081,0.04224453803356809,0.004041619773015669,0.04491353483437767,0.02543600097176254,0.11923333950780868
-0.017607819235821408,0.29812431834429304,0.029921614074076924,0.035614356205152325,0.00330890947889725,0.04036216498105666,0.03104538044297349,0.06914048751713882
-0.03564690851078581,0.2783300185176195,-0.0017138810350478713,0.008954779898525361,-0.023998547981634342,0.0051526921785233475,-0.013636443619457976,0.008381396647974274
-0.04001215775100505,0.3353432327139665,-0.006247752841334771,-0.012602448307323481,-0.03336377042468626,-0.011777680649561157,-0.042737482400246524,0.06093618621066143
-0.006607090159869294,0.40109679285112176,0.039996418442493326,0.05196895199258511,0.0060059103268611125,0.055329275732540775,0.03721569602756084,0.14745886688415735
0.0015792529850833167,0.3920171128417602,0.048420099038008674,0.04537818440467324,0.013714282118018043,0.06148742959608698,0.047341844457164384,0.0788990657660237
-0.006149964012015785,0.36560810251580733,0.036275796511232576,0.03796071946546492,0.00943296064852515,0.054020806372322414,0.038025567818986375,0.10974152356192562
-0.00839701748618455,0.33455352136434663,0.029737470067615436,0.017393238041755243,6.530297101040175E-4,0.016190921470256078,0.01002408200444311,0.08007283904425178
-0.0246152853115567,0.3659862757664978,7.916525823207273E-4,-0.02576545321810158,-0.01424475670685898,-0.015060569411955622,-0.01228827373806152,0.11556837875257407
0.0030104952948382113,0.39839995376159454,0.04726894577339663,0.04853825513414578,0.00972336731135024,0.06362313172849447,0.04659870082956427,0.16906720474334322
0.004195502359004524,0.3917837973094175,0.055498658103394924,0.05071967699067094,0.030999682656504487,0.07035190459319676,0.046651658463627135,0.08570115953959859
0.008376824891818874,0.3640700747817859,0.042416770864622075,0.035597488042334174,0.01891233331355335,0.05150697465985902,0.028327937755198172,0.10007204233603431
-0.018824351511716318,0.3486784661729977,0.02661908786552885,0.018959410744647992,-0.008215160029747863,0.014307912300182623,-0.004119179012213019,0.08007328314874332
-0.01233999078555019,0.38725185603569157,0.021112718640069014,0.02446609024816985,2.1952536375076772E-4,0.0405913248635556,0.037703459820036915,0.13137291251911837
0.0022525390156119887,0.42978538916243086,0.06830017777366482,0.05265223265524789,0.03501795952307922,0.08011809767907425,0.061670345807867614,0.14211934253823927
0.0020479756588179243,0.41951317170506086,0.05655021547981841,0.07091037108737984,0.004398042769211569,0.05550438510548404,0.058637284026271344,0.11139970700034506
8.671028989795243E-4,0.38837427027400895,0.036992803017455646,0.030544951442630336,0.008716146081257559,0.040547926983016486,0.023194677536260644,0.05670498536072438
-0.006092988378906095,0.3956246975004321,0.02506113177222634,0.021417073953560115,-0.009756051981291298,0.010952492640683527,0.009541177993240429,0.07009147064060323
0.009302568173399417,0.41408478154239226,0.06736775833218314,0.06679406710681068,0.021497355263973013,0.08493979646797602,0.07772172435374142,0.11714270014786579
0.022442537124214262,0.4340867162379939,0.06432146445962804,0.06618361595582681,0.02983653945450018,0.08839728300006469,0.08143066396170312,0.08994161689949765
0.010375214315085549,0.399184649983218,0.05482797588657473,0.05497861549808784,0.03862878163617561,0.07536656099106884,0.05859536157467236,0.056931107180808585
0.0029302926222182987,0.3543771389584669,0.03703736549346036,0.0244510338519663,0.004840590029598707,0.049191082820300894,0.03487775578352705,0.06584616571288074
-0.018961507364493556,0.3833446369844744,0.016739353495312193,-0.0022902518379649406,-0.014436901847931177,0.010154453740737611,0.008524499728397755,0.06405476835231988
-0.0024565949190303027,0.3947430357925188,0.048525404902871216,0.04422029872067733,0.004603451723122474,0.062113363026838814,0.04679582494301866,0.12483066326557052
0.017109844244015432,0.4157540779709319,0.06107531786296956,0.06013450674232615,0.027484690744886003,0.09175934930581292,0.06549725223569614,0.11466747106633156
0.0014802510015918258,0.4108324824480438,0.0648173223646563,0.061791622376349525,0.025052063622520715,0.06941144200413787,0.052714222540308706,0.12354896027233794
-0.006230245444356679,0.39459265738296334,0.04700498303365313,0.04818844966086838,0.0020356238902607604,0.04697641247312453,0.025728449982901743,0.08634413956445777
-0.011763681520678297,0.38356278461483945,0.02270219733429423,0.006667708152170118,-0.008062109917943067,0.016660275602855615,-0.004526673923748977,0.10108112858121475
-0.00822089222333195,0.3669312555834655,0.019823999977785015,-0.004707272387757096,-0.026965763655307957,0.011588193111697334,0.005806267242690783,0.11373711172504394
-0.00212993192877145,0.3892295552862378,0.052791402293037526,0.04414525199632763,-0.0022465573155893695,0.05909250630745852,0.04314136852029235,0.11481477707183226
-0.0014317366583694938,0.40234011016412696,0.04701194373720568,0.04676997744854304,-0.006776494274162034,0.05537250060631326,0.04898058378266187,0.12869569408823495
-0.0037339011085030654,0.35318508997192005,0.040004377339734984,0.029197043317245194,-0.0047765869465088515,0.02358487322965959,0.024687388728099873,0.08923654064440002
-0.013652620365193071,0.34375738064345807,0.0010240200388758397,-0.00286643233853906,-0.01171799214777464,7.279344766328748E-4,-0.0050341124630414215,0.09295471957764422
-0.018471797188646284,0.3559356401357938,0.008807988863020044,-0.015239971755863682,-0.03323158036870895,-0.014760826279909385,-0.007820181909644931,0.10369684030394047
-0.0013824659639303932,0.3777001286201662,0.04230323404385174,0.04231905919873624,0.012783390891622334,0.05476516122374046,0.04831560127865885,0.0850935163631423
-0.010796737417783628,0.37809732906155347,0.03997520985638258,0.04135986273052501,0.013488129501575585,0.05635298385687087,0.04007963261033199,0.10513137085757326
-0.0043940074456407865,0.33966491607787447,0.02675452695636763,0.02542251561090439,-0.00510275395528852,0.038943571302792745,0.03208382450878525,0.13873738190365095
-0.011042788781449958,0.3186840647886454,-0.010652503427539602,-0.02021527783460677,-0.014853018772301777,-5.793040278817031E-4,0.00272441863405121,0.1204749368037147
-0.026628908591699203,0.3078244524096912,-0.009537240072294456,-0.05121787832240185,-0.03376798163621256,-0.022382062619419017,-0.03319605696333114,0.0913133616128405
-0.007671792281560286,0.3518711772832163,0.01415665083234281,-0.003979603223383893,-0.014514202956125544,0.016869103620758812,0.011404529383557575,0.16503434475463105
-0.008414345829410239,0.340951133189743,0.034443644633645076,0.04116342682695773,0.0019112605250614799,0.060330721598909454,0.056697387404951734,0.16604741571366402
-0.005604551309363236,0.3810104563153627,0.029456926227677573,0.04231656569282173,0.003075160808301582,0.0631981919615231,0.05108594539055581,0.149683957448728
-0.011712354847211205,0.35261140461645957,0.009834283375891949,0.009883771256300244,7.332116497593948E-5,0.03186355292954589,0.023654107530220445,0.15583573292247582
-0.026819542803879916,0.37515449540448587,-0.01968955415318021,-0.02575699508357679,-0.027126236637525697,2.8754802132546786E-4,-0.008799155144115528,0.14204968565872123
-0.0314403260429632,0.35711945157377706,-0.03681817518008376,-0.07814821760952904,-0.05326311279112119,-0.0346089776037759,-0.05300280616327414,0.04064709790820386
-0.024400925475581856,0.3812540127337407,0.005417034091654114,-0.001254914780522684,-0.01001687099083129,0.025224285857177245,0.023738725022103325,0.11633326120726073
-0.020454670388743667,0.3702719941045069,0.0053868493669868515,0.00932807688118488,0.0015683939906902702,0.039089109524899704,0.026376123801879148,0.15395830474388728
-0.026851030591588332,0.3652810422349996,-0.008096506089944498,7.393500228763672E-4,0.004941648961643681,0.028963965594562588,0.0179120934240974,0.16500785813337
-0.02683419937365364,0.30183641566659575,-0.018060996829781656,-0.028321763858740273,-0.009460470135295456,-0.004818276277465143,-0.012137666688316541,0.13756335755663102
-0.050119887715768835,0.23638875821413538,-0.05523959035559871,-0.08211118448714404,-0.0490867667593316,-0.04830729910759994,-0.04456603169880123,0.12346932393986396
-0.03090379493569342,0.28699019995450803,-0.03302338991682792,-0.05785002731334053,-0.028433706295265825,-0.005935001942797089,-0.005669438023592457,0.17999451136446376
-0.015540955364547603,0.2547044725945043,-0.006947641936617767,-0.016113258410111533,-0.019275047833915676,0.012733765101959019,0.010806391072480295,0.2086859446737831
-0.03381413205512676,0.2260233775250176,-0.03031100703077072,-0.02138291460716199,0.001719430613055602,-0.0016662174915034714,0.00937061813462957,0.1659610291091882
-0.05486959703093437,0.24882433447058822,-0.03649130308605046,-0.0777893250732329,-0.0366360309238239,-0.03260496838679852,-0.035508058434659345,0.14998829655800583
-0.05359111825514528,0.26368703867381926,-0.06714574526931708,-0.1170384083906392,-0.06542141017787044,-0.07656405825178782,-0.08798368415600152,0.1463822679287682
-0.04456686274831486,0.2515242902237942,-0.06059484815812407,-0.08848835773422298,-0.042120913263073226,-0.023946540363103258,-0.03828400773836167,0.17588283758588646
-0.02035231535512022,0.2681271422459661,-0.019489988202635145,-0.026034115949836623,-0.019744510965482884,0.021494810874562557,-0.0026113170111043034,0.18724076419573094
-0.0412762516802053,0.19879131060870725,-0.024588991021224315,-0.026658363306703584,-0.014410705035507496,0.012616906069414223,0.003976269412055318,0.14437092011320418
-0.04146795714708117,0.1530798839114134,-0.0488830547776973,-0.05063728360098445,-0.014886907150022534,-0.03285215416134358,-0.031507886265814584,0.12247501469209911
-0.041006880207543304,0.1999847947353233,-0.07661165596377681,-0.10057673690474467,-0.04398782512686069,-0.06260437886186154,-0.0619650442220087,0.17117929218404343
-0.06635720232380843,0.2182861100847858,-0.09566410273257973,-0.13759988436007384,-0.059485454896034934,-0.09549071322992357,-0.08634646078216103,0.17078920234563333
-0.03172603141859624,0.2694772356884384,-0.03002106509637162,-0.04609075028584515,-0.028421149898800794,-0.0036350303625826436,-0.014260325942653626,0.16447562384137004
-0.03279747314069875,0.27900543412984946,-0.033883579901490046,-0.02411083136782298,-0.006585145470939639,0.014885580676676322,-0.014103715004544666,0.19368153169613261
-0.019096753669126134,0.26069433950418797,-0.041576444014084474,-0.03586759416834015,-0.018960407757802687,-0.009676558432447814,-0.026014932359921597,0.13922894309299827
-0.04783267072858206,0.24912703319393018,-0.062041034694447716,-0.08704502148377122,-0.02366968943618234,-0.05467568512422952,-0.06384376160197737,0.1845057280687579
-0.06129687330258819,0.25526704345798434,-0.08871396537928486,-0.11802677339889325,-0.07732390612830482,-0.08279168661632838,-0.07815580937461411,0.12010814726139137
-0.044387091079503616,0.21784336823351727,-0.0859683711245235,-0.09455521335410265,-0.056231385569573716,-0.07359604636437307,-0.07418091671169354,0.15465979938860003
-0.04054227731281519,0.21146549465038195,-0.04355220259638887,-0.03933411556282314,-0.02686816165577353,-0.016266653233416275,-0.023074977881448477,0.1698265153256464
-0.03807430489606246,0.2386163276130926,-0.041636449272176516,-0.04163163637197377,-0.0358579740492944,-0.019849104820099543,-0.019219003600391676,0.1394719742043413
-0.03749311385903838,0.2522424151236722,-0.06427389411867801,-0.06558105189465183,-0.03956938334873744,-0.03951992772552875,-0.045931674388957205,0.12086920298588351
-0.06498770301385537,0.19896078747011564,-0.07763126967349177,-0.12618645200990708,-0.04911878733683597,-0.07598823980273536,-0.09199920914074752,0.17790488365195123
-0.047780967678556406,0.19998843640683722,-0.06541378313888582,-0.08011433634688146,-0.03162694358398166,-0.04346404142185828,-0.059831364672559784,0.1623819312515179
-0.046366752121923274,0.2072019268219858,-0.03895593991084345,-0.03062456916286748,-0.0065499770252610175,-0.007977073808972206,-0.022314607155321443,0.17209223072435653
-0.045212940669368665,0.2446617422271053,-0.039763491193565544,-0.03821473407627787,-0.02693729195582036,-0.02545058850963538,-0.021023916118369623,0.1116737302492809
-0.049670128569024904,0.22302522431629462,-0.06089292384100061,-0.07095519927436508,-0.05139921132030909,-0.045778043217493784,-0.06032166513464445,0.15300068160291844
-0.06430376586417315,0.1997127271897048,-0.0801585085743915,-0.11069498181686063,-0.0768846543110504,-0.07694443526102403,-0.10480328115235187,0.09720786900273394
-0.06514553800585805,0.22767160984420043,-0.07081257565979776,-0.07134702098630376,-0.0502823610325265,-0.042787187796520236,-0.055544582383607266,0.12070150105172975
-0.03810207518465837,0.23774462931770557,-0.02020575965467769,-0.023795138689690166,-0.01109841929717313,0.011266996384207167,-0.00810347998290182,0.1663750780640358
-0.03461017862435217,0.2699307632056872,-0.032703049662493065,-0.024171709692359197,-0.011470757812433065,0.004155382367247138,-0.013749661242174915,0.18824317106652683
-0.02942098948694841,0.26296799805044074,-0.0486494019672704,-0.04108184797704837,-0.024522730132603608,-0.02676727366477622,-0.028894048686433707,0.1581163041470012
-0.05193720517632289,0.263660585927493,-0.06454330524466564,-0.07999495370749792,-0.0443832936386004,-0.05758270618102102,-0.06643331290903337,0.12105741838294226
-0.06160807670664904,0.25241801883165965,-0.09250845655529527,-0.13152403595148623,-0.06019851420593694,-0.08000717009896106,-0.0789963763567546,0.1413853489884963
-0.036225312083992,0.2825920718471729,-0.025661839812064706,-0.03284398027939051,-0.018962684934306095,-0.007433927797580814,-0.01303887222381181,0.15125775601756386
-0.0200078108674127,0.25267447615305333,-0.01804772092590139,-0.007336164888668131,-0.01870939683697278,0.014365072770780583,-0.003058367353579023,0.15501183784587164
-0.02568436520773008,0.2385100508152368,-0.015972930796682227,-0.013851214851981222,-0.02440646841002874,0.010327828843868224,-0.01309355100417059,0.14422526211307127
-0.030673392764351173,0.18691823092479082,-0.03569085167846546,-0.044194483500378,-0.027795472652002655,-0.031887893676174214,-0.03176825293362044,0.1128474439092366
-0.05938221797118338,0.18852840973380883,-0.06346086913319746,-0.0855029987163471,-0.05438929574533018,-0.07050154252760327,-0.04930545680050549,0.11986795807857847
-0.060591837538415474,0.19587697676871907,-0.07392025907790581,-0.09932809280972546,-0.06208272393793681,-0.09579656555547508,-0.08566189017470122,0.06719469440655547
-0.03462624728190162,0.21932096571916754,-0.03738439742663016,-0.008816681349425377,-0.0289893212551609,5.038295371461955E-4,-0.01727228634234056,0.10170910561403168
-0.02788071286952569,0.19073244998081682,-0.011546895521792796,-0.014266139302455572,-0.02637859107633888,0.008082080190386939,-0.008936347523245843,0.10264100921340738
-0.025407940601348194,0.18743920848387785,-0.024843117052410237,-0.02459828319349483,-0.02267881705393976,-0.02360021427124888,-0.013442429187888093,0.07435045766950693
-0.04385153916503785,0.16936511055279335,-0.05372789781924359,-0.0675604781391038,-0.03503982781798633,-0.05173632169048504,-0.06149998722834047,0.10892159533074783
-0.06187481582179802,0.22496487079997532,-0.07533362781052598,-0.09360720904530888,-0.05902939014942153,-0.08143108327229988,-0.09130263399019324,0.07929757974547419
-0.03682509618994952,0.22626304174227202,-0.015755606982354963,-0.027090849826870107,-0.023604704969178145,-0.009339279686103541,-0.0136891210184041,0.12348563603269852
-0.030509695746129044,0.20116116939856443,-0.012662783384515434,-0.019971302782864186,-0.04023936226211891,-0.008537194060192398,-0.010721031788897521,0.12265080950607743
-0.02681638861670257,0.22081315644580912,-0.021937003185667013,-0.01437233657662157,-0.038412962382071814,-0.02641095578196667,-0.02108512737451374,0.1124903674075931
-0.03703451322013868,0.2436686461612958,-0.046298453907168254,-0.067523655923242,-0.0504360899679728,-0.06759161290366551,-0.0637949618643762,0.10774727923789866
-0.052380505866601715,0.22223544267272421,-0.06767931069938882,-0.09709876219256566,-0.07677311224820835,-0.10634492905062805,-0.09517867412256291,0.08595196911877843
-0.03417415793811528,0.2251570947310117,-0.05015263041416356,-0.04854530699617561,-0.05430403392966788,-0.060859788223322955,-0.05142094049007817,0.0932912086860431
-0.02352108145472677,0.26584226127243105,-0.026936165113133306,0.0021189992230801757,-0.014234126301320827,0.0050910076846593395,-0.0077360334650417445,0.10448865162982102
-0.017125217274417796,0.25244972718048475,-0.006562983638474327,0.009274818897488268,-0.018624480726905684,-0.015731994042894885,9.060361064445934E-4,0.15217311372349138
-0.021964223204727074,0.23789414223101985,-0.022311218222795484,-0.02585973910090398,-0.05481903201457883,-0.04469045415526879,-0.041742400553810115,0.14370803128066553
-0.04202015708067675,0.18967995621854927,-0.05138904568127661,-0.0656596234965907,-0.05819531660124172,-0.058776289869285826,-0.06689208294861035,0.07992257964994665
-0.04814858011049573,0.18019433126919954,-0.08272132687136705,-0.11414981091922465,-0.08903675146377114,-0.114730821756628,-0.10634217976817402,0.07391235255465227
-0.0426119094760869,0.17522810018012736,-0.05853019610147929,-0.0628076822167694,-0.05326899995316404,-0.05592926616342298,-0.06021033794862584,0.09228823795007468
-0.02740542635806329,0.19709319684681148,2.4796567920686886E-4,-0.0037075440481191546,-0.02426782482827328,-0.012766663744891684,-0.013142243244572848,0.1013048720421185
-0.022581913829197525,0.23869487005674314,-0.014771057784057557,-0.00658031735887836,-0.007972658823592063,-0.014745461201442638,-0.029462999893030504,0.11700643158038071
-0.02115868216272228,0.2137613500931649,-0.03931897896453214,-0.051341386651671955,-0.03427855885789556,-0.04198646858121141,-0.06474458583491764,0.1021601099877951
-0.04000866058084605,0.21562839685472257,-0.050879794890429424,-0.074922205898102,-0.07029927921282439,-0.09037649570502448,-0.08542379130245369,0.08732951057657046
-0.06776315769204336,0.19018256469376926,-0.09346514634086979,-0.13343757844328372,-0.09781757403289419,-0.11223599821627854,-0.12788424759401365,0.08078444880146565
-0.0398434017151737,0.19886227852273747,-0.047846705959264046,-0.044814669080938216,-0.046970777551317996,-0.05250395750508419,-0.05495763408596437,0.06051991940543973
-0.02338205090973423,0.2552044023300901,-0.015891665340607687,-0.026388140363862698,-0.0375025035088249,-0.03197569817977565,-0.056627099125121816,0.08027021035733084
-0.02471114628809145,0.19446665993635717,-0.03126456375837616,-0.028252176764529006,-0.04405986619461331,-0.06396489722149235,-0.06678721893718652,0.0639454399464591
-0.043904241552989845,0.18846628515304104,-0.04743428931746834,-0.07428232239109762,-0.05355843710116954,-0.1021030763894386,-0.08691032598711719,0.08621814808455364
-0.054780551878918636,0.21743876800405576,-0.07457300588922487,-0.11353149014372275,-0.07883599188356476,-0.135208827727827,-0.13648354020910708,0.07801433857447193
-0.041651096786887554,0.21477792761787762,-0.05154933073579467,-0.05474473520645372,-0.058878288169116715,-0.07879372948918875,-0.08491433470782031,0.08262180821906925
-0.01655915819337739,0.26032337905246566,-0.01384823642236864,-0.018410470243354092,-0.039783583140696015,-0.03701232268458139,-0.06204614686838481,0.07089591233498947
-0.026296091642707964,0.2530896983527501,-0.014970833467231534,-0.019495417525175418,-0.030209942454925302,-0.04802893632927491,-0.05907824089473846,0.14045142755941725
-0.027845107799151884,0.2074001023219783,-0.03952749431151661,-0.056415168635213814,-0.040985021492702,-0.09093282985776809,-0.09231477568354962,0.1349741406019698
-0.03854588893307261,0.16051186337283474,-0.060615760030968614,-0.0974889894162427,-0.07389626019079824,-0.10506939812965252,-0.12276098042869525,0.1428200434254313
-0.0563454003484994,0.16580163334023337,-0.09004556351524128,-0.1362745870954031,-0.08640310281096168,-0.12877632361632538,-0.14544341685525866,0.08914464624600783
-0.020086048264694595,0.1973583531228248,-0.018270840339188694,-0.021136133638090422,-0.0254064611460474,-0.03314218441217679,-0.04947653191716195,0.10426914732927657
-0.0018717458186772173,0.2001984716890357,-0.007650532141632499,0.00323281118223067,-0.015812148343550436,-0.03723286491209947,-0.03649215647195892,0.138272264883263
-0.016462532914758934,0.23277260980522174,-0.025050666121318697,-0.012366238663184731,-0.028116135982707548,-0.03898924678331887,-0.04619110899804036,0.1287898551677363
-0.02805165146649249,0.15345075327201263,-0.03419430490730699,-0.04246456727898199,-0.06189771998052278,-0.0810283150859104,-0.07423509699636135,0.07668122977640868
-0.038748452247501675,0.21145484433735995,-0.061130535612679136,-0.0834215999433035,-0.07179065628062398,-0.10888218525880802,-0.11869963936054764,0.05865294693569953
-0.04211067089596961,0.22001110895439258,-0.07449662940945576,-0.10900290213171851,-0.07423286724580766,-0.11689563978581341,-0.13025165108953018,0.09318565492670239
-0.003513092085599967,0.264605656624155,-0.004217193529920318,-0.004406612113226273,-0.017696267936143838,-0.022933569174421055,-0.03823032293944029,0.10021667772341493
9.805077645126219E-4,0.2367529931933551,-0.009811058114004775,0.006383646150669997,-0.025562137396824697,-0.025478075646233403,-0.03718968122898825,0.09810131544234961
-0.01214847127246146,0.2307800639146178,-0.0012686007966523178,-0.0076259210155962195,-0.02795170942192362,-0.04259061455407862,-0.05487740893235264,0.09068237214745307
-0.017368807262074598,0.2553367441881931,-0.027278270475277654,-0.048961899038514486,-0.038567909940644435,-0.08202931478013234,-0.09240573447042731,0.10682019508284389
-0.025809096552413868,0.2642798955575922,-0.05608718635550931,-0.08012522020857771,-0.058901397691897076,-0.1066217252600465,-0.12528297249654236,0.1006403758459096
-0.021672861319117175,0.24434979674990387,-0.035904340134960744,-0.05882418620758584,-0.05743246627434838,-0.07669614927456658,-0.102351746347348,0.08616483030783012
-0.00744914640621824,0.3023068953916114,0.0015845076135667067,0.010800155689835111,-0.023771252851673412,-0.03847710138862264,-0.03414627398969061,0.11465118939189148
-0.007814066569866447,0.2521416524590444,2.2918699418422728E-6,-0.0028421968949386284,-0.023889828148155615,-0.032486810706802684,-0.049134829492291476,0.11408944616381173
-0.0012369544555124769,0.2538748381531674,-0.017312543851778744,-0.014087077793315844,-0.0236891034466584,-0.0652961357122272,-0.09110506519781753,0.12754027077451266
-0.019853515632831664,0.30333593145692284,-0.049352381262610934,-0.056888722863692454,-0.05275365249658637,-0.09573390559056699,-0.11405761326667185,0.11730401116820154
-0.03949650271590529,0.21742976984663517,-0.06670550228122384,-0.11445257149184287,-0.07435228918895403,-0.12282405476485427,-0.14352293383206496,0.13176320333463512
-0.01946228638700327,0.24120427553012974,-0.011159853527994007,-0.018935865566810595,-0.044519114688224226,-0.05092504069375036,-0.05666140324818779,0.13365904644838286
0.002385635410374072,0.2136322453107371,-0.013715276354783205,-0.004644939715229675,-0.010544964855435292,-0.04205085689267437,-0.0622220679486597,0.09958682871493375
0.0024474537796340505,0.2436620417563909,-0.007685048329576727,-0.010621884928077616,-0.010844776827206007,-0.04293704370634959,-0.06221688754825712,0.12297691483333384
-0.01454005696495414,0.2336340509632936,-0.025605347521763383,-0.0528389286491166,-0.04987081109144541,-0.0884728818797459,-0.09730846616387508,0.10161084405374685
-0.0318428987709113,0.23741990274106428,-0.0567209094304818,-0.09961509263352186,-0.06241004020237049,-0.1037480357099214,-0.12353124299293802,0.09292994023214164
-0.027492521129864327,0.20085174401153197,-0.058367418476477306,-0.0833112692202257,-0.04907501822855642,-0.08884772291400803,-0.10054856452409452,0.08725887571062287
-3.6163758005559876E-4,0.27436795490115906,0.0012411230503944944,0.003759946682401878,-0.015563366021616697,-0.011232411788313641,-0.021958423965867627,0.10745355626405843
4.173911340676108E-4,0.3038497811730322,-0.003136776941549811,-4.85285358047767E-4,-0.016783384798206555,-0.012126573269180083,-0.03101650541930126,0.12920458642841928
-0.002359964527539272,0.30245931218801114,-0.007651782029500833,-0.017565743382531827,-0.022680406750518453,-0.0369918769332703,-0.05376417203751717,0.11261343397985314
-0.01904274244587649,0.2854402613436188,-0.03443663106022197,-0.04961123101667267,-0.03752117916175363,-0.07454470944331243,-0.07501847930667233,0.14947495641808714
-0.021632780590311745,0.262837027789223,-0.05218261764413676,-0.09739956550334433,-0.05633041065385385,-0.11679515515976818,-0.11105356704387556,0.10108057064619373
-0.020825924475461832,0.29127176827971835,-0.045493917476153126,-0.07477282347779185,-0.047769990008599716,-0.09103921725997616,-0.09194829245554821,0.10959959463227856
0.004500891904357152,0.278815435084468,0.005192109923704901,0.005568401101801047,0.0021153926378635057,1.4382833027010156E-4,-0.018474784362890212,0.12306169471442217
0.01408143266313305,0.2977127888435836,4.6954845601832745E-4,0.017249906361314068,0.002406576127475083,0.001310965721131263,-0.02301598885150627,0.12098348038660928
0.0025820031099650156,0.3168909598639789,-0.01165171110267298,-0.01734599049954609,-0.011405802561092998,-0.03371293603194425,-0.04563321925538773,0.14624101737056625
-0.008329605941725614,0.27894049978979824,-0.024677228194751565,-0.04246054053299367,-0.03464890869408569,-0.06700984889508926,-0.07470197765075827,0.14531811412335288
-0.018633217605394665,0.2841400761067297,-0.054743487182589326,-0.08985846529179917,-0.05517481094815192,-0.09692333358397917,-0.10106614782610816,0.12182819815415144
-0.015214914896302929,0.2794538731266911,-0.05292478183814818,-0.07616298972735452,-0.052698924026336844,-0.08097886093071126,-0.07657503695269499,0.14427005221703373
0.006586859171797587,0.2887317004098451,0.005229813680380339,-6.866282244176285E-4,0.001335899699951822,-0.008819239657570699,-0.014355432830004511,0.16426125982152578
0.010583682092485593,0.2604444096814523,0.00356140677424268,0.0011819131768288395,0.01580691855253414,-0.015717153739095296,-0.019871574704595683,0.14260200073295806
0.01171846625426614,0.2790650568473084,-0.014417475389743566,-0.026541724973598156,-0.026020598649004675,-0.041492945157342385,-0.04748148906297771,0.13381571682283297
-0.00804304716819934,0.25441720325722805,-0.030080578361466753,-0.06949402545964925,-0.03311713732982256,-0.06692984479098299,-0.06887268636711354,0.14494142093929158
-0.009772911087563195,0.2612317282945792,-0.06580473551308058,-0.10477241047163675,-0.06715407665448404,-0.09046556811597561,-0.10153407992293953,0.11381863432940684
0.009427953902852119,0.2949104286610453,0.005800573125474533,-0.0025624313470367834,-0.004539919960147038,-0.018475960190704598,-0.0266197915198199,0.14797363405202657
0.01563579044712171,0.32701755349838313,0.006558827769594395,-0.001043679158740726,-0.010105966447726038,-0.01231740513763152,-0.025879988756170882,0.1585608144373947
0.008550069543679307,0.3241710593512507,-0.0010502632690864433,-0.007449391930908964,0.0062936035180650995,-0.023999315914809347,-0.017938660055854004,0.11760479331303644
-0.005034500712201248,0.327430550044958,-0.027841436407393477,-0.04376299000364077,-0.028823237795394883,-0.06469134829609377,-0.07283228421216788,0.13351599900214897
-0.005544991502058748,0.31568528197385054,-0.05336533556789788,-0.09466840777284054,-0.053647254797333274,-0.08821682543677595,-0.09969588297328053,0.06195003822166091
-0.012720701079803158,0.30394425128915714,-0.051224269500825224,-0.06585610749217005,-0.04453946831929587,-0.05447689956185798,-0.07332806799032189,0.09865817511298026
0.016335777621879276,0.3738644862408499,0.006906394042986791,0.015723661882206124,0.004595532654672847,-0.013619358042074842,2.398898384298881E-4,0.12891314505462068
0.008071296230492388,0.4031206259782329,0.01898074851654876,0.012532978027624667,0.0040056873554598395,0.0011169656030831018,-0.00887945160508366,0.1178202389113484
0.01097276937862171,0.3597299102109863,8.50551706939276E-4,-0.01667468507554514,-0.009968775791923554,-0.023368733898855194,-0.03631481117299944,0.09076422672010208
0.004989321221935954,0.3438126652988333,-0.01651994741908739,-0.05933575676285475,-0.024931409979791094,-0.06161068291969108,-0.06451628340088598,0.09352654997948782
-0.011522157530425802,0.34861697021098254,-0.04328874634164052,-0.08982797776786373,-0.04004772936737373,-0.057748863666891304,-0.08841713430346586,0.11675419886897653
0.01384525297808678,0.32583206722566027,0.016313969201504575,0.023877330822774236,0.008033555953206171,0.0048504944516020165,0.0024877611876445854,0.12371718867317741
0.02294065342951874,0.29940277411731986,0.030573031495293352,0.028135948710220633,0.018132995087626516,0.025768871139474996,0.010660944296926586,0.15441411982737238
0.015374646933757976,0.32240818562452,0.01492144119875508,0.01712113470086444,0.011004029972882839,-0.007523986442978525,-0.002643445731247432,0.1875429703949006
0.006142611450046496,0.3308605242014678,0.003333457930646197,-0.03101335260227523,-0.011130921601911752,-0.027439594380669605,-0.035602414292901396,0.12701268729540371
-0.007401503777081781,0.34881854012194285,-0.012376984938024714,-0.06791884180504963,-0.03537135022402016,-0.056878447253349826,-0.0664009673279721,0.15497469291386787
0.011014506272168136,0.29296025602689085,-0.006177261150212311,-0.02251268256737495,-8.333787922455219E-4,-0.01925508579788572,-0.022069162929440375,0.15481073705555407
0.023891728645459298,0.2930670041845519,0.026721873598076554,0.02263401051680246,0.0282733475997866,0.023969357993539827,0.005234618949746556,0.14722047960693488
0.02757191902557657,0.3325229327811476,0.03366342723754557,0.026444761335365333,0.023224057375433912,0.02109352888441765,0.015115624974637087,0.18140541586192468
0.012155724858008712,0.34141298115895663,0.017074482922942204,0.0014727812156329276,0.017850499234357785,0.01103902689566822,0.0039058034234187994,0.1336697945417691
0.00847792254081783,0.31907452026926536,-0.004774658648680798,-0.026013020344160795,9.216206312536654E-4,-0.019218076413058505,-0.018470727880515098,0.1486626332631101
0.015295629603133562,0.31221442692759677,0.01567054394235006,0.006960402238843807,0.02608230248408456,0.02548664504215655,0.021494114067986056,0.1852369470159335
0.04143938600664357,0.39026735750129976,0.048283216273029964,0.07492523216914042,0.059848915300639224,0.07772925865979613,0.05901155774318633,0.1776053438526528
0.04772215564072348,0.3751510509179572,0.07015588250245502,0.06779359274377135,0.05055480813272658,0.06394457408623026,0.05148902720393818,0.15707706968131996
0.03059974600610411,0.40173834699227895,0.04712220509066835,0.052388926028116456,0.04393791679381471,0.03639091489156228,0.0250346412158087,0.22207419644038584
0.02041496883151732,0.3686630616974983,0.022504155816274594,0.008517184159480402,0.02169820178002088,0.008847049726519798,0.0021625438767619853,0.19847652937057325
0.0026630027860364697,0.333704953401056,0.002692059472571881,-0.030421744573322706,0.001078526661630115,-0.02214712028410428,-0.013877218343177039,0.1324553610392099
0.034273189962899804,0.3388928673163825,0.05619628580309613,0.06968731676167209,0.05061108810257397,0.06441560722313369,0.06189737233308461,0.22429008199686032
0.044058532424617505,0.3288438305699063,0.07290094639318749,0.0911315983732604,0.05736360536056218,0.06493629929082327,0.08335113670607328,0.19941882245388878
0.04043246467336239,0.36114441223155547,0.060251707644491406,0.07156712597537918,0.0648938395435563,0.08582821159872331,0.07500466839924089,0.21206643644982143
0.022445305981266272,0.3409042067198681,0.0443725167950371,0.040478674959745595,0.04153028828996023,0.030629415464936534,0.037333893441083496,0.1803566573506469
0.012701830649392065,0.31449462224330804,0.030516102717916868,0.0025041002249501718,0.03674375682220228,0.00142006598038482,0.004308763771756166,0.173378372227124
0.002845142456428699,0.28466404757106084,-0.012138722916095843,-0.04246346548802528,-0.013366982129835586,-0.037549124569310637,-0.024856860817588464,0.1380774961450587
0.02134849931158518,0.3103018668416498,0.029502093073890335,0.03462046194211712,0.03674944160962012,0.05019207852915282,0.028663828953911306,0.12685627455354276
0.03231438002060233,0.3461924005980034,0.07163629457633927,0.0712867476360141,0.05003095994213027,0.054431907386724154,0.054707120350981894,0.15105308812512247
0.03834143789100142,0.37901600546966285,0.06119437497555213,0.07670791077722966,0.03884211722691269,0.05559593964516575,0.051985534150489884,0.20341811235854557
0.025060924902459997,0.3275028607703174,0.031977919902363566,0.03642557925823134,0.02042862252527612,0.017217923588315615,0.012512452791952872,0.191105182172715
0.008848640890261928,0.32654950180624054,0.0026266386474916963,-0.014245481448041136,0.0108444014772399,-0.009253259537707705,-0.017673774817258278,0.16610872295920764
-0.006252025441931434,0.2851126952485042,-0.02810830497609248,-0.06668498138297502,-0.02714979595591318,-0.052205513207944386,-0.04673876410072525,0.16084596145579882
-0.006370839783624155,0.32258768303286284,-0.005939128467711406,-0.03572414744664701,-5.546700347457897E-4,-0.028402370050571737,-0.02918043562107686,0.14863815008646972
0.017085918409323674,0.3493319309933057,0.03916122506389707,0.04523096656796872,0.030029038792375184,0.021750783267106735,0.019381129605990463,0.19664076177921694
0.020486117810137143,0.35760833674561204,0.032701898574433036,0.0315953314224134,0.02250201409628405,0.005987759937431419,0.0034564092579168204,0.18238640373798645
0.00772472841581405,0.2906857484843337,0.0061657760320118805,-9.970657973681976E-4,-0.003958767547221513,-0.025822009858652045,-0.018632312545950575,0.18471736584928097
0.0010719340441478903,0.2897385610956566,-0.015280577362041938,-0.05475739651272219,-0.03144270840338968,-0.055701610358300534,-0.07344602870760082,0.10048291645104981
-0.027156491808750852,0.3170829704010841,-0.03781844567573304,-0.10797346928766009,-0.07032182492652307,-0.10897403014533394,-0.08759411814974491,0.08531332020302004
-0.006691787579958194,0.36706586508209804,-0.012462857654382993,-0.02697182136247313,-0.03173263634422146,-0.04182130321616758,-0.030396520244745526,0.19597730737535635
0.0035210297357718377,0.3171218833628528,0.027950923558306886,0.0062270347687658385,5.84610788925511E-4,-0.010533678800047568,-0.007450614837734043,0.14524635400909408
0.009909074177550315,0.32353179350307026,0.008588188588077503,0.005247238659564365,-0.009888448070809259,-0.026813166593146857,-0.013782765650147424,0.11227656936976659
-4.984153599102113E-4,0.3192071166582555,-0.0016703553141271983,-0.043397581995572664,-0.02028928358314333,-0.06451516310144823,-0.04553930444971803,0.12449318933041778
-0.008100275984815695,0.29021385257569854,-0.036278444751165734,-0.09518643365520604,-0.0516145403145338,-0.1039728487681256,-0.09565212815352157,0.1119196108552147
-0.02637423516581255,0.3401327792673368,-0.06832428851579911,-0.12380138895923531,-0.0668932383157597,-0.12214916581400825,-0.11545715916350129,0.10076994288843022
0.008639027349196263,0.3370437496093578,-0.0035235153743341727,-0.005820384571256478,-0.02762352255368655,-0.017929426805105016,-0.012541616081626697,0.09178591184105009
0.014261844435312906,0.29696780572452247,0.023497934888115624,0.011561056791347796,0.0069665554040052365,-0.006895276003972078,-0.007242538759353476,0.1153031422944567
0.013025399785951942,0.31245001974920467,0.014621438694217243,-0.004449127612856496,-0.017235172380465583,-0.027816403483787347,-0.024816993135243284,0.1575919006285867
0.002102161918320373,0.33928680600038097,-0.014360642209124912,-0.04540135495992212,-0.019739219161301405,-0.06227014919412629,-0.04500380640471297,0.09402679640290991
-0.017465360905056772,0.3394420560587988,-0.027656165885394234,-0.0965488753836638,-0.062310049646006734,-0.0871040439368633,-0.07980937968452832,0.12143377920663634
-0.02701316546359246,0.2932981074698483,-0.06576735657827862,-0.131425784516252,-0.0668047720872885,-0.10633093478371414,-0.10200125456942978,0.09345464488342956
-0.0023928510272530033,0.2988116990247024,0.01895194212431884,-0.008206736397636027,-0.006611122188472932,-0.012838696780051416,0.004183617737545109,0.14762343585331295
0.007900104821572308,0.3491706185033808,0.012795680602052939,1.6914658699239762E-4,-0.012679732684570792,-0.007889885597462211,2.1040050578735592E-4,0.16163695033108733
0.01286129887425087,0.3739637910032359,0.016921189200839754,-0.002890405529112664,-0.010820490817391656,-0.01938297141384658,-0.016881495957648165,0.15299843383468
-0.006483312776243217,0.33542113230536563,-0.023499752817649336,-0.05206622056963015,-0.03157901419772126,-0.04643051232427182,-0.05269081630780868,0.15718612001100346
-0.02696438670807391,0.3277481781808814,-0.050823484053853916,-0.09051285099874584,-0.05307022386455239,-0.084368145610035,-0.09201725332168352,0.13675386571921538
-0.01289097704990771,0.3209614396530139,-0.024525043261905057,-0.055958388891518274,-0.0461497467613014,-0.04758022658574583,-0.047410295170912456,0.12397498412298419
0.007210110442793804,0.3397726576408745,0.00976652086388858,0.0028515112973764335,-0.017272098256925567,-0.020757050938506834,-0.012071737552544745,0.13306975857545772
8.534866346668682E-4,0.32177551692218015,0.00990283536237277,-2.2385847806131315E-4,-0.0037268869974260606,-0.015726398904193147,-0.018327721868769534,0.11068336867406993
-0.00497153676163456,0.27467082913497354,-0.015307839843584602,-0.04552480904397074,-0.02772991894582177,-0.04636412932123123,-0.038261800293546255,0.12387841425190303
-0.025146303538552184,0.2381533596925149,-0.06331357762510292,-0.09930094120564573,-0.05742557647008302,-0.08574432273363881,-0.0727912208246884,0.10010628722666509
-0.036198951822214574,0.21075459787976764,-0.08262059470061048,-0.15671322019813003,-0.08667098035473561,-0.10836185433109352,-0.09297948228204403,0.07297054135021185
-0.009494945387204683,0.24636412372011776,-0.02141012389511864,-0.02358890996039632,-0.03692166876658555,-0.024106239133489228,-0.004002481518106102,0.0993047567834014
0.008156634517554249,0.2925914372100059,0.004659358066399423,1.4527991113723673E-4,-0.02504977258037514,-0.015901298654864456,-0.006229755331416689,0.10748429577625308
0.00324216536918176,0.29211857033780225,0.001072297936668895,-0.023189925974274276,-0.01905088952897329,-0.021183701537462452,-0.019075551387002135,0.1533014955681317
-0.007510881499169928,0.2545856265612484,-0.03048029537039073,-0.04184260555360607,-0.0388741784472994,-0.04946727460839053,-0.04570222648539115,0.10051711125358653
-0.021716227847460964,0.23079000711280445,-0.0369395914698361,-0.08896131803608115,-0.05714598038508545,-0.08178141436258249,-0.07586103398631593,0.08057824777567536
-0.0361219806785555,0.24794353805046396,-0.0726533800486065,-0.13621933915711856,-0.06583955405340199,-0.10892183507133113,-0.08794710326390462,0.11760295614420059
0.0025712440229302587,0.3036313436972269,-0.009913370098438585,-0.01829106415525227,-0.007072473906527359,8.860423223799874E-4,-0.0047169458205264525,0.12937268724024106
0.009299903494571396,0.2875701085556662,-0.003188483276482336,0.002145671963892447,-1.564064344857126E-4,0.0049660352103314855,0.005371427335797742,0.11467543769873995
0.0028025111925816387,0.26426879664838826,-0.0021430165170498207,-0.020254887401181976,-0.004075954189328549,-0.01603863679587337,-7.790869662214553E-4,0.12012253322708136
-0.030853715142187023,0.21906692080621826,-0.033544284358842005,-0.06486000762547803,-0.03767320696912585,-0.03819720986575191,-0.05628209524717644,0.09768649693622523
-0.020456249300454046,0.26529861906491503,-0.06343887086510516,-0.1032610131170682,-0.06559005722163345,-0.07537712248567595,-0.07677180540957035,0.08856732942507645
-0.041271275935725514,0.2801974210970563,-0.07991137155931474,-0.15895421817527994,-0.0735940646554761,-0.11381751615876975,-0.10185616273459129,0.12846048007716995
-0.0038647673189825087,0.28741111910286066,-0.028801791439338094,-0.03385107931759689,-0.026204461674762897,-0.0158614781340184,-0.012829771443226112,0.16460219324113487
0.0049800979534468486,0.2986198884372918,-0.012255676570609171,-0.024355817865370052,-0.023798266424810678,-0.009606517803153844,0.0016272043888248267,0.11498158179422827
-0.005192858077204435,0.27605619100424234,-0.016305518340742474,-0.03550724396854,-0.014801970434396782,-0.015126987288472823,-0.012004479525545578,0.08171732869200926
-0.018162815935611823,0.2558918059117973,-0.04258580525451173,-0.08460041334989268,-0.044550236845357055,-0.06901732873836955,-0.06261035093602083,0.11140665262044368
-0.03409940025963517,0.29256830632370523,-0.06607912210672225,-0.12767697457807084,-0.047855239075823786,-0.09306715827134557,-0.07450726124528961,0.09740777576771273
-0.025159297668166436,0.28626860947307486,-0.047606448220093175,-0.08899178113302689,-0.04304275281063669,-0.05320879596221785,-0.05136230679404275,0.1354293565417281
-0.0027739817120566307,0.2695263678603676,-0.01734541210882264,-0.0346319026837879,-0.02573458172536427,-0.01875763018593829,-0.012164631036277712,0.11805413496521201
-0.011251975352152353,0.2938737413773048,-0.017160292635647258,-0.03317994613233159,-0.021349751531230938,-0.03842428299543042,-0.027051131250606784,0.10195670694864281
-0.017144622913361045,0.25612551862613514,-0.036626385930034866,-0.0676175552675258,-0.030240594854861115,-0.06228290951136651,-0.06909677481474791,0.1538180039395407
-0.033679616098730644,0.24592945062284394,-0.06608834209659047,-0.12046930781837822,-0.04889851853916995,-0.09855874632813667,-0.07391264514742457,0.10907914950509817
-0.031710023910599364,0.27606269084211943,-0.07727448959419271,-0.12014197746245284,-0.06304153354369006,-0.10050884408106082,-0.08149608063411956,0.15218690383055905
-0.007598588799547942,0.30367969179638316,-0.0054778488454989595,-0.010702137057687416,-0.015722838128962944,-0.019794613053102535,-0.003618644166779185,0.16561438913816762
-0.008633269213201547,0.26626341341454207,-0.01055521882677802,-0.012902067423418859,-0.009451783632336175,-0.01674892658713609,-0.01874068467478126,0.13768895159122813
-0.0012293630678500492,0.3017284679076751,-0.008654510175112172,-0.029317121566342474,-0.017375322759664937,-0.031715026447297415,-0.03253604595855177,0.1458007826504785
-0.02285345687993165,0.3003700068013454,-0.0395893610549555,-0.07320777694553883,-0.027706829942323936,-0.06496174844115124,-0.056509634467270656,0.1764733187503118
-0.035942899444730655,0.2716219020400561,-0.0637635020057826,-0.12124118874020866,-0.05460923580765558,-0.1069271003220067,-0.09900942154268211,0.13219878523230372
-0.028695344632541343,0.2345805877756334,-0.051315942292936303,-0.0796446349010332,-0.025867707056857005,-0.05613937978227031,-0.05900536980260018,0.18163360645594814
-0.005077352197323803,0.29096131518987767,7.816461336839012E-4,-6.381193761563903E-4,0.0015198357208895345,-0.004982652043250421,-0.01109560247369807,0.1235545270989098
9.656217146088684E-4,0.29633736409882283,0.006738907681418101,-0.002561562309938828,-0.009791664555307486,-0.009981721842481583,-0.004745943474263638,0.16557411027037247
0.002393731420350771,0.31105868451568097,-0.01469296656334703,-0.022433649197843474,-0.015553623221764241,-0.0383825433790502,-0.03667241749979446,0.15998790485648404
-0.011419401417760017,0.29970363740637573,-0.03435763493755866,-0.0736837663881338,-0.0381266485692445,-0.06704159734094463,-0.05855473749158547,0.18553162135155413
-0.03547622745088083,0.2633026971860167,-0.06143989766496887,-0.12241456716559836,-0.07218726956909403,-0.10749876952718646,-0.09549413046197555,0.1391861306534009
-0.018285111847473605,0.23814910274504258,-0.027951507274877642,-0.057248592763183274,-0.0479273878631904,-0.05976395158163519,-0.04610550810635727,0.08203278293490832
-0.0034313122688966573,0.29637244754841524,-0.006741066706680676,-0.014121178442157049,-0.028328258446270408,-0.019100384417790203,-0.025935912925066557,0.16763647516970104
-0.006701642521511411,0.32227704094539766,-0.002673344573749282,-0.00351827604844724,-0.001200076634798139,-0.023942366278684298,-0.029625812505887222,0.15765573407598066
-0.015191853131986172,0.27413467503140776,-0.030687176397797555,-0.043354412894605315,-0.019818101199843858,-0.05625075304727867,-0.05786434313230437,0.1868267527808738
-0.017239035795708634,0.30481897404123576,-0.04658542797329289,-0.08892419740561842,-0.034370852395409615,-0.08018533483130022,-0.07723912548328807,0.1480564080415313
-0.03248529148707379,0.24888558847866832,-0.08259851928656183,-0.1285396979421734,-0.06043330635417661,-0.11123714041602391,-0.10694734110116298,0.13867462273642087
-0.014673396334276933,0.28906402950146765,-0.017560866610412767,-0.03470829746252873,-0.023912288201241923,-0.04166944309111243,-0.029991415065494617,0.15561765032494373
9.83885185316221E-4,0.3101791829285443,-0.004613345078604385,-0.02193190446837126,-0.036540621722429736,-0.032244482943681214,-0.03524712864566062,0.17844743206393535
-0.005131722577478685,0.2784490488846959,-0.020858836978960304,-0.03468684480614125,-0.02468501418047457,-0.04980090669511643,-0.0538666366730937,0.22859675900432236
-0.030522560395634727,0.20048352573127612,-0.04381743522513075,-0.07690390916912075,-0.0579836931174304,-0.08302579024798887,-0.0778797437910353,0.15291120117191442
-0.04634960514730741,0.16405728817714177,-0.09287292532200697,-0.1388122242158288,-0.08877434073590934,-0.12613850600895804,-0.12702562520221722,0.11842041400141905
-0.017455250296968768,0.23141836733849824,-0.047052429549013015,-0.08996871479048234,-0.05124942020542871,-0.08426101941848495,-0.07429371952565411,0.17218232580007786
-0.0057719536769425955,0.24198944995493993,-0.013673087366198284,-0.010027905414697898,-0.020530836219449383,-0.020798145588030274,-0.014850042312995394,0.17780347594557538
-0.010087426206967162,0.22434178301991342,-0.009522736769029993,-0.020665479055230564,-0.023142659748101292,-0.0378408053383224,-0.02778791326836709,0.18990500241862357
-0.00819262811661569,0.27752901314588785,-0.03187044801948905,-0.04207210113301634,-0.05574245058281979,-0.06278403277773592,-0.050860077694996134,0.17578544336952923
-0.02580469499600084,0.1987054129477938,-0.05694505979534147,-0.09393719967673768,-0.04626342681705705,-0.09542886481321822,-0.08416733697186361,0.14041979441573194
-0.05202803129983875,0.2268645539633123,-0.0767240285626231,-0.14203255383432103,-0.08055601251989952,-0.11369023061649486,-0.10861354575955841,0.10591391061716948
-0.0101337264293151,0.2512189954692242,-0.026714549391940737,-0.04680306915568053,-0.025349721768274325,-0.04020199829267798,-0.03236920817551501,0.16434779070248567
0.0018975912028049782,0.2489438244999983,1.0887705728470157E-4,0.006594580221632992,-0.013577102083101701,-0.011628689592396952,-0.006947097306671715,0.16823352076936376
0.007003126565261371,0.2557113035673304,0.009958512084287177,0.0012522904249287273,-0.00632929336001815,-0.023921823294917665,-0.013004173407311699,0.15014896431881672
-4.220146938786473E-4,0.23899604620535428,-0.013258750934689041,-0.03734437052348921,-0.02282419033665543,-0.060520542347457,-0.044642136934053916,0.15475247522158952
-0.01716645028672332,0.2277139224153143,-0.03582848130112326,-0.07898240431129375,-0.044976568973007086,-0.09510756960579402,-0.07727001168107629,0.1766268518866339
-0.04047010973672212,0.2593317162319376,-0.0720393924210597,-0.1362794241822713,-0.08457721571367584,-0.13346837297119904,-0.12028258829167582,0.14286398983502885
-0.00415305330903604,0.30695347020047936,-0.03585712450279372,-0.042426523424769214,-0.03762440143532369,-0.055649452867160956,-0.048056365446703116,0.16581865567170173
0.010898062774262154,0.3069273785662777,0.008443631450025035,0.0040924490351513555,-0.010487038154593599,-0.017634979346626587,-0.028489636952712498,0.17439231887464038
0.007768193439992223,0.32577659837642337,-0.003892593170962959,-0.0054434325350096666,-0.009635237159381447,-0.03465234702088018,-0.027894962644790307,0.19031297173959735
-0.001983433068134862,0.29279429434872506,-0.005962851801641182,-0.04317018824472787,-0.03194761903218436,-0.06953049885669549,-0.050608135214559515,0.1731841102768297
-0.019745262412073458,0.2823209690061975,-0.04861738218316891,-0.09423147315976016,-0.05049452255546165,-0.10391546501438294,-0.08848240315332424,0.17572907260063655
-0.033770929952689044,0.24167015557018343,-0.07674213303197577,-0.13841655154083918,-0.09325577562006623,-0.13158377237456956,-0.11859801804703664,0.16599150510526572
-0.005363731097174043,0.2867846789336312,-0.015736126414020408,-0.05254916033179245,-0.03609306277466147,-0.06211973027721297,-0.03802326516844816,0.19056868494033719
8.26731170071815E-4,0.2603467247348663,-0.024400354913321837,-0.032771340469312744,-0.03008749266069225,-0.04822490346693942,-0.045935565840043824,0.1725746193242222
-0.009638416919019805,0.27555022596061074,-0.02122874223437573,-0.042119067987925765,-0.024156582219218597,-0.06647849622107141,-0.053158429899335176,0.1935038696289118
-0.026849428537886834,0.20100035660197632,-0.04966713018695906,-0.09045749487600406,-0.044803316799216925,-0.09259063015168209,-0.08187383758231917,0.22843825418014815
-0.0364754641127315,0.20372370727752748,-0.0792789687838547,-0.13984389145494788,-0.07014093426745814,-0.1354469181538608,-0.1308182752811436,0.2260707665373209
-0.03532987699770093,0.20882518177668696,-0.07624520653275561,-0.1284784794001729,-0.07302250174510513,-0.10786952424961761,-0.09802975324127378,0.24457771181968158
-0.00937224804462209,0.2615766004349286,-0.03417423787313099,-0.03729337784338227,-0.022661747494718158,-0.04655897309828588,-0.04526527808564072,0.24731738199944103
-0.014058098096161653,0.1776156468119477,-0.024021737021720654,-0.044162470173174415,-0.03272917360614359,-0.05500749027946268,-0.04990654571613343,0.2204033781932757
-0.021958024053290205,0.18037249618491333,-0.04713811099677272,-0.07426005500086295,-0.03740008038021223,-0.10015654410017794,-0.08710923475888666,0.18148407485103546
-0.034504626576004824,0.19435987599729926,-0.07757303766787574,-0.1277986695418464,-0.06831327705157994,-0.14176068536984385,-0.13587660349108827,0.22630895593961375
-0.05270010937403895,0.23468304006212748,-0.1014658683786114,-0.16293566952858235,-0.10011792051111496,-0.16030089556118818,-0.17469128204444578,0.16418981520808046
-0.01868258789885866,0.22082054281998098,-0.03995247777696766,-0.06818140178472512,-0.05069529951141386,-0.09429497496784646,-0.09155121904913242,0.1992088781566227
-0.010516645011189974,0.2403394139396889,-0.01934835892625442,-0.035894062607126846,-0.04214705544356046,-0.050391485084064165,-0.06252988437497152,0.1856059892094736
-0.005863141927465964,0.2431719324371084,-0.021937679516979672,-0.044222665215217505,-0.029501609068076338,-0.061425369117314124,-0.08842797581009237,0.16101215075765601
-0.015395726184385183,0.25423608371323375,-0.0418083871388176,-0.0813911712716426,-0.06860546996945702,-0.10077477260505777,-0.12519477433045934,0.20229218109086466
-0.031191842917162815,0.23959950852471115,-0.07537206946678782,-0.1203410287220251,-0.06909552792255388,-0.1342289315063028,-0.14183723013882954,0.13906090647593886
6.361717131912678E-4,0.27103076956112265,-0.011235078270250082,-0.022289169180800143,-0.0326502557310184,-0.049677790128219615,-0.07119525761528196,0.13071636876004047
-0.005621464456748767,0.273372156129852,-0.003531413230278741,-0.012620748879930449,-0.023197607483743592,-0.04756101493513565,-0.06519372683700642,0.22657854413042897
0.0010699931863377976,0.2725247651333128,-0.008398295465119852,-0.031350461779687644,-0.026821560480501064,-0.0680468234206492,-0.07847692623137056,0.17148488713484997
-0.014333744596070088,0.29231278703372965,-0.03923745679617256,-0.06862271877590019,-0.05325460982398351,-0.0939743720523335,-0.10891642397855522,0.18338568339425504
-0.02317229696084671,0.3099609496601925,-0.05060532695939467,-0.10244994320762169,-0.05035973985011744,-0.11599457103944706,-0.11326672589547285,0.17664553407436306
0.0033129633946223577,0.2639240831944981,0.015836857371328505,-0.014616064829107715,-0.02548300677024345,-0.02676065445148361,-0.05069168274699505,0.1973998091591516
0.0010207491736418661,0.26171339338474775,0.020320963107548006,-0.01226452204705206,-0.006079491257442827,-0.040377743817245675,-0.05488230080383627,0.17501451361959267
0.008283100294600072,0.3024308830836257,0.010172360571667847,-0.031295705974338096,-0.020829164801971126,-0.048344030967954935,-0.07400628167480036,0.19147603579158048
2.9432220129712444E-4,0.32843363333622516,-0.01975123440867492,-0.06996555999872431,-0.04590747602816234,-0.08291775675678797,-0.10064572651655154,0.1773438877954169
-0.0182315394543476,0.2626744761174481,-0.0552338059024826,-0.10478642785068917,-0.07254640440828958,-0.11856639514829836,-0.1375089586956639,0.14174555848060466
-0.020955902672241906,0.24233468189347096,-0.04770828472662136,-0.09069677224446687,-0.06510616743848781,-0.12028365529708308,-0.11855948053569644,0.1538511779156816
0.01322085541383753,0.2687902165848067,0.005046196970581084,-0.012611063514963203,-0.021920741341339,-0.046158177104613535,-0.06591205509897247,0.20185195286668306
0.0016895480041709404,0.32469225361134907,0.001524059601244094,-0.01688966791513627,-0.020643938925973743,-0.04888808019773709,-0.06218210414134936,0.20261967194522296
0.005034709539887154,0.2942367474180112,-0.004914545229472465,-0.033997627437053396,-0.030962505164456082,-0.07179941222771925,-0.0834970190448979,0.1831952568548359
-0.005096879046764962,0.24478093073236912,-0.01385203343234287,-0.07265815116619645,-0.05714821879844638,-0.10629238296162713,-0.10823624988130612,0.16130506208243472
-0.01795790409283162,0.25139231178438404,-0.055185958157891866,-0.1020803300565826,-0.0675937483537615,-0.1354259667268814,-0.14734276624088538,0.1502677881742454
0.0028777664181653326,0.2355042302128817,0.0039614917545809925,-0.011260340670746275,-0.0385752989566811,-0.06382377078912094,-0.07257405933042096,0.17169473295433185
0.0045986626226081975,0.29481710414683765,0.019535117407767304,-0.004906201892935402,-0.018447070985715693,-0.05899051893092362,-0.07674013447189396,0.18719809920099473
0.010676116412070925,0.27616865101157384,0.014523658510461609,-0.016501113687349925,-0.03230132258731461,-0.06350613011672031,-0.0743602167535937,0.1987926326507622
-0.013422582795887417,0.2890773561694773,-0.021176434808498987,-0.06832232156202674,-0.06149601885839969,-0.09584166118820779,-0.09592945459062033,0.18936070582856096
-0.0251264633402985,0.2791968214296494,-0.05349908490561335,-0.10927308919258916,-0.08269723095482397,-0.13869231458789977,-0.13104432939636929,0.16580628281607407
-0.015284773629752517,0.28912715316620763,-0.02939857307580038,-0.06960734033964709,-0.0475065009668397,-0.08882886004521573,-0.10340639558722237,0.1866773972492785
0.013396755545686909,0.3274939181179664,0.017004488351173186,0.009241642207471666,-0.017259418521847883,-0.039786583588410376,-0.04630541608497862,0.16700763121669468
0.0025776914657238796,0.2773711827153465,0.017251298607431995,-0.002749134120157943,-0.02299748270799733,-0.049954185066727254,-0.06090332030692694,0.17910561652684673
0.004275235277664581,0.2395603879411847,-0.005411611975739639,-0.0262388454657582,-0.02488761527727665,-0.058643463784707174,-0.07647869057870627,0.16465884530584457
-0.01029835924506916,0.2226360756045836,-0.03559486572444008,-0.06004785222434436,-0.05440752774519725,-0.09875421693203613,-0.11810568341487598,0.12453785953218499
-0.039293149020436964,0.2038299501988814,-0.05884888726703174,-0.11563149395731155,-0.08218836434774712,-0.14748172249974834,-0.13927703494609045,0.10728211368084348
-0.02754684440867873,0.2801229197473811,-0.04109795241795548,-0.08849620003536245,-0.06548758462954894,-0.11824059769847076,-0.0967969815831092,0.1403544232390188
-6.9997914473309E-4,0.3016317149855217,0.011824158745965067,0.002469334263694452,-0.024135526076190572,-0.03348552581607133,-0.04822446135395464,0.14853456560404438
0.0012366960684650208,0.2625303164646682,0.0019269892414448299,-0.010120426934757898,-0.032401980217564436,-0.03574794201261633,-0.043165682239585626,0.12692424318251236
-0.005734800221037534,0.22432377785199875,4.181999133144841E-4,-0.03439601122786238,-0.029538641151542592,-0.05794245768682765,-0.07645683959315293,0.15415004150439965
-0.01598043420778175,0.24031419497167117,-0.03260113144013991,-0.07667813065497572,-0.05490032446542773,-0.11033916049662523,-0.10475609283743358,0.16661844389054897
-0.03539294963477691,0.25509847805071184,-0.07173225696176513,-0.12879708581460564,-0.0857543449424448,-0.13506296449699096,-0.1513864582898387,0.16803877159644626
-0.023936962526322138,0.23536908350089708,-0.04949786476855672,-0.08582977332173929,-0.05433472736249656,-0.08379888293120502,-0.08856495974864655,0.16823618494146092
-0.0039829476729073485,0.23994244833880526,0.013002416672528746,-0.024773296228571284,-0.017855161499619555,-0.049402632540798394,-0.05552864661777453,0.1911584446749532
-0.014097540791491787,0.23484366339451912,-0.01376300875627574,-0.026374487593251922,-0.018005428067957262,-0.049812119522375194,-0.047926113296865816,0.19263915648496588
-0.017434312427509722,0.22798567809796,-0.03178756825805412,-0.0547069363737626,-0.043004037770310144,-0.08217560293159014,-0.07037244194599693,0.17211384338666644
-0.04002766598626043,0.2395357550711972,-0.046326066725201814,-0.09891985140248734,-0.06800308885650433,-0.11048358998915259,-0.10161384125551981,0.1797849144382931
-0.046957392567177354,0.24364847805818207,-0.0816722542789377,-0.14600166577320667,-0.08829071799077634,-0.14069038986695143,-0.1315211320881009,0.17165826976524884
-0.01834993617068206,0.23917657943753085,-0.024194445437547996,-0.04786018955430509,-0.02234349091007671,-0.06480832673168233,-0.06652920990484751,0.16786547108560446
-0.014803619131661169,0.2519681330880078,-0.008825441924386127,-0.03498646235597548,-0.018349550581124436,-0.060740333218246685,-0.07418871610517966,0.18263775556162176
-0.018204343879844914,0.2643974779511653,-0.017665479371809033,-0.053680247233256345,-0.021387065782983303,-0.06784560543615997,-0.05950596156607227,0.20741190311406787
-0.03620078119434722,0.2607383929500683,-0.041993713117496057,-0.08588547065745913,-0.050008694946644144,-0.09473133804433473,-0.08894980541897385,0.20684794994594938
-0.0369349803467298,0.21621616229972268,-0.0786913413119211,-0.1500905861532986,-0.07122576499677576,-0.13665775536148245,-0.12460514420425776,0.17143494329964362
-0.061929453571243256,0.2678444693715817,-0.08536262665695415,-0.1646857567729551,-0.08091347314541779,-0.1374484305700456,-0.14025627295720888,0.16705276939200023
-0.02539746307144137,0.24026491861538063,-0.013527155212888059,-0.04770508402008351,-0.03647115313976552,-0.04451394926998191,-0.05765899162642574,0.19746355771898377
-0.012733229405289492,0.27503285939882044,-0.007354701414909912,-0.03879961744578038,-0.012498613054460695,-0.03516062075683993,-0.04622466522994538,0.2039891235253362
-0.021214243417714076,0.22084837196992002,-0.01662811304246923,-0.04788290757965802,-0.012154492393373535,-0.05233442537502043,-0.059626596783136324,0.1710222660214244
-0.03180300498168554,0.27653439846229866,-0.03796070073099651,-0.08897325671730326,-0.036398381081706746,-0.07792766990526119,-0.08538344630572184,0.21076757068394808
-0.048303824280980755,0.2293974984127948,-0.07175712355730095,-0.13536817190431516,-0.06286124853130912,-0.12244637525844793,-0.11745900482350756,0.170838119018348
-0.062028914101751625,0.191970259471169,-0.09488186559233362,-0.18949975655544435,-0.09570058969998951,-0.1610912826320594,-0.15449329680121698,0.1290499689196695
-0.036842775942477285,0.20765974907080026,-0.03568545176888954,-0.06806074657925475,-0.03408022244812332,-0.05728235354015954,-0.0797520792165474,0.1868523492859433
-0.01738558287482864,0.2578419934853794,7.488911185670657E-4,-0.030451911916779303,-0.02311811636588894,-0.05079234810761188,-0.04162325564996025,0.16704639911019079
-0.01050510781546131,0.26835231094577555,-0.02440710812229572,-0.03103778192449761,-0.02627502301995067,-0.047474715806325035,-0.045402111389348104,0.20385670655852672
-0.020813687983082408,0.23732714282341105,-0.04356974379159798,-0.08831024252337615,-0.043957871207444404,-0.07324594855715186,-0.08035740588517559,0.18861358373363846
-0.04457342804628844,0.22490229993245095,-0.06745140047850613,-0.1283979888382015,-0.07371674579260588,-0.12172544515763825,-0.12007639375295605,0.1535507903632774
-0.061526083906535606,0.1978862957857106,-0.10002174002657473,-0.17188470162615216,-0.09278302473833895,-0.14363764004394164,-0.1508369099821438,0.13406899931785737
-0.034405069789724636,0.23950776893689174,-0.03385198760475752,-0.05858952524697366,-0.04393937355633007,-0.06841823934878968,-0.07265450439070195,0.17380637699655702
-0.013458647976140877,0.2640522829944597,-0.010504634896175497,-0.046525849287989605,-0.025379013310644082,-0.061469847021806766,-0.06587199386176083,0.1686433225824954
-0.015074712748773703,0.24284204081721533,-0.029621800088059497,-0.060423607721972236,-0.031935722787157436,-0.06477133320766604,-0.06850996537953458,0.19812041979742798
-0.034506468371518204,0.21783795253152904,-0.07247172602012815,-0.09911753665798607,-0.06545733334843608,-0.09839679856171843,-0.10442605545951869,0.19635410103009338
-0.05154746032994195,0.2219610269209773,-0.08890246725919415,-0.14756609761571826,-0.0958078969428876,-0.12998491314069888,-0.13990284780669413,0.16391033552949832
-0.038102620127342876,0.22691944171044318,-0.04824777855608521,-0.10433589479118296,-0.046167518479155636,-0.0867934582978693,-0.09124568170536931,0.15670596348990928
-0.005289288946606997,0.22784970030749735,-0.013904417053583204,-0.039432409143817085,-0.03188815989138669,-0.046893561918584174,-0.055035953509193644,0.19781378045568315
-0.01679323620995615,0.2639917714473968,-0.015415324671187867,-0.03393077504483941,-0.012441473801947354,-0.050367048322075884,-0.04565609887024586,0.17338318963221694
-0.01799177515943092,0.2326942779706686,-0.03468534019464645,-0.07505387842694672,-0.028025851001554095,-0.07201066368604617,-0.08408554594760803,0.20834239123816636
-0.032526498666295436,0.22727808036745462,-0.04421821310251697,-0.10698748496255273,-0.06458632291429622,-0.11029483365626985,-0.10464845364330769,0.1715387732946746
-0.05212084400842769,0.2505706644502461,-0.07973952528280064,-0.14760217298207487,-0.07181929743697608,-0.14153389904782274,-0.12977219278711352,0.11294024675854361
-0.01092554569165341,0.18757152747769318,-0.021510721600933015,-0.04175364520566374,-0.014864001540529177,-0.04957953927301019,-0.04743701061031341,0.17110481875709652
-0.015131858293137249,0.22192102691267818,-0.005226774177050437,-0.027190024487480723,-0.023871331116793917,-0.026566340973740603,-0.05220581926641066,0.1915273481464238
-0.00755381974995354,0.2516286384892526,-0.01418910289018533,-0.024626379273552178,-0.014266567778458882,-0.032846497502502695,-0.05068030434760196,0.17474965760478253
-0.016901280727887574,0.24923608495895444,-0.031788426587979826,-0.06320248333148322,-0.03385639810742423,-0.07484153661661112,-0.06653942927978967,0.20702640390691346
-0.031785364667273115,0.21198376622329299,-0.04235506527244692,-0.10106773679525438,-0.047137169209187445,-0.09964688564241461,-0.10248551770429112,0.1677286290414967
-0.04587374942731762,0.22213248315512715,-0.0847526169145664,-0.13595753142893208,-0.07299881763502755,-0.1233675386747361,-0.12564042030635914,0.16217582985521664
-0.02268117597272672,0.24346888095298153,-0.02461295901676982,-0.03792232708135474,-0.01226523364017356,-0.03672948513255861,-0.05583078509488633,0.20592624278447674
-0.01971429106724224,0.25356941866580096,-0.001550931398892258,-0.02201356321395297,-0.00822478482576269,-0.031135553272817355,-0.033155729452746883,0.18882273600171987
-0.008235913574405875,0.2627328605569135,-0.0013613920154042138,-0.021012713947656,-0.021063207140309056,-0.040662332757534184,-0.04257872750130743,0.17846656127541416
-0.016513080393003088,0.26564556594939237,-0.03233901351124593,-0.05534628913050915,-0.03343010924811413,-0.06843832319376626,-0.06619170454163056,0.18064521347228624
-0.04617618538761267,0.21904290619854838,-0.06310590689996214,-0.09525257183381211,-0.060939181128898734,-0.09790390478153851,-0.095257513513768,0.19021138779048294
-0.04245119414410122,0.22410215062898614,-0.04848109824808397,-0.079413065090995,-0.03111448882398229,-0.07392718151304191,-0.0800034316936849,0.15503120460688746
-0.009644762320433185,0.2711389195523572,-0.0031725571773337426,-0.01641342808556996,-0.017624847404841562,-0.018919959862490926,-0.01960706200926901,0.2047303020634682
-0.001586761152770566,0.28074171284551536,1.8055958465386206E-4,-0.012797862149901883,0.003553352851959313,-0.034504236106755945,-0.052960600449909835,0.2244297523026995
-0.008096294219145789,0.24023685910016251,-0.015452332700129216,-0.05096077291284802,-0.02926032596664479,-0.06146794277823015,-0.05999780055549751,0.2374462859793945
-0.035302362021751015,0.19608227103202003,-0.04816747924416478,-0.08440943247924246,-0.036846535069447406,-0.09847011809602196,-0.10158597843738351,0.18763662646745224
-0.035107620656851794,0.21228701694531324,-0.05856206223952941,-0.10845651755291252,-0.06037853753880573,-0.1039105959740106,-0.09646566292438412,0.2154122533511016
-0.005264611195507626,0.26242781510546576,0.0018721442471958053,-0.00420189053719771,-0.02148473477378556,-0.02989619610903146,-0.027859633051066625,0.17887656358586845
0.01171934566685491,0.2912399409850765,0.022374152705925375,0.01192443816030541,3.348178414909614E-4,-0.014196707457920493,-0.01742886348858865,0.2558568916224128
0.0037518645736071346,0.21873636058693952,0.011823098143507935,0.0032240359003429322,-0.005370707689677689,-0.03376560655834847,-0.027080995457487336,0.20547245746044002
-0.005996145199378328,0.23053038093317882,-0.015076173277450576,-0.03903315342414833,-0.00896406412999002,-0.06270788336512774,-0.05787275998713978,0.15325535220801123
-0.028625519923314986,0.21191531276689007,-0.03233554443974991,-0.08774681318841306,-0.04571684155209024,-0.09415307532403434,-0.08340456998564072,0.22025510447176827
-0.007994731848822392,0.2526349571061959,-0.005099924081914233,-0.031831251183889187,-0.02176371944884212,-0.040772602531616665,-0.039315699291534105,0.21590316101585696
0.015111986933023187,0.24591962313877103,0.03268131919440618,0.03592421449271157,0.01188725431368279,0.002701864499493653,-0.0034928980418617098,0.2039594814486325
0.010119484983046947,0.21859293582454137,0.026497152422032565,0.033246468684289196,0.012262186756651458,-2.0746106629485062E-7,0.0021922847862763384,0.17216596440395654
0.00797135324971926,0.24683404182402702,0.025206077238444164,0.007305933419033392,0.014670624474333416,-0.029472022605203808,-0.03828884894788699,0.20014320563497587
-0.018272146582495343,0.2728839440114123,-0.00751330340959316,-0.039484042474534145,-0.01786783206039408,-0.0651160461463644,-0.06244220470581607,0.200901086140319
-0.024479957280521242,0.20416376765975874,-0.02837976981320702,-0.06343209852471667,-0.049102436069205654,-0.08639803170453443,-0.0869147537223087,0.2311139819385484
0.010315505142329782,0.25275439627233953,0.014202699008603874,0.03127951989946472,0.012340396684908635,-0.00171129018413365,3.316159479430439E-4,0.21681658090474742
0.007982475248651116,0.2652689228150642,0.038451253320410106,0.038639419637902364,-4.200260803670121E-4,2.5939575838530154E-4,-0.008916398713830355,0.21758472920590027
0.006104044000315639,0.25104731919424045,0.028192885520463184,0.019772472565385488,0.009152449659146134,-0.00868536694937462,-0.016554503655936966,0.21561702280917108
-0.0025786434814428633,0.26945531627840585,0.00803195949812175,-0.015363457268713274,-0.01667219087716959,-0.050181195476617785,-0.049966071725319444,0.1976870303004677
-0.013508632154815313,0.26764809060358785,-0.0185149026117426,-0.06118586693073984,-0.03201558613037375,-0.07311264729587648,-0.08662340528873841,0.21646003712478218
-0.00995556170320109,0.289723405541285,0.019501085593058076,0.0017771881141931817,2.258278607273692E-4,-0.025741016495670736,-0.009368169546575295,0.21279813540042586
0.0159188956083315,0.2585931271852402,0.039262874048904696,0.02569329464253016,0.0021404528984813875,-0.00541520196186299,-0.013234748921676663,0.22557114194590852
0.016258425426227678,0.24264376208455415,0.030642679133657386,0.016216585467276987,0.0019043735821378076,-0.010131020354745592,-0.03276497049699243,0.18857861479239144
-0.0012191552488395388,0.2377423421345767,-4.0764560270719567E-5,-0.026391702130825923,-0.012524282685359371,-0.04582755078724357,-0.058544097513762786,0.198218777707536
-0.011695592465617861,0.25267039972949656,-0.024750084504129355,-0.07016989257934328,-0.037104129214209663,-0.08534421379296489,-0.09404534701866499,0.18443245436639133
-0.0010796907148695398,0.26671061048898476,0.003501601394656176,-0.022663981515935985,-0.02551382201202556,-0.04438005250949113,-0.04259842888624312,0.21189776452579115
0.013519496150916042,0.23142427530087456,0.04334881625500806,0.030916667415370754,0.02407329616963578,0.003990707950301358,0.003253567242163753,0.19890088983180976
0.016205403896013243,0.21690008108111183,0.0431499259590928,0.03129953125287833,0.018144051389190025,-0.010449024221396656,-0.007945149233581847,0.21582901752162234
0.0064015613778829125,0.28953843154119624,0.03271193555950408,-0.0036645526055144734,1.727279510299988E-4,-0.02495557671640805,-0.026004423801020235,0.2160962604747949
-0.003995432024425913,0.2893742620676615,0.0038106032749640906,-0.04590297241432823,-0.014172931302533005,-0.0612922681257227,-0.06589795023107001,0.2364596561537728
-0.005380623096073317,0.3035557717989566,9.756019055014711E-4,-0.05743238909063828,-0.024476341536884987,-0.06972169845547559,-0.07662234865273407,0.21715290605451756
0.02092829007103198,0.27940763240288524,0.048309243246719806,0.03544531678461145,0.024710428878134533,0.013697871348877134,-1.0975154133639753E-4,0.23097278264864035
0.018754956322406043,0.2939433638326268,0.04846364582609789,0.045276246638262525,0.015793873940795435,0.009070244014453966,0.0011556627157059546,0.24265157829108241
0.021816345846835977,0.28739687961625915,0.04824853610775187,0.024095106126335253,0.012357153730538228,-6.560188645805352E-4,-0.018943723742821036,0.23531050267796072
5.586585213414319E-5,0.2956768297299175,-6.798617855037787E-4,-0.028170004257669367,-0.006617409856701693,-0.061362022736892716,-0.0585027096006887,0.2323254489934191
-0.016190628140364562,0.27287163893059146,-0.021511847518351297,-0.08092346006640422,-0.034454826262450854,-0.08327047737060173,-0.07163566242046147,0.2142776476648949
0.003299094248540281,0.2524287783913653,0.020211013154454036,0.00806000677064006,-3.867422853847183E-4,-0.013014837332681106,-0.015143674139916248,0.18442748225824734
0.009294919804073543,0.2831153254616413,0.03668529535721247,0.015831731618703146,0.008577228004437679,-4.650918239189651E-4,-0.002237000804000154,0.1907926270696223
0.019258731428635885,0.3093688870740341,0.028595260106526233,0.017553679276642933,-0.007627276351643307,-0.0173105756014556,-0.026696789240299175,0.22540919145495092
-0.003568564427873344,0.24638092937708064,0.0024660038724751534,-0.0295151707268196,-0.021685868949916604,-0.05405383025724396,-0.07072255019492733,0.21095484436239934
-0.007596896335132261,0.22970250209793086,-0.009642691715542523,-0.03867936484685917,-0.036910585153271336,-0.06236051625139936,-0.05503966031096371,0.2123966035887668
0.007301842428645414,0.2746998778350248,0.03317199028480575,0.03416973453284488,0.008247377201601075,0.0011927165960935876,0.0011004258400311162,0.23220503521809782
0.01136546470282982,0.24696433044954516,0.04305007563599076,0.020130246571971162,0.007098965179271045,-0.007054511336005676,5.151927358477554E-4,0.23344000417208888
-0.001985537931402652,0.260546869811186,0.02291875108090146,-0.007784658532914407,-0.01560493737857567,-0.045299231841115305,-0.04913798427859893,0.23248488586460697
-0.014372491680799258,0.25856974891635515,-0.014018522008621245,-0.05401649695486399,-0.0331124916868117,-0.0690589830946893,-0.07723989949353012,0.20117874058927676
0.013251732404371101,0.21743278278445394,0.02210123660642975,0.020624737435849944,0.012681782678274094,-0.0038493752762378854,-0.011468318772366634,0.22662891065305818
0.01749321183090831,0.2551966846304054,0.044654449325411384,0.03925546749580178,0.013036412645553424,0.001323343702132945,0.007520770277440008,0.2594877023464497
0.021533034667698903,0.29630427185572766,0.048758883453195026,0.030982439415483808,0.008293384258330417,0.014047817605637402,0.005868196755734616,0.27508297292281925
0.00115284833589855,0.2954969427545064,0.027460459837565555,0.004749541707969061,0.00917444902538225,-0.029701978618149105,-0.033075341053087105,0.25512756961004274
-0.007280679375252654,0.2709277538019633,0.0011123562982876013,-0.022283620274583364,-0.009048039984027693,-0.04173877819244105,-0.04252642573062952,0.2349363843302405
0.028749438431405976,0.26808490377851435,0.06451611858282189,0.06350321101593513,0.048807752818107474,0.030226217482580045,0.037743621104195456,0.21524801225503148
0.03228317510339762,0.289013626599986,0.06339152734293574,0.06497603013682131,0.04279762047863214,0.0395366073045053,0.034303534929169634,0.21712763765513207
0.01739074717078031,0.3075898470778277,0.05782882645510775,0.05895838618723686,0.026631490952683724,0.013356499376352068,0.015035595170802458,0.2495577997847678
0.01889260584824385,0.2604565105660134,0.04440082821190394,0.015208076546096731,0.013210807345059892,-0.0023329039141745094,-0.013166457572377731,0.2250691722246958
0.002849417805942188,0.2510301882834068,0.007229624408229943,-0.013397913815574633,0.0033966316725874152,-0.04128924771636018,-0.03520788832080169,0.1780601346121985
0.0269921109948607,0.3007897859788362,0.07272913266758843,0.06939886624022783,0.04500268931951077,0.03527141146403823,0.026400090732939314,0.2037949835733155
0.035257080705353605,0.27333622388728473,0.07685475462736345,0.07966711302854824,0.050163517552579626,0.048739892615285885,0.03392808348718242,0.25621300262998786
0.0324277827322171,0.3020897890401748,0.07676106874993154,0.07268859944210578,0.04187717268833145,0.028242290448941262,0.019590171616860455,0.22880142564799655
0.019663604194268595,0.27433924106255914,0.052523748874419136,0.02733858017867999,0.028090812818508674,-0.0019141010042786136,-0.01838047009562624,0.22173786387329342
0.021260368759822908,0.27056915707478174,0.06318331801173745,0.03781975424154452,0.011677508959697002,0.0038294115038927604,-0.0028002912143845586,0.20875675598834093
0.039941463718047986,0.26210160352034617,0.07801789631717859,0.08009515765546348,0.055825121262859205,0.06362950206176873,0.04727608908410772,0.21501451615558131
0.04334828353285962,0.2761163814719979,0.08385385902249616,0.08947925717777501,0.060690932815766194,0.05897930022892209,0.03103069926791041,0.27438545257954217
0.036283964170591744,0.33368542487202896,0.07872755044923511,0.07334681114986316,0.04860854479396369,0.02452910534356221,0.02585891147007421,0.2630636459962492
0.028915790945745243,0.27686323594098305,0.05095215796592826,0.03484047104663158,0.03656341321348038,0.0014060570890142617,-0.01945152541095918,0.24375385534307992
0.03983406542658917,0.2972352200310866,0.08080549866862552,0.06272773176258103,0.04156619901437117,0.01939568352892969,6.592184089194101E-4,0.24807914165524614
0.04022507548328398,0.2925844997075173,0.10873849563613885,0.10975494404960609,0.06600355264835091,0.06575007225559998,0.04762706279458678,0.2997732813571731
0.0544127454293169,0.3232187594536423,0.115077184676585,0.11240370886180912,0.07704956912894995,0.0597210953674621,0.05595163429973943,0.2876200703372516
0.05074564918717875,0.31157631871411573,0.09767043547920574,0.08886412871499685,0.06909360062776654,0.03356700959177911,0.03651920569216452,0.27098056108752566
0.030994533072827353,0.29372790040298485,0.07063568924233181,0.047771883473573876,0.03868494391417869,0.007552062143659903,-0.02328396867462363,0.30905235991520036
0.02902231529039364,0.27960920120007166,0.06633874234884288,0.02108966904662766,0.031624285984266975,-0.013187954834719608,-0.014706810638868709,0.21662732367693355
0.044602881221498775,0.29570830056081976,0.1103044937806325,0.10993823050416113,0.06309609397733767,0.062051374206569074,0.04235125071784897,0.2774801436196729
0.05443774223124675,0.3053487407102963,0.11905753787347692,0.1146954053225521,0.07302867194391627,0.06198553283735233,0.04908946682331545,0.27737779968192455
0.05889170515554335,0.3083364244687538,0.11068185397535184,0.09510841349003821,0.07035422213181115,0.056346639693085926,0.03209171169059006,0.29417447467139324
0.033389191763890526,0.30651706526639716,0.09268699626524614,0.07369593676595343,0.039300191052228484,0.011819183411115784,0.004293889414465065,0.24422413770590898
0.01896373751650981,0.26303942332264024,0.057063419917465004,0.01726383287551861,0.02435318314807533,-0.02881333219131223,-0.028432424387884247,0.25133261297316617
0.024040290840372062,0.2642873781860353,0.07395883752374122,0.052148190923435866,0.04666942267613094,0.016049428200595246,0.0027932239801116733,0.2178610889184177
0.048547693505554074,0.2768417434209389,0.10327092383512182,0.09136901051300625,0.07084163780394902,0.06264503839709253,0.03698806407543262,0.2606704192659443
0.05453974515022663,0.3103703643027617,0.10900016894505735,0.10203452194463611,0.04481131871775418,0.04248080560938319,0.030177351628849512,0.2153450137509408
0.03891337510936618,0.31446100530017806,0.07632195160242253,0.06025085615043846,0.04369414384566435,0.014389541650579547,-0.006263756881543611,0.23098993811988594
0.02842880962386564,0.3047492035018954,0.040213592211095044,0.023604933618247864,0.013867608107569124,-0.026231324754577904,-0.054802502998734855,0.1851312462835416
0.008107248498240044,0.3150479885093964,0.05082135115516119,-0.01054927720096157,-0.004818492094398412,-0.03483360451144462,-0.05816162967112777,0.15538018564801084
0.02823938846595045,0.35078469113106353,0.08477817354709503,0.06974342297378096,0.037452384747629866,0.011488223946123206,-0.00813061280909607,0.19657771452466488
0.034846349609987795,0.3801257961094827,0.07889097842263473,0.05008486210698816,0.03534154181802075,4.009647961291177E-5,-0.024828323710801275,0.16043121102805108
0.030342857526805697,0.360140914420206,0.06192200573793982,0.025222700585439184,0.0019783080396485768,-0.009447414984288636,-0.04106630109897598,0.14924076265379116
0.010563989690074785,0.32652111873821843,0.03923296637079661,-0.019138454283537637,-0.013203446329941502,-0.060991896284889144,-0.07728260063002731,0.14990688344142875
0.025025018922491135,0.3572806314641693,0.05677442191646584,0.031396436931238905,0.002906952534634995,-0.025802935571081768,-0.0421710698814037,0.16044223879223496
0.03350356765597168,0.3815780193570415,0.08048156492866705,0.04179690403778495,0.0039244418499326285,0.0017392477358663255,-0.01923771282795305,0.1683840420122565
0.025704543189203385,0.410554604901179,0.06996896390501153,0.035499242607505546,0.009254862491515126,-0.008766537539748948,-0.02833480378674566,0.12580180696576554
0.017710757334863117,0.454247393925464,0.05820483396761376,-4.2306795646984696E-5,-0.01178509510018906,-0.05492503217903684,-0.06913721538486203,0.13730866930371421
0.006936279470856566,0.41824381775092717,0.033871359603021796,0.001809398844821286,-0.014976734465270099,-0.044516679190642686,-0.05886837338875826,0.11410045455426764
0.03226661140523783,0.43657800537426805,0.08245155451459152,0.04724089310655945,0.025798001986451047,0.02354527953189806,0.0011539955507535796,0.10872207409803114
0.04355174117798963,0.4041006528638018,0.09124378333035799,0.054162121009400835,0.027750487914356248,0.018589809185625337,-0.0012146006652721947,0.1276107398551424
0.022439903740726616,0.4328932157310377,0.06881995109632352,0.037003937889406785,0.015573894865678816,-0.015583270960057176,-0.03396923141158121,0.1363179534440034
0.008055623857257707,0.39911167271894116,0.032916232493338075,-0.012758804502898902,-0.013988783070849461,-0.04076914254852599,-0.05075497672739773,0.1090700880939245
0.022735941271902038,0.41747620116528517,0.061543823141350075,0.042257735157530285,0.015446093684286722,0.003556915941219204,-0.027765461200874753,0.14036726997286694
0.03083592047979483,0.4187227903081655,0.0927859866922228,0.06962856853624676,0.032852431549450015,0.04310768149992585,0.014323630451659554,0.14942487533673135
0.030943869416544728,0.3905696175398431,0.08173927223424761,0.06703250460091326,0.042795464777713725,0.0399906815414785,0.014944116317955072,0.17293369455045088
0.02384884052868093,0.3852004445275334,0.06712650273629626,0.04135669481549398,0.023139432832218247,0.0075664412398757895,-0.010781670426135606,0.17519289429707724
0.015918245290207356,0.41623841677052714,0.0400312230793383,-0.00402055437897296,0.008975347742861912,-0.020933718121096855,-0.03738658029287116,0.13706118987700278
0.011710352794948045,0.4090827944599891,0.03979074469664938,0.02014363552126118,0.004393763510804987,-0.012740518098145068,-0.035032659412407234,0.13106047110775487
0.029977647317952313,0.42957463083116376,0.09379908281218204,0.07992549640882823,0.04393039987221352,0.04562777439160326,0.018260363299953477,0.16917455731331738
0.03951484653111864,0.43683830673777485,0.09716029157669442,0.08045631201665467,0.04352157087184313,0.04588552235800056,0.02879637467996101,0.17541635446483497
0.03169120769621597,0.41052658990451707,0.0838159106366572,0.04468334172667757,0.039295468027391714,0.033879496321127966,-0.0033568531282801503,0.18357977489481375
0.01314931557494177,0.4246450941470564,0.07361217061452026,0.014358064989378125,0.01111534275769891,-0.00752202684124877,-0.026785802289558507,0.14027664640174003
0.010523230089787339,0.36141902735421577,0.04805804338043042,0.007864709467334266,0.021624189807652388,-0.0012632256289780847,-0.020178308412558715,0.1763325473873107
0.03640745389140386,0.40886803043155906,0.0909567531405721,0.06658241752433446,0.06531441501775556,0.07791201990960336,0.05260342249867027,0.17648913491512375
0.02945951978265647,0.4132296632415814,0.09767447974320274,0.06670702429783988,0.07260688775111979,0.0647138927515809,0.03872823727445568,0.24141579301254518
0.024627783184561478,0.38354774668929603,0.0785952204897204,0.058366068858013376,0.046025888724237816,0.04122430017609954,0.036340333666350415,0.22868400296242924
0.021550114257702285,0.3845361055012698,0.06446096392830855,0.017950768564333155,0.04341675417751404,0.03262824124206337,0.010544049219193032,0.18890880080114028
0.0033609171962067502,0.39517144354545797,0.02708305852003838,-0.003309237102105664,0.031022792470112318,0.024709876960860976,0.015550534929726294,0.21325271954054598
0.01704135980580386,0.38464783306206285,0.07691004902910664,0.0524715418893624,0.08615813308042933,0.12284529918349546,0.1051326335664406,0.22785778840302237
0.030513528255459207,0.3881353785998175,0.08338020206867237,0.06583293714503605,0.06427820710988985,0.1125566561645993,0.095682939828424,0.17508172699164617
0.012397467983819632,0.4018772731187205,0.09339663249298025,0.05141231957477445,0.07399019113834503,0.092936686260681,0.06418124354783954,0.2118678833890079
0.010210334092364756,0.42109644904513,0.07016950747579087,0.03489008999891356,0.06072241543248182,0.046369140204418444,0.023664291754139474,0.22906271786894983
2.6256590292987603E-4,0.4517186166322248,0.036856709985609956,-0.0036284892508327976,0.021577003233580718,0.014411843905698059,-0.0020406338412654393,0.19933407712355392
-0.018794401509890944,0.3741689493805733,0.0047535253452178836,-0.042884548109177426,0.008026751425364095,-0.02314872434299688,-0.048532592559244296,0.18426539284835447
0.00461217456495458,0.3719204067701941,0.05533542709410652,0.04299426453727116,0.040958740327864736,0.06059338979279294,0.038400935788342805,0.15591431236768452
0.028037762094507132,0.383231409616832,0.0753092884955591,0.05389276924856584,0.04554827185076598,0.0796857205736473,0.05564734703715504,0.1690369579508812
0.03484582067774179,0.404824203354998,0.08058575619634449,0.04862003150103124,0.04825022009337473,0.07084965369667554,0.05116251443749967,0.1806727835457519
0.005904619523698723,0.43128028872724045,0.06005545383920355,0.0064344917959037184,0.0374336147491052,0.02542810753565461,0.02755991298914748,0.18864485767635875
-0.007614647912512665,0.40687472703750605,0.0270765826878055,-0.026327140476828284,0.024118713504334303,0.009283102463712873,-0.00732813270165367,0.17015257539670012
-0.013708813405576309,0.3939389576162533,0.004911580084968668,-0.05749936712273633,-0.006959328728275449,-0.015381262796849569,-0.019536563219768592,0.15204430163111818
0.010948463825379104,0.3819568615437249,0.05382214953813214,0.026726533722879267,0.05418315615715505,0.06507609626078693,0.048971836396626736,0.17119824471860093
0.022537964146222,0.4297052530722698,0.06160247205348135,0.023502653372072663,0.03377287628558161,0.05484441043375843,0.05074027378621421,0.17981127354946297
-0.009366168458700433,0.3844008950994763,0.0543416789273368,0.019252366946420074,0.036349155740432175,0.03162389806313207,0.037088623259469905,0.20308182846285383
-0.006813256882554339,0.40582609765013344,0.01907638801524044,-0.015369936954998317,0.00558694176961854,-0.01605096261806972,-0.0076666967105867186,0.14756151945778326
-0.022189531114448588,0.38218943631587843,0.007195919407051374,-0.07493498698873385,-0.017890510940849952,-0.040367547397216375,-0.049118268170784365,0.15188706548479713
-0.018222746504155715,0.3547230060680253,0.025641451230048566,-0.037845671544316395,1.361444384857431E-4,-0.003636075854826706,-0.008723107304734395,0.18663685369218525
-0.001463198468012336,0.4323256822417586,0.045203012701602235,0.028451365259382813,0.020190073071377844,0.051543670576681376,0.03586973525218409,0.17881834597475446
-8.39011860993763E-4,0.3991372419936956,0.0431059997357435,0.025458019447276367,0.02697581483827481,0.04354242623906713,0.03848165950916417,0.16530066151574385
0.0026111715278774317,0.3894852560434241,0.036812684937235926,-0.009976463832827784,-0.018212381917792234,0.013950371072431616,-0.005444816503969007,0.12411758531504874
-0.0115424217019163,0.4032824586544521,0.008738051099469263,-0.040940787274090173,-0.001846032345606893,-0.024321795148916463,-0.044810569499895425,0.08578285878467891
-0.02464233503922099,0.3707695238173281,-0.026670883428184588,-0.08844113616346129,-0.034296686565427,-0.06626697408976488,-0.06561973422500868,0.097985971385672
-0.004080775275289827,0.3417955769181874,0.023252193645293722,0.011387411342888815,0.012074899008878176,0.022201188394560846,0.014025233280381948,0.1337081791182486
0.0016817105940211269,0.36105273790518483,0.029109326710452105,0.009943722896144272,0.026329970600706312,0.04211929266620077,0.01501794150081556,0.21388525837356107
0.0022773952263062253,0.31794399372801563,0.03580556830713265,0.009800379269204088,0.011283823760540778,0.015414183193850992,0.024827218357544797,0.22630763368068563
-0.011879732482261984,0.28082347838697463,0.0035938682605853173,-0.0386984453418896,-0.00980175693528293,-0.022034517843612263,-0.021522806851441565,0.2103385971821449
-0.03700397497190498,0.29698570948278413,-0.03112825782132032,-0.08141710997136259,-0.03039611666757459,-0.04909730223102031,-0.0520823343966855,0.18477374091615056
-0.05015554497181164,0.2528508745192758,-0.048237808739152954,-0.08970509391931608,-0.034143498799123755,-0.054844919425550684,-0.05493721348934355,0.201476295414879
-0.014238558513580787,0.301114429399021,8.24876460325849E-4,-0.016304115397009322,0.00881456163881728,0.021324841050415242,0.009996119523882335,0.20824807565994438
