0.0113561899891341,0.39555678449035825,0.04113746905419222,0.04245960077362958,-0.048703949081579496,-0.0512310764208526,-0.03967841095283908,0.5350656446810542
-0.018129914166380007,0.4198319771656412,0.003963109773790666,-0.00589351593197646,-0.08051078919752802,-0.11451375754374915,-0.09558287077315461,0.5284620009593445
-0.029762678918058325,0.4066239023610695,-0.005553606278241464,-0.012838492574404869,-0.08397742147812226,-0.12896109452795373,-0.11535827535102063,0.5098069378939283
0.024661414765490455,0.46090797855532073,0.07570349846883678,0.09137249227814262,0.038230003794930474,0.020055314667865823,0.020679552259721373,0.5676535146046927
0.016141559963737073,0.4156291597546243,0.08722888534995452,0.09107310346133521,0.025558746950722147,0.020658047441037344,0.024233474827607987,0.5704198478231417
0.0240102468157114,0.4358521009381926,0.06809205890877547,0.07368718080871348,0.01791425008157716,0.003482559691633802,0.010440952689838912,0.5468952896426383
-0.005221299248259719,0.4719017675644116,0.02121138261219927,0.02262240322499395,-0.019892037940424455,-0.04834680360701091,-0.06442251199273176,0.5975445594849049
-0.02026622496359318,0.42750808342059876,-0.0100789877808687,-0.008374467209539202,-0.062447293277633716,-0.09722038480310476,-0.11015659660684912,0.5277118717742284
-0.042836060962439165,0.4173431642419117,-0.045376235295666915,-0.04867285044403482,-0.11548592921362719,-0.16292475501028747,-0.1646055546766427,0.4668704950911726
-0.01963920218534273,0.4192247145525834,0.004921543718188183,-0.006466690615641216,-0.04856979975612733,-0.05805299054698282,-0.0812317609399619,0.5035071390793794
0.0011525749240139677,0.46267355051790304,0.03421436577539544,0.01984413079864708,-0.0067000343966881,-0.013958001164476735,-0.02533215844850306,0.5126190450742221
0.0064211420167529735,0.48573893140436847,0.028135909866627222,0.024667292767913795,0.015275264223564667,-0.021931190942191814,-0.02821054547028326,0.5857526215206128
-0.005922179497012511,0.48296942358173045,-0.004332911150885077,-0.01972567934947042,-0.044697395695371296,-0.07675039712159919,-0.07950789851441595,0.5185903183947096
-0.02806190918062493,0.4464572974277712,-0.03478222849458458,-0.05824038173530681,-0.09905229551186201,-0.11868655663819563,-0.13165402930847356,0.5341762014826092
-0.0470718551778324,0.3858953572536484,-0.06485350686973632,-0.08902029718115355,-0.1205401034751522,-0.1735573887740109,-0.1709073652872489,0.5000421414513843
-0.015733263365833628,0.4299910822021186,-0.004020796949991273,-0.02619430940974926,-0.0013231700845178843,-0.07146312237475269,-0.060523794580990664,0.6032849220329592
0.002424971312113878,0.488105813484083,0.014298849733119082,7.969725472703748E-4,-0.004458983243238783,-0.03254930589868493,-0.024035291151231847,0.5903885336936766
0.003380268074282749,0.49070058525255694,0.0024143280056739824,-0.023557329186020493,0.0040906317402316025,-0.0491858732702513,-0.03901288304988257,0.59325842335091
-0.011583570252599026,0.47513585712543593,-0.036386324636979134,-0.06320648673659748,-0.05561560336820517,-0.09601388971859676,-0.11005118514040788,0.5634264773170194
-0.037996882741669714,0.5038042601700796,-0.055849469236590926,-0.09074124539056352,-0.10110341270234825,-0.14534150934272233,-0.16358112533255945,0.5446938678835127
-0.05813691387866008,0.44930024914445366,-0.08859293564780324,-0.12486193938572052,-0.14205650824510657,-0.18236500749118773,-0.19826908324370882,0.46878188392502357
-0.023212691547458524,0.4972968178185382,-0.020275907850341085,-0.048741991910343035,-0.058958976187604414,-0.10663758268822843,-0.10152932481989965,0.4893338873774135
-0.016367808204003527,0.5077868992062264,0.0011008849872262694,-0.004978069248859657,-0.010818913345606154,-0.04662218064872399,-0.04839549783840119,0.4849636075520418
0.0011449906502594212,0.48063685821227814,0.010290288221907862,8.240170966337113E-4,0.002983394969285985,-0.032847484052694595,-0.03795638978041682,0.47752220376916793
-0.01075131364815398,0.4754518234681634,-0.015683896470050057,-0.050383083673023715,-0.05577396713678947,-0.09850308517366436,-0.09782673936474293,0.47357712576737
-0.029293194677129486,0.4867092772950013,-0.05767705814632074,-0.07221090576858669,-0.09845665228124956,-0.1200990499834395,-0.14253244477120672,0.47992295805509677
-0.05157846245097694,0.48333601498257095,-0.08140715605474369,-0.11505142628262952,-0.1241386258896562,-0.19475108619579384,-0.19657196720497028,0.48820148714887246
-0.03298028502000945,0.5224537001897104,-0.04037315456120036,-0.06219701255481089,-0.054619497857808924,-0.12112060647932665,-0.10614296861164657,0.5303115721089067
-7.252633115969118E-4,0.5028720765971558,0.012318647023188606,-0.013548564562956139,0.006500362062443581,-0.03863869535203447,-0.03664925915363118,0.4598649694861045
0.009818692724637451,0.5142841839008213,0.006010040869843081,-0.006696490193313587,-0.0055387151720963645,-0.03673138386857326,-0.052800548341896486,0.5587484379145621
-0.01902426985849011,0.5292851992465015,-0.019639493471720365,-0.04281308630138575,-0.044098833343475474,-0.07079691303595005,-0.08523500676978757,0.5691122449288648
-0.027890203353936306,0.5114547049951002,-0.04952150646290418,-0.0757868403383403,-0.0969318819232952,-0.13548163804891272,-0.1468420226703385,0.4821059068677734
-0.06085725119862154,0.45785856277833614,-0.08166789678594039,-0.11564294438366343,-0.12480529492059364,-0.18585164193860892,-0.20234630735128892,0.4922669361558673
-0.0546130350997307,0.49593234052744956,-0.0744432419255634,-0.09695799754024231,-0.11052092842172942,-0.16081781509061197,-0.17026989388771102,0.49569804943023965
-0.009697736126762842,0.49827255454599917,-0.0024498088641678184,-0.033296117252115065,-0.03761209276535941,-0.07714895019521119,-0.06491407758027987,0.5084356519777581
-0.022637029402996396,0.49932957673606804,-0.011500370081779732,-0.028715671506013785,-0.02396488197125443,-0.07752835285221292,-0.07873544251396727,0.50906672480081
-0.022688237580569925,0.5217759445403537,-0.03669357030862749,-0.05941218575314683,-0.05332391861912838,-0.11338937278782459,-0.12417428862466752,0.5105318402572865
-0.034113934662458024,0.4910181766204451,-0.0640500958725945,-0.09838944318336551,-0.1119145528562262,-0.15014446388754132,-0.18151227221487376,0.4622513631754568
-0.05283120324789487,0.48352560101076814,-0.10128523295848188,-0.13880934442185638,-0.13723805513364537,-0.21056951345744307,-0.22541715168301052,0.44287877915026386
-0.024058861014227613,0.47184293938492633,-0.026776146293532782,-0.0527304179793264,-0.026554709995613747,-0.08287628957831776,-0.10502521261112199,0.49100920737642095
0.0019375999077428027,0.5329628019586716,-1.8468729403123274E-4,-0.018696140858573046,-0.019282311402631674,-0.05946924124916689,-0.0713891781211867,0.5371634960322366
6.539670853484558E-4,0.5343920999595622,-0.011893253613523974,-0.0337709390166461,-0.01130733359219678,-0.07338238552893936,-0.076276773171142,0.48897088974464376
-0.01783351453894811,0.5033390977820017,-0.05096031539739451,-0.07783649316076988,-0.0662003132489401,-0.1362063626790994,-0.13873760523679718,0.4717988555483248
-0.03592986172385331,0.4503774147925307,-0.06328296105835562,-0.11131388741735007,-0.10814787280878113,-0.16354493943900683,-0.18256130490476336,0.4827707031008947
-0.05686201139619968,0.4851226470760186,-0.0950013009799528,-0.13911953769457108,-0.15377718940991686,-0.20619937603912414,-0.23661621936593452,0.5066506362074572
-0.006486469808642668,0.5357989251484008,-0.023220460823354105,-0.04702077419976536,-0.030880770767191375,-0.09316029223751919,-0.09205614298653594,0.4909642735799767
-0.003974091996448159,0.5239227325711788,-0.0017234115425840135,-0.026230143825192287,-0.015254480421174103,-0.06069635368588891,-0.06113716298653887,0.5222818808148694
0.01503474514796391,0.5242916055322413,-0.012967230958861653,-0.025876740033120654,-0.01241581744779037,-0.06579039593419186,-0.08568181426611132,0.5059514907015686
-0.003693876873110978,0.5166248991664278,-0.03662373189328075,-0.06869892834992963,-0.07575633648957084,-0.13736333139193607,-0.13727475798381095,0.5135609899935828
-0.03257826609921872,0.4852862480786951,-0.06925201325505351,-0.08607654132056569,-0.10241962752483244,-0.17431650854785663,-0.19015734548140734,0.46377187088472854
-0.055208126402650166,0.5086678966429254,-0.10148213900131711,-0.13486412405848233,-0.14908605308045925,-0.21804732676192648,-0.23342031939807145,0.460725798929392
-0.014630783766136218,0.5262524898047124,-0.025520152063891396,-0.047739374811936464,-0.03741964303902382,-0.09908471547603881,-0.10504154725066783,0.48897891695012086
0.01718135362019825,0.5048569057216363,0.015489633009230439,-0.010642156347053705,-0.010915601356211425,-0.060018571598340564,-0.04931722565584201,0.551271007655475
0.019982276758400568,0.5098615828607851,8.984545974984187E-4,-0.017168022289174772,-0.009256319165124247,-0.05181749282419547,-0.07198291013151897,0.5300340739806825
-0.0025165937334609145,0.516838983336179,-0.018564457455840316,-0.05191526561225224,-0.04696270678903512,-0.09556657966011055,-0.10820546932589077,0.5501793746817474
-0.005722420274866975,0.5181472542780757,-0.05350920164093542,-0.08233069496884488,-0.0873398191462169,-0.14272762829142557,-0.17088610876117985,0.5324030283273462
-0.028934867316229206,0.484114161567755,-0.06292775136776484,-0.10625042542256602,-0.13275228299997036,-0.19619206322476324,-0.20683255766917183,0.48809358353288157
-0.01810582901929366,0.5097006466840922,-0.032296166520421526,-0.04895367831038361,-0.06626349226723394,-0.11322993998131844,-0.10576596050448313,0.5286339856093585
0.020761856924806234,0.5038952856535674,0.031190857718759665,0.023471008180885003,-0.016401789444321656,-0.02620490319852746,-0.047626115829633886,0.5048349422979695
0.025133800114575035,0.5342562889668064,0.028841739143107267,0.013518352456800692,0.0023822466228219305,-0.03475279580314064,-0.03138190844951465,0.46987769378679123
0.01653273111896857,0.4631973177222839,0.002034231924148852,-0.0013752872901996865,-0.03302514769774164,-0.06014851241352297,-0.07366152301913714,0.5480855633488796
0.006588388339883299,0.532136784138255,-0.0012529722384738567,-0.015565765223297612,-0.0631257097212234,-0.1215194556556556,-0.12792121296356807,0.49170541687300684
-0.003894550687766639,0.5378607588382149,-0.004657181799178484,-0.024056259614996772,-0.11322863848513168,-0.17199232580453216,-0.1741053492665756,0.4498382961681843
0.022816043693069,0.5458782124285687,0.03877373675936696,0.037775570879259035,-0.03640212718964382,-0.06911567763068424,-0.07383132382420912,0.4726045156767706
0.032968320362098895,0.5493976194531023,0.06094950500212469,0.058961836256790155,0.016986447839062425,-0.01126877607525402,-0.01245801761872635,0.5122742977375706
0.02357109706501904,0.4980851818119156,0.045026403019386256,0.03198912383375857,-0.005114041265578809,-0.030349694996826368,-0.02001438522085912,0.5088433820772502
0.01476608462137649,0.5412248365214054,-0.0013237696725449527,-0.018839861491251664,-0.033658535039784714,-0.06676640281619342,-0.05985730387972164,0.5061862865742753
-0.00895409609942983,0.4809171613188915,-0.030424649015027866,-0.06692558926582172,-0.08348837846674814,-0.1272834804899351,-0.13921768754287386,0.4750432358423843
-0.026524983042814136,0.509497174994401,-0.061200322437028706,-0.08472950788751264,-0.12249627563179571,-0.16830836418982192,-0.1685233939366506,0.4805239117469826
-0.00584790619529112,0.4904283551645109,-0.004720389593944038,-0.019263377743319765,-0.03905479154091482,-0.07971593532022976,-0.07539446829933438,0.48729907650451626
0.017934671917216212,0.49980358255068985,0.028974077128735204,0.006188388357730237,0.006574030225400127,-0.027910656094101427,-0.030780790914691256,0.5110133134242488
0.01383939478097774,0.5374556006826143,0.01515985459985457,-0.002008674211525688,-0.0064152076945589165,-0.03585058861269812,-0.028230516892982976,0.5330754440083495
0.003902876121382865,0.49006712346006576,-0.028774754960663063,-0.037147360497581564,-0.04217858488655126,-0.07767999858904123,-0.07630956029125865,0.4393443110750611
-0.01038966462689973,0.4828465370211624,-0.04256062508650957,-0.07191641891957806,-0.09037326837662069,-0.1247796978547546,-0.1306733435771371,0.5133948873847297
-0.03844744982850301,0.513402139144034,-0.049971283187476234,-0.07760282427107859,-0.09621063668794277,-0.13074051270291506,-0.13941601584285546,0.46944279747313467
0.017392085087510622,0.47941724347842696,0.011909878705659932,-0.010063858460518396,0.012751591011205293,-0.020665412687063428,-0.0132719743055605,0.46941997545972486
0.019141268676759162,0.5036517344321163,0.005680736454832462,-0.022546256559031558,0.004521851404104375,-0.024381743570616926,-0.026878963834832126,0.49816175021477405
-0.0029438039471322286,0.4623162865514685,-0.01548930117438748,-0.027852621637063923,-0.003157627789333435,-0.04905157685277788,-0.03940401463506341,0.5231838326248714
-0.014979475782064183,0.4984698850964789,-0.04126327661282124,-0.0613128360355008,-0.07073317752038666,-0.10673467603321934,-0.11817587935613541,0.5057678701875918
-0.039472721498002766,0.46760054850131477,-0.06297619880157984,-0.1003429858180381,-0.09645052197582021,-0.1443653871379134,-0.14612247880699894,0.4980237478389609
-0.00982652521000445,0.49830185661920173,-0.0026781671349291394,-0.017235248414310587,0.0014947815087947708,-0.033083595810267534,-0.025264432534559914,0.47653268440721286
0.023646080857909615,0.5466033299604599,0.023961761191509834,0.01616858624177033,0.024953152955500404,0.012295174566060711,0.014066541477868733,0.5314227850410564
0.021537492221605826,0.5563508636243418,0.02386344274331937,0.025470780833388284,0.029170385231123593,-0.007815512165328095,-0.004433637191330171,0.5093229311172784
4.628647788950044E-4,0.5186417661113726,0.005860279053055938,-0.006432392443068501,-0.024902799455145303,-0.051470979234335995,-0.04486682631947996,0.5358810885910463
-0.0099815145810963,0.4669292783828507,-0.006865187763710548,-0.03204478265175912,-0.06622076643660815,-0.08915030757517017,-0.09800381530647514,0.43954955570883797
-0.013981607965316993,0.5169065536488042,-0.01130980623573366,-0.024965722755220042,-0.060708380873034595,-0.09091022999888249,-0.10612185435044547,0.4645036547361277
0.0328458394701704,0.5599262544161991,0.08695477421517225,0.10006736459515697,0.04796247621971343,0.023938087305385852,0.03317168983821113,0.4679718658863288
0.05180991100662119,0.5205903533526992,0.10267845006442014,0.10577245439001379,0.0478109514780416,0.025072940429299362,0.011344468900141427,0.5261692198526062
0.02405790962526489,0.494916162170199,0.07572502287173076,0.06576565530953082,0.015553248509063247,6.522388726532755E-4,-6.645298807878147E-4,0.5131638673091085
0.016237818489119354,0.5011130334918906,0.030639926845468905,0.02121144997442382,-0.015512450743660066,-0.053938961772500765,-0.054745712200377425,0.46950483414222555
0.0013102537667817223,0.4852210568175979,0.003494253447336844,-0.018977519337308568,-0.08104994732642906,-0.0954579746589003,-0.10501248483073981,0.49277096076118154
0.011677624735045723,0.5122954385192013,0.032483043571271866,0.02209888226384886,0.024919605198364357,-0.015290960061636723,-0.014050026058966197,0.5315323560134104
0.0543342217261418,0.5117514531521221,0.08839394661304696,0.08382130521061637,0.07556413111090032,0.06788779557758629,0.07980014190154112,0.5411445778912125
0.04834174319003888,0.5142447303558635,0.06320106151653694,0.0658563327326129,0.09657093690526804,0.07093646561210282,0.06334255350883877,0.5471713520571655
0.050449778623863795,0.510055704872076,0.032229512364722074,0.013432970462014252,0.04967315628339575,0.025911118818564553,0.01525085924352054,0.5110172736791356
0.024638779301520676,0.4826675065773889,0.021002322114746987,-0.008900408520393192,0.01757260203909937,-0.01520202244301179,-0.033641062698957246,0.5050117571695201
0.016414302865580918,0.5152525948615866,0.00923257621866681,-0.013940071681572123,-0.03123210963877054,-0.0681809211663072,-0.07414675074661548,0.4806694224399728
0.03730877347830837,0.5148276215094635,0.03987441756041831,0.019068575648567253,0.044634979261469455,0.016437100711757184,0.01839357273323751,0.5202820440617085
0.07252812415227751,0.5057848365315979,0.08823985320636205,0.08851430794323956,0.1011462681499443,0.0820556191541951,0.09446559001516933,0.4770717969998739
0.06667509219784447,0.5072159134520876,0.09087992719080733,0.07201102503621018,0.08311728944683737,0.07549696307261902,0.07174277773776991,0.4964103008728836
0.05608427051782856,0.5621080520761988,0.03900042480302952,0.02672596753209653,0.05802308652075831,0.04954359433815076,0.0401983451594956,0.5258262648760075
0.0456374792250812,0.5262543058451234,0.021508008071417447,-0.008948550073304556,0.03138490395415736,-0.01243375365621452,-0.013740003198150828,0.5465866113380673
0.017455177216286297,0.5141172528744596,-0.004352244844299413,-0.029702175331141556,-0.024771621434866983,-0.06396813369129953,-0.06277980519829414,0.4398409049488205
0.02219802601976118,0.527133031360949,-0.007430108433780686,-0.020895051508832876,-7.081745428280297E-4,-0.026785545539129135,-0.039396920874021885,0.49313554322851216
0.06762313475800488,0.5604194985770147,0.07370407897659151,0.06846847769347893,0.07386129772866419,0.07268519034327482,0.08656366973102525,0.5252594703333612
0.057874861880576244,0.5716082897901776,0.0764629926902955,0.05884244173229984,0.07933012190932102,0.06346174598903777,0.0634579715844956,0.5576991317197799
0.06261041001991008,0.5456736903237914,0.05012898292937039,0.020263884510831307,0.05009564618802516,0.04708226936117762,0.03036015179571997,0.5434381063853084
0.035711722586954,0.5257073463079556,0.023858495367307216,-0.014290976148525909,0.00655848256990098,-0.015781159892974843,-0.012050418360007044,0.49071723708566933
0.009857422511713797,0.4777347235545606,-0.01085233938017989,-0.038340258566776364,-0.03783868382985317,-0.06540995984349184,-0.0693307850067544,0.4909470421361364
0.019252696038137354,0.5180337536995873,0.016823422507364186,0.0039107981713167855,0.01550126279789126,-0.005510967612156961,0.007362382519175989,0.4963261543938521
0.04781683649436955,0.5057155042435649,0.047775329666600155,0.03564985103054935,0.042038588254036946,0.02329694210164514,0.041420148654518416,0.5277178857515137
0.03714116069010403,0.518960597440786,0.04283202173243615,0.021993020419504097,0.019803551572944725,0.035506783084695355,0.03209203243261003,0.4970679910196096
0.020466745447639514,0.4832772316490683,0.00389045924679814,-0.024005374223917818,-0.02318654524464423,-0.0269275520465036,-0.024401608123489908,0.4477694092821395
0.007755178028296577,0.5072443047432843,-0.016954493406636642,-0.039587448152063484,-0.043454984645196246,-0.0763451007886878,-0.07934715223919839,0.43635255879993784
0.002824710538332633,0.5174053215756154,0.002112582344972899,-0.011469418793604635,-0.016727449834449952,-0.0324292304629611,-0.02046714618168536,0.503142038367602
0.06073763221599532,0.5268326249728625,0.06266429899809768,0.07241763211700716,0.07694450241261766,0.08123286783032496,0.09792269181695477,0.4994007146516817
0.05819787033859576,0.5292142356168632,0.06676557305721091,0.0583784110601252,0.07980673244046697,0.08382057799290991,0.08229165994913702,0.5363302866911125
0.03823150330087306,0.5505935809994073,0.05509671855749555,0.020505381177872303,0.04096308308449705,0.04445003539093555,0.04669266964710132,0.48850491406049107
0.025053330510174117,0.5291281722829607,0.02396227301459917,-0.0017234514669245485,0.02377361361848144,7.269300342977146E-4,-0.0013804873721253493,0.5383219923407879
0.011858792413424567,0.5178418722742419,0.010386814670271402,-0.006047207332143124,-0.01229512377157207,-0.035387985778593714,-0.03376826347006,0.4345582045909768
0.039585312199347356,0.544373845952027,0.07836068033035565,0.0608910314727222,0.09099746418171688,0.08810644647672641,0.11463268063884018,0.46585874965685825
0.055911719369049255,0.5208429417066951,0.0839189347664725,0.09128201459105534,0.09230541008561562,0.11864963091254012,0.12398922826401108,0.5117587503097165
0.06385717743467337,0.5367934991625956,0.07706777606981788,0.07103651952616825,0.08719236603382784,0.1074184570971023,0.11087653945984022,0.4840246816880731
0.05168685801629469,0.5036312318011772,0.05102971247762554,0.029320814616437072,0.04046899517778041,0.03299891775597891,0.04997536947485651,0.5567155083827461
0.022967265430772394,0.5358861004893819,0.01686423070820377,0.009293055097565464,-0.002687437671843533,-0.003958116721144024,-0.007346485073058365,0.5048655733334941
0.016011192410531706,0.5052821032461555,-0.003682853699090584,-0.033633656402561767,-0.02659124652481046,-0.05125296786234612,-0.028389459734745767,0.5179527463072446
0.06295290244299129,0.5069333268426408,0.08259717991593428,0.07142451123910958,0.08530463204360651,0.09125541926422934,0.11319572704608366,0.4660529219246563
0.06110994373731996,0.5207214501799247,0.0929102594590257,0.08184971591972054,0.07590859916926022,0.09259695789824213,0.10349263155366734,0.521840383025988
0.06062100118341386,0.5102029584099106,0.07860733996550985,0.05573929495081936,0.08135592402597944,0.09122113032306953,0.08243686315224655,0.5378974367563251
0.05335293539672811,0.5012730554901699,0.04621617841606256,0.020514886795408492,0.046014243050961724,0.024978118533058022,0.03511955046153594,0.48269218821986254
0.03709415175649898,0.48827925652692944,0.020441892668193795,-0.009073111873814155,8.827182309327705E-4,-0.030102830401157937,1.8775857694702802E-4,0.47501777381843974
0.02019586759306174,0.5105410778004476,0.01805144040655287,-0.019277049432793646,-0.012089783397024278,-0.03457992213398943,-0.016957239673223726,0.47483406230830383
0.05305522013398799,0.558888993171184,0.07613839702258841,0.08069449520514005,0.08735126144069721,0.09521505128228111,0.10000992810664974,0.5010036704021076
0.05995486145613421,0.5463610518592702,0.08807430984570305,0.07818473104933404,0.09288932873757198,0.07584850192645863,0.11082861125179717,0.4582959067476492
0.06431028447648206,0.5097513942537599,0.06965797909468185,0.06016777443467651,0.058814508784114844,0.04566024098877415,0.07345658534737115,0.4674036978169809
0.03973324951320732,0.4889063168179574,0.0354780041339612,0.016383817421156372,0.008393711021604081,-0.021504129996490578,-0.002240851286296905,0.4295105378209625
0.020281911472849332,0.4992212138812281,0.019807553835954464,0.004535765467679219,-0.03228893012552672,-0.05004083736611274,-0.044622206355643027,0.42262791923613535
0.028347416232397917,0.510573552695041,0.020757349284028427,0.01594040553541854,-0.011927309626383754,-0.04128273045476933,-0.009287150003750619,0.4465506423328833
0.051426493848612864,0.5400030904228625,0.08382850793823945,0.07824716460071375,0.06506740600625628,0.034346698999309894,0.05659019207044972,0.4957160403062252
0.05844114441359714,0.5288668803613473,0.08016758187878267,0.07393516123669688,0.06355038862769878,0.05581114329180013,0.06568002233965757,0.4828299141781671
0.04877685889688964,0.5159103469105984,0.057074693225308455,0.04104880024727335,0.031096528160523006,-0.0037462297924455643,0.015251598137626825,0.4531161659844921
0.04178093990482912,0.4754509898875672,0.03508430225802066,0.02122716995070082,-0.020784978832442902,-0.036674147584671794,-0.03794253306233179,0.43321144737238476
0.027904927439071137,0.4729980886341128,0.035167396085647055,0.025310557467287956,-0.009742537353785906,-0.03265936357274936,-0.0048323395970860435,0.4524967207957973
0.05631065831764,0.570643697210425,0.08532461229763853,0.09066824712920693,0.05066508525383002,0.027486846247031703,0.045794504660779195,0.4908384599930117
0.05260218215302305,0.5253320582734435,0.091147835693927,0.09152985937676833,0.04549321044290147,0.033647508651908534,0.05153987542826041,0.4950898485835957
0.05605944262554607,0.5013887701672528,0.07285645240357767,0.061685892475266124,0.03561694707090673,0.00698230023426848,0.010599878047109844,0.46259348108774645
0.02455154808564939,0.49809852580308434,0.03442102000080706,0.020052239119475783,-0.018608460456151187,-0.06654228699759873,-0.04094366587922625,0.45344923934489767
0.030787948146878654,0.5103287780785734,0.04117912120065123,0.030651320891284604,-0.02521659015355309,-0.06701809698362376,-0.03647020177516732,0.46921452994649054
0.07250175788655383,0.5298901104418285,0.11596244287781535,0.11674416385377728,0.07195429120493924,0.059854213087467224,0.08766211983352401,0.5651787576360514
0.07488879930114191,0.5471008873590745,0.12679664896853704,0.12599842564635272,0.07553597218636991,0.07238806706242648,0.11139288887482002,0.48563707865179334
0.08071816339792506,0.5243750584840908,0.10450104721337097,0.1117449814840824,0.07067758515185119,0.03837164333763606,0.07381404172930968,0.4745794011661054
0.06743654978454988,0.5310468401422969,0.07230086358827506,0.06791531854268527,0.03333326583613145,0.002715108890552525,0.009611872226619142,0.49298671179903764
0.04822137820112665,0.5026335651205339,0.07340861577377458,0.036638953960891146,-0.006682498782763929,-0.03792411459963639,-0.020612120973431125,0.4629121702652107
0.05356607842724749,0.5103506212621634,0.10130187575304422,0.08464286761976061,0.033903322944139336,0.016982638358822792,0.040611094691510294,0.5374641615275416
0.096962608466586,0.5501204971267604,0.15174653277635794,0.15719435116111102,0.09407899697754608,0.08739543687911283,0.11139615977238057,0.4870534186129914
0.09408948805702196,0.5565673876233177,0.15235381768498815,0.1504155948707715,0.08391072415066736,0.0887078090589131,0.10369574071595065,0.5147207570810334
0.08048876228480265,0.46904335705595596,0.11347923805747367,0.0981802702722189,0.0728744993242273,0.03831056760843254,0.05533299318798132,0.5145316400086948
0.07061117062496493,0.5594761671233086,0.08986084339436667,0.071917615681138,0.014963252513829673,-0.003562942413110854,0.0026356462973004223,0.4964905113221697
0.050350228300846234,0.533580477502735,0.05276809577826114,0.03372604062063305,-0.0360909176579653,-0.056673685415404684,-0.05618914587516369,0.48464370068553886
0.06177220011290353,0.5183455377595891,0.07932012456269172,0.08148573610506821,0.017140989149123903,-0.005626421593119489,0.01225923868586191,0.4564650164893867
0.097621901724706,0.5666316980019812,0.1458834761407079,0.1544759964081895,0.0699827245724107,0.0697201180838326,0.08943351351122152,0.546995475182499
0.0916038335258039,0.5259026328639087,0.13243389919194012,0.1434692170054972,0.07058697854502298,0.06987960857349351,0.08403111742546486,0.4756874949889549
0.08565829632073159,0.5143043227928709,0.10556601720184716,0.10242574437980045,0.038693806848142505,0.018222039479317463,0.025424699641494332,0.4487152168250844
0.05415277735664885,0.5504842737555876,0.08270313020500761,0.0687817519678936,0.005142772059466318,-0.0404661824710157,-0.025269302196602134,0.4653121777258536
0.039278588319890305,0.4962955561169897,0.0424426212314169,0.030140121316611555,-0.05119716218691739,-0.08784230045413222,-0.08459695470826699,0.44120383279183645
0.04102060906680911,0.5250243204594538,0.06515367560310292,0.06123922119058224,-0.011021708606939361,-0.04606929957284027,-0.017540475912128668,0.4562612111943922
0.07822965431676625,0.5168935583757123,0.11569097336764991,0.12532767855310037,0.03992965936576439,0.035008681841602156,0.04302150234657966,0.46722963099219583
0.0690835062406722,0.5019148032478882,0.10641657762543215,0.11140833381945942,0.0412150496439962,0.023991979199512677,0.04039180691036229,0.5118871724136038
0.06773558305392263,0.5351684797839809,0.09094485754229886,0.09173220576827418,0.0018925413100581486,-0.015851713709696937,0.0014636969746867259,0.4642055424951733
0.0502721933722622,0.5186519139506012,0.06597463541824528,0.06091956465949311,-0.012366683027857485,-0.06256214837632382,-0.05061959958268418,0.44244677751016
0.036189097350081675,0.4960326211593432,0.05860782856397569,0.0491941751622795,-0.03233804665670859,-0.06659337583678293,-0.04756225318889981,0.4605802975556985
0.07793151381705886,0.5291346486944217,0.11564396290287243,0.11531518733516932,0.05618950997814471,0.034924022028945095,0.05446327901604883,0.46776059611355403
0.07396200511592048,0.5409603890846085,0.10118689476251796,0.11826737032843493,0.041450601087967685,0.03526312263028313,0.046388877748949106,0.47699318972858623
0.06252854507396234,0.5713115544481505,0.09366279335617034,0.09035660081969477,0.04055008374217144,0.008130055579582211,0.025539477755110986,0.494801917943969
0.04611317285909741,0.4968965479868388,0.055547659039918734,0.04371932621516979,-0.018971937098314948,-0.044995960935035315,-0.03698397519455787,0.4963672485556767
0.03815134299005246,0.49405378244824677,0.02713399742239784,0.02433662010456085,-0.0338885919201762,-0.07847243093726082,-0.07270815988034869,0.44168856007156587
0.05230771126520515,0.49879724514786505,0.0844212375121309,0.08417118143543412,0.04181442689143288,0.01497196057217395,0.041412967230170405,0.507371414391819
0.08399972551919274,0.5257840309223958,0.1192830781603742,0.11574102972256534,0.062012065153865134,0.06032398475870093,0.08457084941598941,0.5108099787388192
0.08215757168792147,0.5527875242090505,0.11077205912302963,0.10245121419630412,0.07148060647709659,0.051483019758133124,0.07671233056942904,0.5541624293968992
0.0731786685798562,0.5343334883313681,0.07900298540541359,0.06928631541392849,0.027523851264196868,0.002156754109176477,0.02004872480901285,0.5514203467579953
0.055008266991635336,0.48111173868430157,0.05421418835135841,0.026401718482885056,-6.99705016758043E-4,-0.04924193143684873,-0.020313372103613583,0.509927801486092
0.034891636356299986,0.5037387379317343,0.046038800949786074,0.029352145546513685,-0.03820624996426169,-0.06473590180724606,-0.05484020193941268,0.47987243955572434
0.07691882994862063,0.5096362915907159,0.12831052906728307,0.11426888333716341,0.06381492244112312,0.05284849978563745,0.083907333636176,0.48978616253341156
0.08938034377810897,0.5178608896264232,0.12503759603073636,0.12222916146481787,0.06313755073681261,0.043700562138642124,0.0756704061918975,0.45236937712059494
0.08459672441666244,0.5402481884683814,0.11226292337092023,0.10532423249859477,0.05078130212548433,0.02657812131928061,0.044032619481185725,0.4707712233477084
0.07296327579889209,0.5532061117773743,0.08810123198651786,0.07590827965461683,0.01846554236865795,-0.024138210683483596,-0.009564780871767695,0.47147185143775633
0.056180126664657715,0.5038367734515404,0.06503712271088549,0.05109065870770746,-0.020431117621545578,-0.06785841540721063,-0.04504644452138678,0.4376529604811522
0.05136020890700365,0.521255493067038,0.06998597582493611,0.06506823929265868,-0.003903245110747069,-0.038187953296543564,-0.01711965329686399,0.4088068265383361
0.08561971500180449,0.5429015080440894,0.14268634404422698,0.12328359250064197,0.08188498969202591,0.0400085130833309,0.06916958808975467,0.3957484087483832
0.08799967441516912,0.6017200004310324,0.12144002506561305,0.11808246846538265,0.04548696089920154,0.01937578503538019,0.05353537440038153,0.4472376565037381
0.07446261323754046,0.5576227853231811,0.10087900171011131,0.09863189023289237,0.023906933899505715,-0.0030552202316085353,0.0026299558661116752,0.3999022800676323
0.06461108206962414,0.5719096302902194,0.0724767722560743,0.050955643133661625,-0.025779693802394015,-0.05764850815739608,-0.043477472640113264,0.3878609962690144
0.0420607664310645,0.5399737756165521,0.035796215465933534,0.006599456596380726,-0.05989137845361239,-0.10012738043583996,-0.10053771439311104,0.40432622336360746
0.057121557955019456,0.5146780211032456,0.06972024734985847,0.06155580123297321,-0.007025537606045395,-0.0421876971547905,-0.03229351554824679,0.4258913612264204
0.06778778685759744,0.5813584668110424,0.09662502275856326,0.0795236830049794,0.005119079200691859,-0.016626183929968903,-0.007408719227086286,0.3976618238287647
0.06820281301722864,0.5772529615832023,0.0914160239149244,0.0787670335025907,-0.007493089492782901,-0.02379771869314342,-0.01686309402470723,0.41115758942732555
0.03700365298291534,0.5500208533432838,0.05253232202071023,0.030561373817496008,-0.04763797443684091,-0.0713549212927557,-0.06744240947035399,0.3761891049100237
0.023145150596719736,0.5237538782147401,0.017965002927546894,-0.014030537348910244,-0.09136897531869093,-0.11489116962175584,-0.12473855272408836,0.3707435990060313
0.050724977150422894,0.5803842969808419,0.07047156801788877,0.06191480687316369,-0.01017335665230933,-0.03566370111964879,-0.013889154965986812,0.41941192382592773
0.07209606191014256,0.5914971414051868,0.10787104382943674,0.08891634056762836,0.017380301009672146,0.027723764273320153,0.03999948207853909,0.4360221718532044
0.07577947603678514,0.5545994164415027,0.11263144570187283,0.08882555974731358,0.02757711332756435,0.015965239011204436,0.0374645047520089,0.33662551305326643
0.06998313957752605,0.5403545365034425,0.08041739349674869,0.07363139864599642,-0.005711152651656375,-0.019267519341200343,-0.001134149637071201,0.3400540294849056
0.06812676280060882,0.5287806116635168,0.10155114978274148,0.08066771544040681,-0.034251980503324904,-0.04941410436177611,-0.025737406015993513,0.3273802577177244
0.0689135571239553,0.5235685823790404,0.11964676991781052,0.11539048802414319,0.006411932336649584,-0.008044511310056093,-0.010646858651288048,0.3616193875271859
0.10558248667920511,0.5500318464578884,0.1847888454383201,0.19497425687744252,0.06325958230249332,0.07584525968185014,0.0983672483474845,0.42087080827768913
0.09267845941766356,0.5504621985990538,0.17828713432384646,0.18752897509805594,0.06603638901122515,0.07596978258258137,0.07595345245726466,0.4300138719359434
0.09190763224538481,0.5413424007613574,0.15254308646548392,0.15622776268536184,0.05032300952660552,0.029486405432430828,0.051464233542854045,0.4113179862115198
0.07128439220184572,0.4962565529406654,0.12401536762858686,0.10776895713832793,-0.0054788795421913325,-0.016067922919009457,0.005436611060133559,0.3785516550657714
0.050468382719296795,0.5060969928580944,0.08588715179733415,0.0706051232260051,-0.05099258162672678,-0.0704738486518468,-0.050280992742862386,0.3743272595075425
0.06600226007412983,0.5046436573046185,0.11764233616846076,0.11953617090399696,0.02245887328332186,0.004375168801891632,0.0166892054044434,0.4451861345452724
0.10276379661658586,0.5506473709655819,0.14657448347459207,0.14268577172830496,0.04822653448706353,0.04606622225111176,0.05548322328345625,0.4205079698993437
0.08839184670522732,0.5524471758092548,0.13095601806201962,0.1414654030789363,0.032277869553304736,0.04080665425384901,0.05426836367679113,0.423182834128234
0.07504151521589596,0.47702273945785595,0.1383029485889815,0.11750807782848385,0.004252516915558903,-0.012056131956898046,0.01275167916437948,0.42743967650930337
0.06686251495679453,0.4985681483901106,0.1255078758330034,0.10682531719387427,-0.03323883840214184,-0.04632447140431653,-0.04143789446636025,0.4000328441732602
0.051099152372354906,0.5079011167774745,0.09736642938984567,0.08663290369433396,-0.06166095461332691,-0.07659362151837949,-0.07143362779317194,0.36258763938024563
0.07717016778435047,0.49893045322671054,0.14776131122865196,0.14695117325262844,0.02545974166692216,0.018173105015551947,0.036108923286002806,0.41063724510339994
0.0701118609438338,0.5309997433166194,0.13218380169485244,0.13657499836621756,0.008298267989832684,-5.293274291346007E-4,0.03264742170405126,0.3781676577352475
0.07338709875368596,0.5121409530772218,0.11504177586457941,0.1055694265393064,-0.02233437784088673,-0.025629732014499355,-0.023234057203323173,0.38516263659870936
0.050683214748159254,0.5033625484623879,0.07789213498521384,0.05943449200240683,-0.06871087536807145,-0.09025252898537577,-0.08230507471312302,0.3409897571279863
0.03265612186542819,0.5417550640532194,0.06138637654216838,0.030462177381362112,-0.10260753825470345,-0.1344809972203666,-0.12572631784767394,0.40409049635483807
0.05795576533196381,0.5570914617426725,0.12009158690653042,0.1072962319173676,-0.008528551804810797,-0.021920530285874294,-0.0040249131257183105,0.4334553189092583
0.08045420429033036,0.5713567590127109,0.14233475696706474,0.12945861731741293,0.022671973139015644,0.010256222569484854,0.022921421337785713,0.3909887133784692
0.07177294561362356,0.5375971370408201,0.12654863224533985,0.12317862198428962,0.027129242983440098,0.014606946431057689,0.01136149578645154,0.3952674211737494
0.06238858263393483,0.530030798651985,0.0865306575679066,0.0729372828446457,-0.022454487222526902,-0.05636788170928214,-0.03637579012958032,0.4090377140301961
0.06016009346088216,0.5506330715123284,0.06834957326833344,0.048534052136619064,-0.059034381846000676,-0.10234393530785561,-0.09306593475579066,0.40911462596425013
0.031476327570841664,0.4785981349911177,0.05958549630623938,0.04291664647881502,-0.057126779593185004,-0.08979649239953122,-0.07987851046162411,0.42379513854409634
0.0752426743266151,0.5680520731074259,0.11890743257574224,0.11759797918369275,0.012816026161514622,0.03597491670962605,0.04414334903072662,0.3967718041474201
0.08131583968150903,0.5046653636900467,0.11295696322982744,0.10098545800584761,0.032780836047339404,0.004258185135224432,0.02214491315692003,0.39371292834567717
0.07518952976950072,0.5411938610784615,0.10564182187590276,0.09033926559380101,-0.013238692425328477,-0.012353921988768966,-0.015152529735447902,0.4063251767607155
0.06495903420194171,0.5122378078658121,0.07611028938922142,0.06592198815482524,-0.05636949685908452,-0.07023196105430282,-0.0704038465327704,0.3949286563240607
0.04667342630224279,0.516349719982785,0.054121492952915976,0.03468191633546624,-0.07690281018914764,-0.13357453292257845,-0.11901668372051187,0.3619871670190556
0.05569754798671328,0.4607833211863258,0.06824185629796775,0.06389377210263582,-0.05832910846286109,-0.07417570085055487,-0.0706556583104761,0.3333450407269388
0.08002344350619005,0.5333335485294016,0.11688697781249352,0.11242390106192524,-0.01119666855840516,-0.0045375115590580335,0.008020932758966997,0.3938314397976254
0.07420314481359959,0.5239337631295526,0.11916267890517077,0.10254683563700001,-0.013638785175535219,-0.028077111501134417,0.008151604871744003,0.42033172488803167
0.06702905962880329,0.5077555519580292,0.09247241438094898,0.06681101263636924,-0.022990260213884155,-0.037441724569752484,-0.03425807183227557,0.42841778858618274
0.05136596979253822,0.5049497592574013,0.06653154167629732,0.040916166582681074,-0.06606293837101253,-0.09297698781196188,-0.07976240235791593,0.4011525651672285
0.04777786575514996,0.4934721855244319,0.044398365044751115,0.02350800839764418,-0.09150954169062342,-0.11724357068743288,-0.10442977206672609,0.34925164922785257
0.06847317920995098,0.5292238576409645,0.10661496315751412,0.09906345950090725,-0.0063359671239207336,-0.024699694931905585,0.0061679710026007716,0.4016764065285314
0.06850728761088362,0.5396804983841623,0.1165941851654124,0.08982410986346093,-0.012708261001731173,-0.02080042793036393,0.006076803624690187,0.3956264163744325
0.06660929724365938,0.5578895389033625,0.08023236067454721,0.08118825352935138,-0.02329823097517575,-0.04696412005764925,-0.01767105548461048,0.41100574356266517
0.053151054002312126,0.5488993149523315,0.06944644889793836,0.04476682403535971,-0.09019841453842177,-0.093302028564374,-0.0817852799995359,0.31647806045532667
0.03729624664284245,0.5068512538815725,0.07198939248745886,0.05334453742589415,-0.09934001532728134,-0.13751879786161114,-0.13507716101287076,0.3318055677665525
0.052852302747030046,0.5445447144433533,0.11680408962208187,0.10515228547008984,-0.05516933147450469,-0.06819685814782167,-0.0598987601448335,0.3444648607795221
0.08885572457907198,0.5684144621709043,0.1616101793005783,0.16457700140736983,0.025204015702627182,0.01705097630957789,0.0425305029071824,0.4397884990142553
0.08974847448731864,0.5688488878714392,0.14057079871332437,0.14884082805557075,0.018735941829670956,0.02439973659453132,0.05118161727169169,0.39509641603568885
0.08609997787467136,0.5281372954859868,0.11860756082846106,0.1082510592174109,-0.006643048436843243,-0.009073729659671062,0.003010812294289264,0.3448255642876126
0.06197677841534541,0.48607626257896697,0.09155161972094236,0.07494826652123164,-0.05866037772418878,-0.06193465336644888,-0.05411307459941449,0.37533053015979145
0.039239990781903156,0.4823933756363988,0.046793292871919225,0.043088609080773776,-0.0866701474374067,-0.0879396864881334,-0.09018405476703593,0.42377250858883786
0.06493476103138605,0.5035834721939247,0.11632147422740301,0.11177303107000973,0.03201983761194797,0.021320642393718114,0.03750145144737191,0.45755465928788014
0.06666226860990017,0.4616507242889609,0.10874889725976229,0.12072129041732044,0.014718837240570609,0.04003729186934915,0.06472796540252727,0.49375347713906154
0.05564496683783888,0.5053236500308348,0.09911320454819812,0.09747276745800586,0.021951770821658542,0.03445464422074212,0.04595133106828344,0.4338469725273118
0.04177893550769097,0.4664003961331551,0.05910677283170733,0.034945474648454294,-3.6040027652879843E-4,-0.026976207591686868,-0.01841471467588367,0.49496782119287186
0.012883653421825032,0.462383774003885,0.014185624874903453,-0.02259924110894576,-0.061019645718875394,-0.08801892447778295,-0.07178600693217281,0.5304208843895126
0.01316437604263224,0.5028240978033343,0.0158193800113243,-0.024627263382307668,-0.10683627698710685,-0.10186753226520548,-0.07394329687418583,0.4858739603738801
0.04960743604947626,0.5562991338643831,0.050500826408634014,0.04311129654266883,-0.033927100239877724,-0.005824030804020112,0.027573739131539265,0.4619096167023551
0.0524498129738686,0.5593599983227622,0.06640707535950488,0.05066394977677289,0.042205740250598624,0.05754320261460077,0.09132525609800256,0.4088530970786352
0.06019010818525717,0.5292652619566905,0.05846430184138759,0.03106497786707172,0.02324364414051458,0.040829265932921126,0.05401031556706667,0.4827788569863779
0.04959576783283213,0.495123982775533,0.0364970990647282,0.007026403952920165,0.03704321348099984,0.05481045757201447,0.07413564669599518,0.43887002039199013
0.051548160611099375,0.5408987797401594,0.057729334414760775,0.006341726572742199,0.08648179335183068,0.1259659308745085,0.1629071923237178,0.5130563666871466
0.08390156006843516,0.5557838331554389,0.08039760569638787,0.04768653659191754,0.13656620144073836,0.15812226590978964,0.1907932160318049,0.5418541171947471
0.048617992789945046,0.5243344229879989,0.052952607106750066,0.0031625013262931885,0.08692182526596885,0.08270732681501179,0.13001244473090157,0.5597533103571247
0.03493723858531106,0.4662037677873128,0.0032770559824454835,-0.03822034476808975,0.03141941525248079,0.03368080736600902,0.06376546593774385,0.5109181020136936
0.006672250976945992,0.4714438950994307,-0.03118373216098335,-0.07570176790886476,-0.03353650335795475,-0.039676009906928815,-0.026461922966973445,0.5565822382292819
0.03482146374565571,0.5112168463577298,0.026368925179815123,-0.003393279544477294,0.03515398136942022,0.038983618326027855,0.06488920836283293,0.5346595449878105
0.05223449978570493,0.48594460761699,0.04788919069200738,0.01597151186192544,0.04836891556963008,0.0648616925260429,0.09532710238654972,0.5764177742230282
0.04570878132283941,0.5113666414183993,0.0239586655324883,-0.0024140588816599085,0.02561828047256188,0.05055619567025406,0.05187490044161974,0.4636771585472104
0.026662591337467036,0.4867996921135032,-0.006382435571544921,-0.04451944926346113,-0.02863689261407474,-0.02369108097331023,-0.0012981396877727557,0.461196713318279
0.008988699514410295,0.4747752002223882,-0.03330090066784759,-0.09803031917393776,-0.04603800793590193,-0.0841822058258776,-0.04283400596727875,0.4159152076339526
0.045308766825073066,0.5769221770351012,0.02086480108081202,-0.01181175574531072,0.03220367409968905,0.029094261401034747,0.05965485876435523,0.5554112142133089
0.054812333724294574,0.5311203140452435,0.045717930800371745,0.021532527272310562,0.06486347643579654,0.06042721206642879,0.09328954290203437,0.5195449950791454
0.04379891280541552,0.5136066905404448,0.029049169708482515,-0.009186101746019398,0.03927682671808428,0.04823315672817747,0.08045375709766335,0.5127352174870234
0.03674865263090897,0.5225890361558454,-0.005700891738206131,-0.057191073579189594,0.013590859441315786,-0.012802403008676081,0.015166016786191346,0.5064714938175994
0.007734003818927564,0.5347069216850658,-0.026325238032090723,-0.08621199527147623,-0.04597197141358484,-0.06728782945008296,-0.0747985731062781,0.4714342806902315
-0.005608032090827983,0.5319693349160683,-0.015972668545857174,-0.06131185706946799,-0.0428086176180835,-0.03199126291275372,-0.026794863640520115,0.5130391111616803
0.04210682347073622,0.5803127807619368,0.04350847520305802,0.01073736978438327,0.04421326587195215,0.05465443802089428,0.0736929484674772,0.5239601383979814
0.05029859520666732,0.4986465204944046,0.02526271264176798,-0.00527265001119992,0.01930891198014888,0.0424186835784449,0.043143554558065844,0.5082037996680814
0.02741449417368042,0.5063503092463434,4.0648761591886677E-4,-0.037999608749939545,-0.002327457590435466,-8.875491556814968E-4,-0.008059876626877054,0.4644377187631081
-0.014438685694588178,0.5003460968767468,-0.04148410466505449,-0.08412175432187753,-0.05453063153374814,-0.07423140667601681,-0.07667336509795651,0.4935819976172229
-0.019048031439551336,0.5124965834666037,-0.05239572205068374,-0.11254885415060369,-0.10277508565085058,-0.12350802666941539,-0.12343841037229678,0.4469634667823772
0.017770369367557506,0.5161138697319074,0.014513406813215737,-0.025318206417497064,-0.015458838912559685,-7.98087978590125E-4,0.009237769617215362,0.38427838386715474
0.019716869650354976,0.5566740788148434,0.01988850474823496,-0.011116318677733262,-0.005668571430283731,0.008506798452396765,0.035362234969729324,0.46185888871175707
0.008583541426874534,0.5629311002954982,0.018829950009720937,-0.010748994687250676,0.0025947219297853923,-0.012132593261596837,0.007826825478066884,0.5091144138311452
-0.0033492743820009324,0.55337732275265,-0.011033659602525546,-0.05700532796028194,-0.0647930087138546,-0.04518247690497525,-0.05294374373621463,0.47280270182724954
-0.021900035972324667,0.542993314792079,-0.05637952514195802,-0.10571234052649248,-0.09686692381032003,-0.12111981786086186,-0.11066938330235712,0.4264794243920963
-2.882862941925748E-4,0.5517175809785934,0.005564717698471153,-0.012592878720241417,-0.025145393239406615,-0.01752534967668631,0.007989339298637786,0.4439717429646225
0.01470558488383662,0.5286622522752068,0.042334665411023084,0.027356529694871942,0.016181404235920283,0.037692180348613394,0.045713445740317396,0.5169087321277478
0.008348747017189734,0.5382861928327749,0.03610884307155128,0.013104256839635441,0.017587046546150082,0.030214679091144076,0.03928152392941246,0.462507899534906
0.0038168809050129478,0.5555695793694705,-0.006614340894069513,-0.030097513690537786,-0.04435114836447554,-0.032481433828464794,-0.02546794451285639,0.48282176876545385
-0.026756516519370648,0.5111333862184518,-0.03523820220452878,-0.06517048869784003,-0.07834430651092214,-0.07796665428087163,-0.08403198224550304,0.4303668233018925
-0.027499166741004825,0.5014722289485276,-0.039344255281340654,-0.058990369043934274,-0.0782227469865203,-0.08852310919698467,-0.08757859708059536,0.4255544200619771
0.019107870818366762,0.5435922244241547,0.052270137012267216,0.041212133213818405,0.02911726210447222,0.07437287962176684,0.06893160939149262,0.4815488937288494
0.020961013137475636,0.5624046010399646,0.041079317573382346,0.03653923716382951,0.0329646094114457,0.04019237224356461,0.08007780547376872,0.41173096223230593
0.026263564264640417,0.5751165804019246,0.025426588441149242,0.009676830534279594,0.0020056360349915113,0.03030164914931855,0.02499209958208056,0.4618685758511929
-0.003706215690148184,0.5589115193896996,-0.01012281180379013,-0.03892378276100113,-0.039690198565195414,-0.029134474493751936,-0.018130912860058475,0.458093804325052
-0.014773600821385013,0.5136971944260305,-0.03147676731990451,-0.062151491778619575,-0.09220766596244083,-0.0838269200886271,-0.0728004116747166,0.5146781017089515
-0.008430115034897833,0.5215218262168628,-0.0018358286228523334,-0.029127802657632394,-0.024516972560777724,-0.022837557942804572,0.00208286805844125,0.4852519797437567
0.029237605371835965,0.5416225332572386,0.05604044508815084,0.05393960182960238,0.05091116227736252,0.06966544634712615,0.07884776790510668,0.4383776759983562
0.028877359466077536,0.5570656905825886,0.05942244122833501,0.028530320444911952,0.04684215380763443,0.06138405283768076,0.0768574210499627,0.48806131377321404
0.019347385943857792,0.5496628799931729,0.027445521736844978,-0.00368368488162292,0.009404859945279915,0.027382720401884338,0.049295241598845685,0.4495260260158981
-0.008289663489261873,0.5043172704781573,-0.007698295959795873,-0.03477273338371112,-0.03329295495074662,-0.037655807359798815,-0.02763802355034012,0.44260722556234733
-0.016614269262611156,0.4689027154473544,-0.03954945353015214,-0.07085791026106494,-0.08391265320359557,-0.09690983779036519,-0.06594089685977575,0.3705511728823687
-0.011359509415097856,0.5365656417530222,0.0018841192367046247,-0.01766704989958708,-0.007424298772039192,-0.0022549754774775915,0.021667834554597983,0.3956243872762921
0.017424274100272273,0.5428461006319808,0.04578341116613609,0.0431855767088454,0.04239678256822084,0.06055325776778082,0.07813572959255258,0.433733730103033
0.009887451779780558,0.523964084558376,0.028717856291487088,0.019650734640426694,0.017104491951585723,0.036171145401921824,0.06830103641903304,0.3945002672975939
0.003137420354183227,0.5079839178870645,0.0018245390087751703,-0.018831009829304367,-0.001414919771457631,0.006565420016929245,0.016611534199654422,0.40468312583654176
-0.023091031773699065,0.5076707475622817,-0.0326721704279267,-0.06426754714083004,-0.05921941655386808,-0.05925501836548594,-0.041577676666025715,0.38626385953710457
-0.03349181178676784,0.46908066012015653,-0.05105839308435513,-0.08575449376994954,-0.09956624827064503,-0.10321575375830741,-0.07364443934596629,0.3963670604444649
-0.003920220598113331,0.5466180673395158,0.019529334956449332,0.003157008981318255,-0.007177560077046631,0.00736400220429401,0.027216148138114474,0.42457842419492864
0.005403990987171539,0.5343264103216776,0.020799384695080185,-0.004277014585619094,-0.012092538415785638,0.01157088239919371,0.029662838438100067,0.3947909176142532
0.006620276503930356,0.5545560407169281,0.013608958035703302,-0.018814689048598683,0.009161865386802573,-0.020824171930886648,0.027629320624289175,0.4275975875233225
-0.020567056490151996,0.5172615755659811,-0.03604254524118807,-0.052928106175928975,-0.059265926035204544,-0.05813808085440432,-0.05346784870788454,0.43385514094434907
-0.03669301870604827,0.5561646276887648,-0.0616372025060446,-0.09020278288841699,-0.10893688990782065,-0.12090368847327189,-0.10124378780379979,0.4419241249394342
-0.02274339458364421,0.5069889994131902,-0.025909306825542693,-0.03022459605285876,-0.03228582763446454,-0.0365746536913063,-0.020514666195463455,0.44513547718711416
0.02416057073821544,0.5537095244172976,0.04737550766220195,0.03916512993318157,0.051033937937711916,0.04612731825949654,0.06406945229182599,0.45641161615110054
0.011259154076578189,0.5371189848857955,0.03305349399605323,0.021628734391544276,0.0039022663955880516,0.02983924123217786,0.05309466487414531,0.49997042978292794
-0.012272789835901115,0.5258254059602089,0.009605434336474178,-0.016664864949429682,-0.0027573061229166328,-0.018894542203141317,0.007376456165462564,0.4305594078681767
-0.017473295082708357,0.5051127935986804,-0.02643504539084812,-0.057766660194918426,-0.0576319240768782,-0.06514002412824899,-0.06291208088883299,0.43353889548332264
-0.03619704970729709,0.4999952800661772,-0.06367347965457888,-0.08568977718652387,-0.09726659295860064,-0.11367534921377569,-0.10504253596340093,0.4089929183782589
0.00408777013130119,0.519313499417873,0.02233625631734439,0.003192236903746667,0.011800398982505195,0.007846651023758509,0.01279341976214504,0.4508162770546542
0.02828667544692564,0.5508749015865353,0.03125746691525601,0.013848404002970278,0.017736353282458952,0.020623540897803248,0.05397015392815248,0.46025056009335974
0.019053760276667712,0.5363375128368995,0.022253758327977876,-0.005852516449522133,0.010396765185957352,0.0014249154333716117,0.01986178006632077,0.44392186311006443
0.002474573001006824,0.5122746750407365,-0.012158678559404376,-0.0516708103026273,-0.03292411222330155,-0.055367238912195,-0.03383545892277662,0.365417090508627
-0.015980379607197847,0.4964350818736668,-0.03813663266907041,-0.08711933128869653,-0.08177935840008874,-0.10390072138721715,-0.10085399226089824,0.38419267102428634
-0.022192448809416718,0.5077984523552852,-0.060061443910289426,-0.10254630766200795,-0.09816013873435563,-0.13913414543565694,-0.14177040182508685,0.3282352269370885
0.011609533787884783,0.5389999998068449,0.03284778767538442,0.019698129518889513,0.0013755099518740939,-0.011247107082460845,-0.011452672575703565,0.4143624889617221
0.03796515667108301,0.542415110695173,0.044888530903284374,0.021832587880405284,-0.005425032769651353,-0.007416278346960373,-0.008272071255026313,0.440291409446371
0.03208635466757093,0.5165403513451855,0.020485622988956224,-0.0076301655932757995,-0.016194430182044434,-0.038243940388521705,-0.02250407009249894,0.43130805855381427
0.005706164473232262,0.5024312808055696,-0.021390750761784816,-0.06404096541006113,-0.05708062351419839,-0.09681761395411366,-0.08994239563142427,0.4365727911032363
-0.002574111188201488,0.5107692432819119,-0.04909633659741959,-0.09840511763394055,-0.10512021586755502,-0.15334417585576282,-0.15952122684002598,0.3989733047658408
-0.014385704846053959,0.5381226290969339,-0.04692452935040757,-0.09215292633808596,-0.11464533459214937,-0.1588407573302469,-0.17288422577571327,0.45927630484790477
0.022643172558754854,0.535979455674918,0.008428527371176865,-0.011324718114678719,-0.029483021271562965,-0.0681820257474014,-0.06655240093987247,0.4447735054600255
0.011872481683974305,0.5355252586779222,9.954892978705082E-5,-0.021260588578573977,-0.02390772946451733,-0.08311555498266494,-0.08418410179479732,0.45653340350807314
0.014027776266406652,0.5528501438129604,-0.018877003755564628,-0.036886404279958936,-0.05734727421712399,-0.09807662598964342,-0.0976220845966081,0.397312549009625
-0.003982846697520911,0.5419178182152207,-0.04062375968788051,-0.09601561819078665,-0.08555970972668768,-0.1536575821824845,-0.1618867964170419,0.45582342168507084
-0.032052074788467125,0.5345282831224609,-0.07046786786116166,-0.11523810501509332,-0.13285041885363544,-0.1945128994003329,-0.1965690886690721,0.4074896343698759
0.013873344812958929,0.5366508685987879,-0.00883987710655932,-0.025137393943341566,-0.04047464229162962,-0.07794488849690237,-0.0820178113189724,0.4780976471069583
0.017977410689883632,0.5622384194870846,0.010170711868761888,-0.0017766664312849276,-0.015014297906679089,-0.05637310162905394,-0.05716691260788555,0.4888427972971689
0.02146539543534992,0.5428012429824882,0.007033849643803186,-0.020894002078803285,-0.02570849142790775,-0.060874301859141125,-0.06877739767594651,0.4560828904038315
0.008285931913872266,0.551175614010909,-0.02101584591857303,-0.05796787979397987,-0.04446008513830066,-0.09144038717132251,-0.11721007885790902,0.4645521470457202
-0.00974628657134853,0.5581046553249329,-0.039265137582451703,-0.07288495508879697,-0.09820335522408244,-0.1544557593661553,-0.16779896959591764,0.4676414014045968
-0.012478202576832721,0.5223928094271523,-0.06048208495022522,-0.08983303648700286,-0.11320627949956706,-0.18296816931585977,-0.19338738760871999,0.39436057703090693
0.02635272297053045,0.5818188542902819,0.030144066181772164,0.017194761327972492,0.004302088403450151,-0.0452132304960359,-0.031882582517482494,0.48142210794734996
0.03498674047550725,0.5980673000954803,0.03334264057496087,0.009184237473290453,0.025419274156941195,-0.02579639639818382,-0.031441942657858504,0.4933329156800613
0.045871457775505275,0.5553214806808233,0.02028167458554188,-0.0024977257164242803,0.00439078814015742,-0.027715692922587146,-0.05228806442242609,0.5028218704251549
0.019679819107265874,0.5463971937893286,-0.009710229623748345,-0.03988445564158594,-0.04397317876841632,-0.08851529788283402,-0.10594468655926162,0.5002129354191753
-9.057475766831927E-4,0.5702237213942185,-0.022530279555967522,-0.0693224834416932,-0.09497692318184642,-0.13138778054633582,-0.14482617822120983,0.4996982306344417
-0.014384351703007971,0.5525485786205375,-0.04743461257096396,-0.06638948912045232,-0.1130539220392664,-0.15250543028910465,-0.17227483722523335,0.44895383965763336
0.03157202691899092,0.6399942209311114,0.04351950652926842,0.021309650326895566,0.013421912705700381,-0.02923106512555146,-0.031245246117920095,0.5004506664304869
0.055304418106290935,0.6035494439757745,0.05062893103118858,0.025058952966579888,0.039342923321058834,-0.018201773755492937,-0.03690235689662873,0.49291621498307886
0.0509825232440355,0.5995590683047298,0.03411019836691759,0.01311361750064665,0.013898822784409418,-0.03972282339024605,-0.04001215699793208,0.5082531914702093
0.02870320737889536,0.6376848919597888,-0.004181553830433518,-0.024753736325999226,-0.02523185596789316,-0.09265013487669002,-0.09303149584540475,0.4000104186031341
0.01520614340403478,0.5413870634593748,-0.024497369140808342,-0.0453476204380997,-0.058462029856977446,-0.13022745329938495,-0.14416706883985128,0.41034456275313436
-0.0016765162307929155,0.5556579712637352,-0.030061526507590988,-0.0661751383520153,-0.085509289682044,-0.16655371223329435,-0.17643067766723325,0.475479483030673
0.042213647784511574,0.5877954146423697,0.03022529859161055,0.030929935901826806,0.0037972141901275597,-0.04521298894159971,-0.027764998153779585,0.4768905638899703
0.043344556343040554,0.5913667276956945,0.03428471324849743,0.02352694744257347,-0.0043426942067508675,-0.057189164378266696,-0.04954523249042361,0.5212754650725134
0.03545310828575592,0.6037718108733058,0.025244737832989486,0.009657219338031944,2.718293133251587E-4,-0.06183057621355724,-0.05187504005621883,0.44592848467463975
0.016259762164867096,0.5992443941219335,-0.004556701833205931,-0.02792429572225004,-0.02783581613843262,-0.10825200637731332,-0.10889251638636216,0.4166513434839795
0.013730565388087573,0.5787000908737655,0.0077128457014633695,-0.02312991991381491,-0.08974490076683148,-0.14630800937996122,-0.1648580290354727,0.45746288992432915
0.021193589465545105,0.5937720775869745,0.0369454507734102,0.022707863089823657,-0.08379885240215043,-0.14951274179901383,-0.15471517887637104,0.3885481827592266
0.06501865449773855,0.6268351792348552,0.10358990164800755,0.10486165101475502,0.001048815374865078,0.0019809495694067952,-0.0063017545884895,0.4059427965069836
0.06894672066090297,0.6207993185925023,0.08933330039842324,0.07745686421659256,0.030177315985594307,-0.005637812273481216,-0.0017296334126977175,0.4361314567474396
0.05195389098196915,0.6435180620151708,0.05968606166613255,0.04858470131571627,0.018229543944238098,-0.02329778573576545,-0.027527636133162114,0.42885905673928604
0.03255632991891144,0.6178316534124566,0.022515684207979378,-0.0073152678897632495,-0.03812506445170972,-0.0855382315886478,-0.07574850240048595,0.3899202351137069
0.009103615148195621,0.5884171537566202,-0.003979239038759727,-0.03579950445520416,-0.06808348930938354,-0.12060698954756505,-0.12338819208715217,0.39618215053840283
0.009887216039516655,0.5991055625704096,-0.005487954529027117,-0.021118537028611536,-0.0690261691562157,-0.10255786888228027,-0.10425069377066361,0.3749879895247211
0.05592014225613763,0.6466197287368716,0.07502088631894022,0.08319827448522583,0.033963768759292065,0.02308995815822562,0.026584957447079297,0.42975727668375674
0.058184598604149484,0.5986874929652921,0.07728946108893764,0.07300914683904351,0.0445464229887606,0.01144148368258735,0.023346890888036403,0.4307371054768543
0.05501686712579201,0.5955531238992092,0.06143613677960637,0.046234683243332686,0.01403609907645894,-0.004336141044794586,-0.019382172437064644,0.43760136597439064
0.033303312993182135,0.5851977418321661,0.02501462967414092,0.004090027291368634,-0.04137370116051662,-0.0607107375306767,-0.078518618814026,0.39191819287894164
0.012483006852103249,0.5905800541104987,0.0033429853119900446,-0.021771654742059873,-0.08253743843685393,-0.12161176035981472,-0.12020354270541031,0.35521128142283
0.0057559728492786524,0.5934129745107348,-0.013240616444843756,-0.028344843254244752,-0.08171001913797238,-0.1267537019090582,-0.12056858323516942,0.42298131710011244
0.040131516022160266,0.6036978189313602,0.06738022024567243,0.06826148423687345,0.02092573770113786,0.01884907520305831,0.009961496564409311,0.47514784347805167
0.052905906832903124,0.633481669721655,0.06451931138557723,0.06150131716265533,0.03353325727707808,0.01369673417154079,0.0013496745057014967,0.400901710404052
0.045689459238585806,0.5320182315483036,0.058915086123139296,0.037041384262407814,0.01394394693038848,0.0024459838781038176,-0.01573923320785338,0.4689550578832923
0.040205651981338235,0.5284316116284743,0.019748911660129025,0.006494308892748383,-0.011790336667661744,-0.04777871828724423,-0.06243465574872071,0.5121490194564805
0.008285673570478795,0.5524775785689274,0.0019422858535033394,-0.016488175494326678,-0.06713511609669573,-0.09629414462529967,-0.11018642862898578,0.4556621554030752
-2.2114748996705097E-4,0.5224880333213667,-0.0027676956491279325,-0.018833351507508853,-0.049841862815341614,-0.08739181337524318,-0.08049319326294446,0.5341482032677405
0.04512103184531489,0.5331551729356497,0.06729712342473068,0.06296581437333582,0.03756721356947302,0.003015499463245197,0.010177858412216842,0.5472523908422762
0.03365273936059209,0.5338272431650806,0.0529997149679976,0.032760787663837436,0.013572811809144276,-0.013876474260768094,-0.002601729864916011,0.5153228963568821
0.027449111264559102,0.5479810471708731,0.011898570911111479,0.022734425211848288,-0.004895962196449902,-0.04516778690580625,-0.05039292094870315,0.5131966825209993
0.016685629723664032,0.5526393501767087,-0.0019735858385514643,-0.02715931258653657,-0.06236418293681954,-0.09867413067680592,-0.10671046795336925,0.45579844758043847
-0.008198447740722172,0.5273845621749198,-0.026501534307790106,-0.048938121093921955,-0.0973783669914437,-0.13637516453849152,-0.16992774088273338,0.4569989545200393
-0.0012409226797805081,0.5050403401287846,0.005733210005310192,-0.00817630533079449,-0.049628434213824554,-0.08857982645493084,-0.08850602105344753,0.4326419427268067
0.04552742033019015,0.572180523852338,0.06872640783067499,0.06242251338277251,0.032878838158432296,0.016187226981464575,-0.003202356448447588,0.5385262389888831
0.05339746254081808,0.5461412097775266,0.06762055468539653,0.05821907038297032,0.02944393215543894,0.005024971051524968,-0.0016640753937979536,0.4880983819796614
0.044907326110210914,0.5227877495452291,0.029877148800441344,0.027455444016947914,-0.008848581706631602,-0.030173311456728184,-0.039933905563175734,0.5643165768069586
0.01657567117746883,0.47959866931111983,0.005205040020113721,-0.0035989662609115444,-0.04476596224080053,-0.07682318656470474,-0.08862788555015434,0.48895327764127483
0.0016202800825212138,0.489350119146605,-0.022098785815033065,-0.029282298353963655,-0.0681450338713123,-0.1194995394669354,-0.13097825531149154,0.4950834129365949
0.025891073069163356,0.5436611306681198,0.029897036594182122,0.011294384845929064,-0.020659560249890956,-0.06250915671615745,-0.07875579068981615,0.553059386942574
0.06420091281700603,0.5629644586548082,0.08758980540974379,0.08960566962406748,0.05279894302657963,0.02493780275630392,0.010559601826946687,0.5377490702271107
0.062211129953807814,0.5401381445051782,0.07037809328124059,0.06436643977532566,0.043965071988174294,0.018379694479791212,0.011777206821251975,0.535752214305225
0.05380275102018217,0.5351816265966635,0.04137012020109655,0.02910367006756462,0.014252169422812301,-0.03427699168120415,-0.041623364639020694,0.48834625816284677
0.023786847659836297,0.5572334787908566,0.022723373774167045,-0.008341661163701287,-0.03690273137004972,-0.07853020670968489,-0.09845169809457915,0.4978143049670998
0.011228517250286629,0.49960308879574655,-0.0034407401448263084,-0.040112095868672565,-0.07349766255674517,-0.12521724868704714,-0.1476475410337032,0.4281142224638049
0.02445653165889225,0.5345712744755753,0.008836317730251078,0.0023117560606022436,-0.0330826890677524,-0.08073050959153621,-0.08409439472524244,0.4915356426639325
0.03971668807548122,0.5704109112703574,0.0734039409243405,0.06615206051008667,0.03141949713176587,-0.004011729668805551,-0.005582653562400078,0.4264089535236717
0.041397055432130805,0.5716872931257863,0.06586487973802085,0.044158381272525034,0.015169948845380692,-0.01401217616010967,-0.02442306068203269,0.4754100772319776
0.04132000751263538,0.552322191921106,0.035800133865411754,0.017308091201528195,-0.007712602025945602,-0.03531111300492784,-0.05948152072055452,0.4510346425468078
0.030292566523118354,0.5475486851425948,0.016748143164379118,-0.023374880712148584,-0.0533498652921301,-0.08218176122275356,-0.10853332694412907,0.43625786484735296
0.017725929835615505,0.5538790557403246,0.0054128920473263675,-0.02429999003039502,-0.04838049983351972,-0.10322659394356476,-0.10895569963832039,0.434188790366754
0.06558470166010608,0.528241024730182,0.08509760225275793,0.08520175897402481,0.021101106491590586,0.02610780484380936,0.01710095755713248,0.48145998219019936
0.07106563490063858,0.5482672310515005,0.07957625227669873,0.062030492397122335,0.047179049838810556,0.019761868484969733,0.007926719258560679,0.47932326578615514
0.07632646534640855,0.5566959654414121,0.07010255869630475,0.05208273585170528,0.035269451345824786,0.004650560480017878,-0.02605997039826459,0.5210008488554159
0.04136297988694865,0.5204304226360655,0.03720693841543121,0.007957910538581832,-0.011639275160805502,-0.061665083537909754,-0.0759179737468057,0.5418961011863243
0.0045214898360957,0.4918169224127493,0.01724673056048036,-0.013296447059634356,-0.05093801177482579,-0.09339337651968395,-0.11344673514427073,0.4935095237987597
0.024322447389412808,0.5234438041361132,0.0378413940545142,0.02562412019478008,-0.0176514466469433,-0.05545426588276879,-0.059579810764504776,0.5366227971319465
0.06881915077928985,0.544313489529788,0.11197467120939318,0.10519923550292679,0.06428879725641036,0.040313416164063504,0.05445642817165906,0.4940014669039833
0.0760024085149609,0.5354475755864063,0.10499592890503583,0.09138963801394254,0.07898362619925846,0.05603423173103782,0.053057779166463176,0.47038506199132657
0.0564180663812541,0.5380563923268782,0.08507726396825227,0.05373706572131043,0.055803587704990616,0.024099593259681595,0.003747630195867834,0.5098026857662463
0.054932364963628674,0.5278458315414245,0.043826921458268636,0.026759139556132988,0.02132411465025365,-0.024370777781314603,-0.04141138990949375,0.4690288912834915
0.03351749492652751,0.49321945911194354,0.027229122340487168,0.006578689301763904,-0.03580499165245547,-0.07166900648215378,-0.0849424237149523,0.48516240818582174
0.024832526849170828,0.5248485012672308,0.02302955227249825,0.009349094171504257,-0.041373295766401016,-0.06770129242784492,-0.0807657708420673,0.4264606050814281
0.0808845507912277,0.543992983256227,0.12432193810890532,0.11626247352167124,0.07166457983177449,0.06650532575816114,0.08078667470598917,0.5028293672334258
0.08775347214505819,0.5568847506578932,0.1267755871024235,0.11949585445401395,0.08216217950476441,0.060600299431210966,0.06639608137359414,0.5306215434106722
0.07534671879907351,0.5898604113368765,0.09115728301355144,0.08992658185705768,0.04775413092680073,0.024619247283865567,0.02710364207724883,0.509349383383667
0.06462754073344958,0.5780730587777988,0.06702864498519184,0.053575186333888455,0.010727276930462498,-0.02211897427538238,-0.030548437256875456,0.44414445748455295
0.05508137753270139,0.5686614979763164,0.04567831478839349,0.03371975407980904,-0.03492988375640432,-0.06605522179437302,-0.06281632375987528,0.44731017864120665
0.0358036831605652,0.5277849432192694,0.03159589782541637,0.016406821647895642,-0.04574386382598146,-0.08282410423957982,-0.08819071937101315,0.45023105640938543
0.08172629612412637,0.6000752957302787,0.1148973411753279,0.11018458374032233,0.051426691759878386,0.04102927969002164,0.040164810659284234,0.5155639729158658
0.08045264406064603,0.6095837360253629,0.11229972270329024,0.10010536731640342,0.06581160237336964,0.031694449180815945,0.035265094096611015,0.44727017014066106
0.07186044801537242,0.564088480939757,0.09771328419348652,0.08654717313861154,0.0391960184963289,7.909803125805744E-4,0.02597071306573667,0.4133829344974242
0.053838217153066206,0.5465442386040658,0.053792928618430845,0.04827360045831882,-0.01457835710120347,-0.04520471563042564,-0.03861386193349393,0.42142724606754023
0.029759295519806342,0.5534573046330877,0.02797330223745796,0.017964002391688737,-0.058722800787805424,-0.0812148140873462,-0.08653877484393217,0.46031500118457186
0.03461606093393227,0.5261718301024625,0.03481351829848612,0.03649126430307241,-0.05417404079815747,-0.08264928436703321,-0.06939997865042478,0.43745958826839637
0.08234493758914357,0.5801551239420576,0.128895615396544,0.14145527558708887,0.06593647312370492,0.05381233435694027,0.06998603649025259,0.4313797780217419
0.08501466729106749,0.5958463887259134,0.11971359456736975,0.1279207383902241,0.0567133133243652,0.05709071273483614,0.05773636133901301,0.4854687963047088
0.0866624741163949,0.5868409996573302,0.09561126836684795,0.08393838481831487,0.03763082727479681,0.024176489730147337,0.026586377072558877,0.3816470597740982
0.06781365686551258,0.5519010053635534,0.06626744496135417,0.05559221267914077,0.002045638367409667,-0.029614607130681356,-0.023852166373746677,0.40372418734709103
0.047301048187262176,0.5433068214956414,0.04037686492128142,0.02139302622579637,-0.047159714637372646,-0.06842906804146053,-0.08446943230799256,0.49760103574379094
0.03981078621896604,0.5393712450076646,0.03889095331347112,0.023994314435748614,-0.05947168501868235,-0.06669009911809672,-0.06328046432163537,0.43057182250236586
0.08864244756867326,0.6119420476889413,0.12656645302415734,0.13118061862000524,0.07000670462945797,0.05765301952255058,0.07299406504440863,0.4883086666053416
0.09059231627622824,0.5766858855932792,0.12443661774618198,0.12199985859663595,0.06217745203395888,0.06406301953308256,0.05619980693949028,0.501111442252402
0.09364836293553026,0.5720282949365336,0.1127004701607939,0.09135640776044218,0.02942128487691572,0.04393717711290157,0.03308478552075171,0.48854749289500277
0.08012391286539829,0.5631774179766671,0.07879983083105753,0.0539943582956479,-0.011218007924615893,-0.022860926842324873,-0.01348426422750684,0.522212817795594
0.05212808123594731,0.5523464018378247,0.05059407421500492,0.033888627000649235,-0.04836528595207221,-0.059739443317528604,-0.07299247532424585,0.4418155436724127
0.03843784724012199,0.5303612017767287,0.04437925679090121,0.02794915523299743,-0.06592719600426199,-0.07019388267023137,-0.07160985376823155,0.4319599782653672
0.09235652286617839,0.6040325446515832,0.13652762971552854,0.14132579805026982,0.038983240563700845,0.04750359780307987,0.0804771348249482,0.5108860669960348
0.08495185483204384,0.6044452618723284,0.11952794696678241,0.11517979440967176,0.037153094277601925,0.04851022803964706,0.07267976846550547,0.48947151670947975
0.08510305858418869,0.6163708539637056,0.10808055709663557,0.08310435499601278,0.03208611359081678,0.015123379904592187,0.032935867575031585,0.4948848541784311
0.06834255789900077,0.5760585773250764,0.0573120739891439,0.03247563507264452,-0.0039451996902804785,-0.026743371139193374,-0.0252815896041804,0.48348493449761587
0.043294592990252914,0.5622573669292165,0.03917291087536181,0.011322030260536145,-0.05563594552764602,-0.04889038455328085,-0.053868283907915385,0.4777258197489574
0.02016897093797949,0.5479259193891017,0.029893036068774696,0.01132750533789427,-0.05552039299877046,-0.06454649845464461,-0.059245553406685,0.5278375218453008
0.06238528508675076,0.5867130879235999,0.08810463493591417,0.07944036072193511,0.02533655335190425,0.045834747207033816,0.05278683533100114,0.5256849838850357
0.0656483355192724,0.564037648205288,0.08337094355601163,0.07643016671095687,0.011572226564508726,0.025274963471947364,0.02400824068952475,0.4821838891626366
0.05291143709818942,0.5680784874577018,0.06379834849807782,0.04256908502407329,-0.01625022487116465,0.013696961390221564,0.02168278492167728,0.5609628786025788
0.041110386178173836,0.5678904848987132,0.03344069377721353,0.024153449997136187,-0.014859461876673483,-0.010125531139796695,-0.012723361253771668,0.521680724542154
0.031507004679493494,0.5290108900937147,0.028755860424079183,-0.0026798040146153376,0.020710835586759624,0.05204439739409295,0.03790277417662165,0.5521558241749231
0.08049106147273566,0.6051305452452882,0.09731808631043169,0.08862403560490861,0.12190979588356082,0.16883970025280348,0.19050443546230567,0.5451416179491938
0.08140013888958154,0.5707080803836025,0.0950402333820111,0.07433175340317308,0.11090309050031126,0.143512018487997,0.15682302459603545,0.6323647116671949
0.06921965333106217,0.5735513694322423,0.07990694006016683,0.05882112527642244,0.09002606963440425,0.11492884464591932,0.1378136560241982,0.5868951774201114
0.04595912963208501,0.5492266299531687,0.04811279282182662,0.008573000744144743,0.0437487125206888,0.04608791192625286,0.07680157042120067,0.6443390066331895
0.031875071045100276,0.5376474204129658,0.002645538421128881,-0.02085676958115664,-0.0040255147537228645,0.006397204008439197,0.009262787930813414,0.5484496208581617
0.019847640488980026,0.5328601013691756,9.009171837479155E-4,-0.02996737668575341,-0.016025200688848003,-0.021181890230698882,-0.002798314512356903,0.5271701329992311
0.06828908693672336,0.6109618530343635,0.0976976182933583,0.08038441386333069,0.07781301249011342,0.1245256610208514,0.1442895713332825,0.5268365013912178
0.07487686235431598,0.563410120423168,0.09125450183077012,0.06653345301646463,0.08264516396236221,0.12577652989395172,0.13937473418291546,0.6133596763190513
0.0651866451337275,0.5671229765085487,0.0596446579011325,0.03417661496715775,0.07552007225537083,0.1068708298423379,0.12186990109309054,0.527844263739909
0.04153463825515413,0.5194375343092872,0.02411773372621809,-0.01595832127978647,0.02223156951027296,0.043674007419748646,0.04183368576521154,0.5606052922025934
0.03368601316807335,0.5678004748004102,0.001893439074738136,-0.0377691521716281,-0.03008697177583155,-0.009157924193114543,0.00628979980989848,0.5282757154428006
0.014875825984485613,0.5200015391801985,-0.01406716541406609,-0.03725825069053658,-0.038964041467208846,-0.028228000560949533,-0.01737980224587958,0.4824251494808369
0.057849654428516126,0.5994922980239632,0.05463369833999347,0.04945790928605331,0.05327343499524157,0.09476971406187129,0.12678895303684323,0.5099536488521429
0.06992609652671446,0.5749155382043828,0.048093115743935044,0.04296548231978563,0.061140784003688414,0.12149805761138127,0.12219662903722556,0.5426673634073045
0.061024466307234904,0.5833984882316707,0.05018905635496714,0.032761657399326044,0.060241844315171766,0.09386640771620428,0.10807118915455899,0.5613313730269287
0.023468860620181622,0.5505438513112236,0.008634845587302603,-0.00528194061450743,0.017147621917705764,0.04933504177383838,0.05650467899082791,0.5554657802503671
0.018366971532985436,0.5463874074462094,-0.007108018506017003,-0.03701351148989605,-0.02227802862455748,0.006862460162917611,0.017951705269889907,0.5287043292045595
0.04853175068273976,0.5709782488387651,0.03447489411216438,0.028779686793790914,0.05506041950561262,0.09381559081917443,0.12574140744664736,0.5638257550948226
0.08372765471342893,0.6101826115677043,0.0686958936044316,0.05042364424384873,0.10265468938530087,0.14628012630174317,0.15446021983594055,0.5154210944346631
0.07335158401828827,0.5827002149228895,0.059884469047837674,0.05191971828564403,0.09112660820329395,0.14535487861835159,0.16249039262700138,0.6043899688580594
0.0415343698331331,0.5450510560747478,0.03080016186135856,0.009319176958757468,0.06606191139459824,0.11249322818785873,0.12053305910593473,0.5581874045978685
0.030415970053555362,0.5473933722397115,-0.0032884681891855293,-0.030877645481523712,0.030352827504194848,0.03813101765605348,0.07241910652679627,0.5911350411149293
0.014941639240959636,0.5436153096422045,-0.0036189758814375015,-0.04320708829291694,-0.006717492957218896,0.030641022821448476,0.044501844186919284,0.5357055924980968
0.04456796997175196,0.5308556708406896,0.06701753765197238,0.06249143388035513,0.0943381824796197,0.1656031485640648,0.18954569892070938,0.5587897499568126
0.06936359449541382,0.574439120961842,0.07692213106559415,0.06998146838205829,0.10504395593212301,0.18633446207850538,0.20858213072162962,0.5687431303455851
0.05458738745378971,0.5581262451695416,0.052708205212170824,0.032108527163763924,0.098119338390502,0.1544458512567275,0.19053805959741008,0.5423261189019241
0.03916602084770817,0.535736314390742,0.03236843583102532,-0.02312788513058548,0.04528495380051724,0.11048855951444422,0.1254161571092795,0.6055675901455353
0.021076644739228545,0.5336313137281814,-0.011446468150976757,-0.040763831008899146,0.02262165494189651,0.06078236471680329,0.07479904607203301,0.5050227781714016
0.00183073122312796,0.5702946379995377,-0.016923851485513577,-0.03797202713823612,-0.006170694854651448,0.04958686834212102,0.06325867891672425,0.5477524406126449
0.05309353179188967,0.5513017933876739,0.06152043275562599,0.0666877990699693,0.10674469064314539,0.17728098726799693,0.19349772950277555,0.5940931573664141
0.061840523395071983,0.5926747909305501,0.06755129869389144,0.053580558710646625,0.12272426150470112,0.17283328879991172,0.20683056972158298,0.6041817540768318
0.05895272412953578,0.577281598322611,0.04831971490286524,0.025331984026525645,0.10267091363667004,0.14928891606734174,0.17490042230672334,0.5967853979081433
0.04271542065427032,0.5578911704929774,0.01548560979913317,-0.007403420554658202,0.04671439100642647,0.09717773741030512,0.11397632981070334,0.6024081637376794
0.021928079611940432,0.5423044617252075,-0.008817740118644354,-0.03900066907654056,0.007759500063265923,0.042727144228669967,0.061026593382765656,0.6112470686004838
0.01290891162672962,0.5249222773816511,-0.024269584342854894,-0.05163412607521886,-0.02835714551658662,0.0012030334572317725,0.022608062408667945,0.5667398422126877
0.047561628877544136,0.559277791637966,0.04499912166219013,0.04047502828223479,0.08949169878555226,0.1262907839454736,0.15473298123837903,0.5666611800004082
0.0379392796724882,0.5660687117939189,0.05181881121813579,0.04337090475805344,0.06982779914486861,0.1275903262939902,0.15235910652269277,0.6246641278868539
0.047472755724818363,0.5518373647816385,0.04617713015590698,0.027321541202424138,0.06619756805698637,0.11413847126984988,0.11956265664027649,0.5694688637224838
0.026989287130693016,0.5322038940569466,0.011082432387415249,-0.018469588649511773,0.008275207598409752,0.054344693345428095,0.058971046000463406,0.5827178042868624
-3.1438361547121967E-4,0.49847253997836705,-0.017806301256059455,-0.04671341931887883,-0.02818608026295827,-0.01556533975769274,0.011963085235210641,0.5977127085046124
0.025539208068454285,0.5233301708577631,0.022646690772611097,0.00715571568792852,0.03396000988571423,0.07735129783821064,0.09888528458837668,0.5723553326687432
0.0529277449888286,0.5639167811203636,0.07032456579020963,0.06197427884180891,0.086645880787113,0.13310473887718408,0.1576625203140442,0.6547823652003646
0.05230157719358533,0.5366451238994188,0.05628321756983246,0.045198296706427,0.09007359967133996,0.10355796394678046,0.1288742938134741,0.5842883167994857
0.04299152829672997,0.5597355933353005,0.03346179121439412,0.009094813612730276,0.04056038921972598,0.06608438290877594,0.0802446073572706,0.6312083600027308
0.027021323122605728,0.5355678250483275,-0.0031884202890752125,-0.020172478363833617,0.003253142561732779,0.001618708645190342,0.010595145978618992,0.601663968773009
0.013481582376652913,0.5238334997072855,-0.015864537958702747,-0.059881394421467046,-0.060212265803037165,-0.044831019483347855,-0.03851426265900995,0.5576226739218026
0.026810529718641937,0.5696759403710843,0.04058212816024782,0.027372381810521623,0.05468169917158399,0.06695021026612025,0.07599169227841003,0.6004315624703411
0.06039375908828257,0.570471349242833,0.07526442739214381,0.06990158564196128,0.08127836286399127,0.11239231686561184,0.1253569655265329,0.6121400620039845
0.07079552118627708,0.5710198877822532,0.07758698253141502,0.05268360059910796,0.0824923243476462,0.08408491669432422,0.09714947631663791,0.604634506596187
0.05260131837749071,0.5628701160975313,0.035527691274894274,0.006887968558188802,0.03515826366133665,0.043870534815802914,0.055678894957019304,0.6146048841119407
0.03269490771311875,0.513826766040628,-0.0018243390327576832,-0.020177866824943325,-0.019411031930464076,-0.010736813143898752,0.0029206347084859523,0.5990819152788448
0.0076247923112347064,0.5057820499611327,-0.0252261658855168,-0.057065417132783604,-0.05586075810779756,-0.07591075938916127,-0.05876334370382344,0.5648685432305961
0.020513264503128487,0.5415293521561642,0.03202950039325965,0.009411012328833374,0.029684447253181825,0.027304737798022703,0.04991799309369046,0.6311433669766544
0.06538724112735694,0.625796418615771,0.07080324185072456,0.06416818512250169,0.08095734718058142,0.08636763414968403,0.09206109408934529,0.6293467753715861
0.0625920246877742,0.5716823291083042,0.0703008443125525,0.05061848501447671,0.07288243934743677,0.06741559552516285,0.09752018241813448,0.6476603628757455
0.041637747161117455,0.5786845348578152,0.028702908070793412,0.02098270237312381,0.030361753604505673,0.03781688288501122,0.047037958759868485,0.6831629055431463
0.023830789622137187,0.5518978437928974,0.0022010352116862,-0.013559618277853874,-0.018616798003943155,-0.021730845929458974,-0.01872992501353311,0.6539887107915711
-3.878892414660353E-4,0.5310983660115858,-0.02272039117880488,-0.04028971912333882,-0.057297463326002544,-0.07763712138599191,-0.054279257018319926,0.6589941597332096
-5.335895814511083E-4,0.5471837122788599,-0.002389230508697401,-0.01781648147509038,-0.015936440670921984,-0.021372124674823394,-0.022171135091402026,0.6794042364193584
0.04169624003074971,0.566115882826891,0.06377875605906247,0.03829120375981651,0.05265568021262868,0.051377033697764106,0.06845933661909777,0.6792938063026541
0.0446030596294498,0.6051234789029822,0.03372111703863674,0.031263291925115136,0.05487804975416553,0.05354451955846196,0.05927786585839716,0.6728706808995978
0.027476886375591134,0.6199535637899044,0.021759465857562152,0.0057982059676563655,0.02214022609457801,0.0140586567616181,0.026154217375846188,0.683101797818557
0.015476652214776997,0.5765753883728788,-0.010238476432274143,-0.03519602055435239,-0.027679935798960706,-0.031061573417763375,-0.026571541448845222,0.6538220209646397
8.577756282543737E-4,0.5943999030740341,-0.025562242437441544,-0.0620681227623378,-0.04645204115872079,-0.07152965903156111,-0.057078019150158366,0.6296058893797788
0.03620112063936927,0.5580345801410589,0.03992884158267351,0.03163948397742605,0.05756974749878313,0.04779844135801388,0.06978364169179735,0.6836111872305818
0.04900394228015523,0.6041347523853029,0.053282650646864896,0.03442821671478326,0.059954025010209834,0.061497171118060925,0.06705363510795552,0.6489549302572172
0.047929634634741564,0.5829524817756933,0.041061052231560854,0.023286460296746535,0.0521653771434075,0.04721759680472752,0.05579230747859032,0.6438606792030601
0.02594422265575462,0.5438158037016326,-0.003395079223902083,-0.026124603551589548,0.02716745541254756,-0.0036008881559279025,-0.005029198042531588,0.6666195874433057
0.011251822049382233,0.5513259978976083,-0.020338532020651584,-0.05881107150278264,-0.023355797240828986,-0.05708053137202941,-0.050324997862233926,0.6551064088137962
-0.011863674672477578,0.5563337673460583,-0.04778989176043165,-0.07026594655172375,-0.05946601709463141,-0.07800962954011101,-0.0776347355464047,0.6233608334523194
0.04883898397211899,0.5906714717388857,0.03792769490611141,0.02022418087954261,0.07164821572928046,0.05624520004156351,0.07163575543955199,0.6774722891210883
0.06652543052591067,0.6039595554139203,0.052697185961186534,0.0332262156681472,0.08368041668391235,0.07653544689961977,0.07266227577062465,0.6995572733609335
0.05979681122930613,0.6080559040534744,0.03382947410193924,0.02354646195641978,0.0760235051228666,0.050908893497923824,0.054773900830426055,0.7220365708121796
0.042500279317580214,0.6368639077012154,-0.001419063244352009,-0.01839336059654139,0.026983050603887577,-4.556575868860102E-4,-0.005115879522574557,0.7236698758725496
0.030348355348888936,0.628899560905607,-0.027322259470312173,-0.059442152762998364,-0.012258581087383428,-0.029361741584953797,-0.05964306343617436,0.6766612646028192
0.003614343894089555,0.583632253342272,-0.055494084073622135,-0.07933100750336432,-0.06741814927772026,-0.09137051001202877,-0.10236061370102426,0.6260762191787632
0.0334856053338133,0.6032550175356132,0.008077859972501884,-0.0019675903370776557,0.02810659223183956,0.016833322826914892,0.017214822642091156,0.7293759787316328
0.05249119375464888,0.6874060385364171,0.04655387660307861,0.030528503031374783,0.07291116894353583,0.05610291113542119,0.07169562974018714,0.6897985136843545
0.0620475703351276,0.6857350834408308,0.044085110815608265,0.017792814693425398,0.07607476744308156,0.05694317778734989,0.05876527150452689,0.7488090433001608
0.04130550831431212,0.628293425923488,0.008704832572912664,-0.026699955193414233,0.01581984537479226,0.0034031485620364017,-0.011281587026064646,0.7129032566425809
0.033711806275065065,0.6213144659392538,-0.015015175635489764,-0.04442988302760806,-0.015657735388283835,-0.047259686296259,-0.04823957189825205,0.6398319759996638
0.020540896835020486,0.6079834860476804,-0.024960006491297385,-0.05249461449466568,-0.045239628085522926,-0.0788526462500101,-0.08936823975373134,0.61768324144932
0.038605880784774636,0.6318297763367415,0.04669607493548379,0.04099228131156177,-0.003456008983242668,-0.01810289288284743,-0.030525949366515343,0.6511550039730509
0.06630222062146143,0.6801666601757357,0.08046303674193002,0.07348340942280171,0.07585278378153082,0.05500454111512987,0.05726312998746487,0.6767430869224433
0.06837226090948853,0.6510666716943281,0.042951464757033236,0.035759416196128546,0.053166775252062794,0.042702301413548346,0.05068361515985926,0.6678015082428013
0.05026841903603077,0.6329936965663993,0.040927993420345574,0.00568301929677037,0.029128526243011994,0.003112357265355147,-0.012418315035758243,0.6400156246718323
0.026128037287472712,0.6672757810201696,0.0017515570837553368,-0.034354248040157465,-0.018708116849682755,-0.05091217588769756,-0.052935005064602365,0.751934990610598
0.008658720877741964,0.6746053791726504,-0.02864186806767087,-0.07321552501985644,-0.05780462785964413,-0.08704364510026733,-0.09979364341747551,0.7329086336765324
0.018488702854956837,0.6234024242942138,-0.008071930911561664,-0.037848912726541825,-0.003990270014900165,-0.050019831861210805,-0.039612957458685163,0.7455623752573304
0.04355249205255998,0.6913406110757492,0.041638530876188934,0.027731176252656753,0.06676693490693766,0.05624181069341172,0.062196055748977304,0.7689630524385178
0.06422834894393158,0.6875737836772234,0.06671267932213965,0.048649034751541746,0.10534248674685927,0.07352165884140528,0.07658414422482457,0.7842722970966586
0.05902977859564807,0.6581012664179134,0.045581492974589514,0.020935266421246754,0.09548013814869348,0.07532166995205877,0.08464961904422671,0.7375430892490288
0.05600993770515431,0.679107134972391,0.025897441625101707,-0.025857938364522035,0.04810528981268969,0.03265836394091834,0.02901635251879276,0.7907224293466126
0.026444324768067726,0.6368788131112726,-0.020295506506005284,-0.06760217183908969,0.005607021810085884,-0.03491185878180014,-0.03828604555595895,0.7808122972082637
0.025058167452049026,0.6779483762245277,-0.014567440358551564,-0.05474934889858721,0.025674780084590357,-0.010216249382005493,-0.0075329073052059214,0.7708589196015683
0.059336077466223144,0.6822185167357906,0.04324071873016006,0.01397349269563658,0.07607871625017404,0.0890000830084845,0.07260466631673278,0.785500993667269
0.05889085456290058,0.6621742679111826,0.04131895825526431,0.015520716857819743,0.06520988872195232,0.07999575326801074,0.07172225871950849,0.7737583897946179
0.04528484380662129,0.6965549836969206,0.031975251353083496,-0.00716317153546886,0.04746548532401762,0.03969184833110531,0.01965088217953736,0.7906285573426154
0.02365054205557561,0.6718108665036922,-0.011707565189340519,-0.04495952661635337,-3.5565169638440784E-4,-0.013949277297928282,-0.01967238770338901,0.7718300889167453
0.005151321591680583,0.655379899141475,-0.022778136669422827,-0.06903313907046439,-0.03464117650056425,-0.03979768302303154,-0.04331504227205786,0.7298590321078845
0.04077556064460603,0.7013306216883991,0.0409848009536761,0.018526651876598986,0.07036728496239374,0.06130304422903871,0.05735640212817589,0.7273353100665533
0.042158098358840365,0.7009738866356325,0.03738144618781933,0.026371428759052393,0.04259195980408673,0.07102752829325643,0.04852672488840046,0.7722346309506983
0.050691530111061894,0.7124455704398147,0.0373130818482378,-0.0014236536765940416,0.060421299998292204,0.03345808567229898,0.04507719177379692,0.8009286019047768
0.02241741929926798,0.7156228927377475,-0.0030445293560493747,-0.02855490527529439,-0.006157415960901639,-0.006391162407950494,-0.016683948766600974,0.7435248648676089
-0.006836708943988547,0.6917278740715767,-0.023121452432117606,-0.042864490132307025,-0.03283228889829434,-0.05203851797409063,-0.06015381078019685,0.7634595412518315
0.053393573377828775,0.6949611078682503,0.05268742491482916,0.04002186316244999,0.0507725595423066,0.05435702109005433,0.0597471027436841,0.7480922895765733
0.06303279670743767,0.7464206418987408,0.06987754566395728,0.07036740765772591,0.0613626777804966,0.08127308628176061,0.09159594433554955,0.7739046643507312
0.06214575744286256,0.7400161513630474,0.07458033685923324,0.05672134574724633,0.06396844948943678,0.05946573260687997,0.06196438675412731,0.8390911661031452
0.044023933971820056,0.6784499976605123,0.0416174901301647,0.011615935801872833,0.015256873667481874,0.01899731159749224,0.02253700651808149,0.8080134442253254
0.02702045734199062,0.7348593224308159,0.012619845877227434,-0.012920544476952338,-0.01976767353509835,-0.027947160564192546,-0.03369437686867596,0.7515348683125739
0.019957209672475093,0.7262154036142775,0.03414831188835534,0.02183988671512157,-0.015487611624348276,-0.038383011589918574,-0.03872528058327547,0.7075345507767833
0.07904117424030398,0.7437426178587775,0.1384695984414426,0.13372048614813392,0.07792425448147841,0.09272440093752503,0.1009246757458189,0.7554267986219392
0.08813508490604942,0.7772101478183412,0.1513090736009275,0.15455307648916397,0.07563827366281342,0.07411155549821019,0.09485316516164743,0.7205370297040505
0.0724753086302659,0.7569355123695958,0.1240812099737438,0.12661375371622274,0.07953420075671892,0.052164838253042245,0.06328431030973986,0.7511054896801405
0.06208847924658066,0.7750078534028827,0.10276518795197793,0.09034547482864551,0.013056878424388919,-0.008718736185769238,-0.0017990153891658568,0.7649877773570622
0.046100862251279344,0.7489261505206198,0.0723042801422426,0.06222310014652052,-0.01008574582707773,-0.04691250990342587,-0.045504251066267494,0.7524772789839927
0.05986182752935585,0.7546057520912837,0.12590315905630867,0.12305531400191588,0.055005588826828364,0.037112069106820515,0.045627713425094245,0.7582862955520808
0.08564600714545777,0.7592615722035378,0.13248628477063285,0.12309024766594417,0.07331253371672412,0.058682845797718375,0.07105916059700657,0.801384276871239
0.07833421942959343,0.7612214177105849,0.12478379803991568,0.11581763457106284,0.07418962173371461,0.04939797975703931,0.06463858765786278,0.7938084997745305
0.06978259482684718,0.76866204286418,0.09191704975547227,0.06747265942527189,0.04057342060101299,-0.0033288381396041986,-0.0031643180502611418,0.7709417071713531
0.042135352569206225,0.742075048197572,0.05422749824739604,0.0326006321268098,-0.0309200237293313,-0.05155164031724717,-0.05672686382711305,0.8160096064150274
0.03378390619950638,0.7409767709236227,0.047339646757710144,0.02592143709769816,0.004808341876214432,-0.04156397229020074,-0.05001560477008604,0.8065089734677449
0.08175620831320016,0.7995116965235369,0.12664643099590442,0.11023586955089279,0.06948527309736542,0.07745350016886084,0.08563717845206142,0.813768261077588
0.08966387907070847,0.7716503516921833,0.12604844624039702,0.11619103602282654,0.10150467751686146,0.08823508917674006,0.0890831042743792,0.8176970804582981
0.07968009470017316,0.8039472504888021,0.10794717975502383,0.08739926300279957,0.08031572868676141,0.0544508907142759,0.05449376731499941,0.8038706517530037
0.06214229794190497,0.7889890151854888,0.07316582160281308,0.06338479497059703,0.0470470019152331,0.01730656599337072,-0.007901370801975175,0.778969107817543
0.06425757070503246,0.7919750658949275,0.049239599414280175,0.027697916283203016,-0.0011982585440845931,-0.03533327905815093,-0.03478086779956856,0.814051845851114
0.049508156807110876,0.7654112888491398,0.07425728712940517,0.044429198631743175,0.023654792658022263,0.00271612749253289,-0.016038834400359952,0.8126369258646216
0.09635179290362256,0.81350837307205,0.13592667339300588,0.1337583112956976,0.12351546271447937,0.1095483288420144,0.11082905751718557,0.8449372705569099
0.09857013711419718,0.870246031672871,0.1289998331271086,0.13231604986223144,0.1291439758398238,0.10954935155696961,0.12142756353732,0.8788086685501443
0.09118179908023388,0.8356173314336044,0.12251324010982101,0.09868775890286643,0.10142117830472179,0.07119716535626858,0.05965926085276764,0.8050273148616591
0.09287599589562431,0.7944533700366646,0.09492868131113366,0.07032770708338985,0.045009301655178025,0.010124989074017933,0.020438966831890837,0.8146220428319042
0.0644775577565509,0.7762803750338307,0.07680599801134068,0.03465725163018397,0.025939541791892028,-0.016860728980981468,-0.03077147632777405,0.8464867045760128
0.050299604499105935,0.7666753507150439,0.04575934006990863,0.02318780317683016,-0.021779746075202635,-0.05362009887799318,-0.07247640967847767,0.8009187814846657
0.0951851308240378,0.8355443355920846,0.13482118025097153,0.12211709134619982,0.10168501098798907,0.0760344087468049,0.0621925713638946,0.8546197588222436
0.10297754724583424,0.8574180692603794,0.15838055605292295,0.14716088136036592,0.08854085176930127,0.08668796733748342,0.08655809200843173,0.8490470558389155
0.10057532626753099,0.8637437995429307,0.14837414729775256,0.1405748826531168,0.09321389391396306,0.061818967964031836,0.07294586006865929,0.8848811429284238
0.07920388068199945,0.7955586603409854,0.09282489872836995,0.08066762207032871,0.06456465147026133,0.014501700109465571,0.014583783783594208,0.8045195647274431
0.06824385200566763,0.826113185726943,0.0786873906620418,0.037645940582949525,0.013886792964123772,-0.014118502427124391,-0.03022538465668383,0.8204404510973226
0.04156944447752156,0.8543489200136795,0.045241270338611764,0.01117028874625195,-0.041335460485904085,-0.07830934039694466,-0.08287373920295471,0.8318832818532784
0.07630132422318003,0.839805721602317,0.09207599977994398,0.07220161601615079,0.054168284746180545,0.016039676497403704,0.022384820828902044,0.8606036960530609
0.08723374449235305,0.8573789743292276,0.09582823537639565,0.08271791259892959,0.041649176350472016,0.03858085190766188,0.036737057909340974,0.9068426756415973
0.07041415998500436,0.8442104124688525,0.1064621892494023,0.0824319397401439,0.05095899138313981,0.03838321139978045,0.02608391875260787,0.8809574793201966
0.054882698817811014,0.8263220764588481,0.07278744259511474,0.03760333454668497,0.007069389305457487,-0.014504364181356602,-0.04844897267278253,0.8420907504318346
0.04027535999251649,0.849104069418596,0.04106375570035334,0.007112747170821998,-0.048261482681050676,-0.07633576983984224,-0.09513231740371017,0.8784087722541549
0.03171069678126065,0.8399973982774733,0.0333938253064021,-0.00343228322160824,-0.04795519062099586,-0.08104545715051191,-0.08658618681331923,0.8425966276686717
0.07663120545030978,0.8254503891477515,0.0959572203363837,0.09747723816471894,0.06068665808166262,0.04740680080343183,0.04447739015318554,0.8726657486781675
0.08452107014241872,0.847177853125243,0.1325373465089294,0.106032700171752,0.07422696905562044,0.057195371602285806,0.04496712128586384,0.8213773866286259
0.08433848273340878,0.8334635587409852,0.10685320424762157,0.0910692998365364,0.05315141941415617,0.03200268703257286,0.03880246775361227,0.9280966941632606
0.06933456975290929,0.8630032083404044,0.07165497814042222,0.049836660327422164,0.016442114366268287,-0.011648082082169262,-0.028054833314302998,0.8804333868945434
0.049954709297488596,0.8098694724833848,0.05895976465291529,0.024697393808616422,-0.012433441098859434,-0.06013423262271089,-0.06727158830727314,0.9087091140803172
0.04092442093669485,0.8106170369947301,0.05902608825015465,0.022746055484024474,-0.03532456363888639,-0.0595488247122202,-0.06085415914001541,0.8790023109435865
0.08484593022763595,0.8663855143078709,0.13232355892635295,0.11232024772297154,0.07279714473446457,0.05624575694967407,0.04235841630630324,0.9401160609920972
0.10178885087840171,0.8828860313526918,0.12903563934793913,0.10947476709800892,0.07977465999640437,0.05606246805679962,0.05793393892639093,0.9675980707406672
0.08700341807395925,0.8655399719904167,0.131626102820247,0.0981480803395277,0.07346827129528598,0.05408304710939878,0.031015519645458046,0.93957797342336
0.0824909105785728,0.8755724997124267,0.0866868709084932,0.05869651969303595,0.02517477109865588,-0.008756019865839657,-0.036865738056170244,0.9557219253097362
0.05908558401588748,0.8305305071458282,0.06624375290679055,0.02946780613084861,-0.04502251013923697,-0.07708198280231701,-0.09785944592300475,0.9243330069021342
0.0350817355859758,0.8588557895464346,0.05857217012766696,0.03487091009544785,-0.04632900974581765,-0.09096914219234901,-0.08217002832576728,0.9142704794996188
0.07539806229255189,0.8834451514503182,0.12358394854329617,0.10784110952129003,0.03468237452038393,0.011979830884485222,0.025660102364941532,0.9551317984773267
0.07558775463917317,0.8881817450715428,0.1163070756015741,0.08956161678234145,0.025682697859018763,0.016760204830163935,0.02583537309126837,0.9534729620488587
0.07407674112305743,0.9388673884443023,0.10556322478975873,0.07572225247202216,0.022341376828479892,-0.0076522431436138166,0.0032272779527624997,0.954805357778443
0.05905333797634209,0.8588004891163435,0.07482386587716736,0.038523580821536264,-0.02773183443344707,-0.055066079024814,-0.05931935466338578,0.8778478113612499
0.049722805874274176,0.8567292108496942,0.060801099182408926,0.021409701465951836,-0.045521919471211994,-0.07161846027942952,-0.08945074718839682,0.9193148341686286
0.06266641436125703,0.8686138750864496,0.1127892944673706,0.0807279151089953,0.033139780177086534,0.013689642640018523,0.012015709064683524,0.9241496786713315
0.0877973797225754,0.8939375554882767,0.11813853594467491,0.0847938982245307,0.04375231294737618,0.011359400618439562,-0.005088352486783078,0.9240093592024236
0.07178649000055931,0.8973297754164358,0.11441286565747363,0.07610365210676816,0.0042818194791323936,-0.015006772822554599,-0.015708275055700282,0.9675050080279536
0.04904081936184407,0.8691447748622503,0.06817060780452025,0.04237587567973356,-0.02867938045776642,-0.06308652746073815,-0.07202058412966504,0.9151899459519115
0.02365202481341914,0.8774661437473164,0.049386289154016674,0.012587532737304244,-0.06395237350757786,-0.10824341274121116,-0.10249916794129246,0.9048484738503983
0.06614965344387218,0.876546794123793,0.11023836051233304,0.08589570906251577,0.011121821841887045,-8.518094998205723E-5,-0.010160982549698064,0.9599346805853698
0.09300323396567882,0.9024353211611228,0.13701596840187447,0.130055384929654,0.05779599350913245,0.03394310908341104,0.041321917678345345,0.9733679840598127
0.09156848449501444,0.91430127251321,0.14800118451153824,0.12299579491706142,0.06288928432361124,0.031993932716346075,0.03355843483740759,1.0010089461770009
0.091604210276496,0.9057686155780716,0.12531110714078722,0.08800911638486256,0.016321692593675014,-0.017214599813105386,-0.02698998146621424,0.9824131486369818
0.06450632106911498,0.8744902775877967,0.09910274820660808,0.06641261278939528,-0.020891596575149628,-0.05336039405283743,-0.056384873956288745,0.8858808637689766
0.058055019907715694,0.8778690767394921,0.1116038672142902,0.08055390220523218,-0.030588799308302814,-0.04354085646448854,-0.05640610317126873,0.9734815059525818
0.10033793979356619,0.9491080254148185,0.1769312106615064,0.15059659888849763,0.08970364299083496,0.053943041160465624,0.07792491971447757,0.9921139886154997
0.10738715407141514,0.9294341542300284,0.1720950821063847,0.15245135954021974,0.059201017597298025,0.053086901544031784,0.0573996586946926,0.9778985849985233
0.10654542343589526,0.9278118332490355,0.1528572520205096,0.12412155849066626,0.06039936184806946,0.037642489174978463,0.031561961905201524,1.0018885455448283
0.09591759573099373,0.8827803881190032,0.12332512174151106,0.0925869801891959,0.012952367022978795,-0.0010926693598205042,-0.023827735217133446,1.00707370045168
0.07561841438393976,0.9058166494226255,0.0981067212493962,0.061574414847583914,-0.03449618229389759,-0.05886817810195477,-0.05386964247814344,0.9763832911966484
0.0738396373945363,0.8842468138162565,0.10170151707077318,0.06130805255188585,-0.027082992715876282,-0.07040380833455635,-0.06881195440228426,1.0019289244091376
0.11081216150998381,0.8991388709452472,0.17464232949287228,0.15904388667342434,0.06658953479755192,0.05946580711499342,0.05463882329586757,0.9639438383803408
0.12239293971699192,0.9322825173085523,0.17752296243048715,0.14628555184498998,0.07049014020494265,0.05828062219603261,0.05719185465247486,1.019833365128908
0.11392311058590597,0.9351487685166466,0.1479756729943205,0.13121073796474036,0.047923455156306666,0.018008323220350324,0.03702652036933942,1.00082851536053
0.10077674496295083,0.9061525365612774,0.12309043938453101,0.0830731358058245,0.003853614982678614,-0.019666078555668445,-0.03907534358334343,1.0179460046707012
0.07458331694620501,0.9197817683050629,0.09247520478970074,0.0655903139095077,-0.035511374799371734,-0.060712295345863754,-0.06437762925030222,0.9619669869382478
0.05500752435616604,0.8698983243757162,0.057688201520419376,0.030801586730008608,-0.06494561368110392,-0.10689974992995119,-0.11550170122062284,0.985035041623942
0.08201963311712647,0.9155021786826079,0.13351510760863453,0.10913286189244481,0.028454175904986494,0.013116866918819824,-0.002854694186181639,1.0182530887406362
0.11594832710793838,0.9253244899428409,0.1587542840394076,0.12850279920453717,0.05941294067421247,0.03765749375678293,0.019232175332767085,1.0684082089788924
0.11143975862633837,0.9360185884990764,0.1352106407972036,0.12092836196936094,0.05865180333641414,0.025475721227601514,0.024335357088082474,1.0845596226849337
0.10101643772057355,0.9471815364659033,0.12274001975242013,0.08613765770754718,0.012236178591141386,-0.03255766472734475,-0.030977002765394304,1.013469787057772
0.08024674653096876,0.9405478717016951,0.0859636059043022,0.0514376846421284,-0.019803940870054364,-0.06720417181344703,-0.08732424616551145,0.9677590214074914
0.05931717240687025,0.8933464368387202,0.07009591449046884,0.027715654922161995,-0.0848409096043503,-0.11221749245144058,-0.12339688420003306,1.0138561874457186
0.07352460261130941,0.9584837976530454,0.10047804473864821,0.0814728373924257,-0.020414126056486372,-0.043269744549954,-0.053095103302906135,0.9875324182532378
0.09606972566324222,0.9687655835306466,0.14379746564976248,0.1283740763527718,0.03126354179837983,0.011755930368441308,0.010896723369648146,1.0351820122154871
0.10654607516714186,0.9565364894317481,0.13855361968360708,0.11400044573141116,0.032586441291822234,0.010074402138242903,0.009720315438190701,1.0186766557118485
0.0924166511863711,0.9469513844413916,0.12090138219089169,0.09324380472984523,0.013161166200667866,-0.023786205850024715,-0.035573772635779446,1.010915693989876
0.07244676715912242,0.887073687005353,0.10784514395859175,0.061618921003341036,-0.02165597709968517,-0.06465486492615767,-0.07727622414472547,0.9449582962335789
0.07284291586076416,0.9148094239567539,0.08144232926694366,0.05421425069515119,-0.049987144534602686,-0.0800654199556153,-0.09847466179673298,0.976366920708137
0.10044126221428988,0.9209717238789693,0.14174487969113786,0.12902366012791056,0.037323565465147285,0.005286928752291224,0.016796795427143567,1.0718239231991418
0.10762215176322101,0.9485820538463031,0.13823286027434137,0.11716359011642448,0.04721908333564677,-0.0013367468455606816,0.013522231557343344,1.045875424334254
0.09370471607239392,0.9397681513888343,0.12372119822179653,0.0968549933890337,0.007938980687230323,-0.01955463682457844,-0.008166238234205935,1.0544095725171188
0.07527573589823847,0.9131087094697703,0.09594113861855234,0.058631134460224915,-0.025270613077704576,-0.060067553987072,-0.06486697553272885,1.0170314232435016
0.059154163245103974,0.9516486018014125,0.06315944420929595,0.03667948201878834,-0.05168310535840322,-0.10355416038558334,-0.10474652623797578,1.02512783861851
0.06663808280228754,0.923296594065893,0.0844198424662082,0.06667888370976849,-0.03168876552807882,-0.06899531015143362,-0.07826110437450823,1.0209366728025961
0.1005546223716299,0.926489137865162,0.1450830834013837,0.1487545194780134,0.056736948964941164,0.03873631438123544,0.018737417890933354,1.035398351614549
0.11351517746040013,0.9747343680739142,0.14177270559989483,0.14271937442593563,0.07232665856761267,0.03189068313630692,0.010815757213390946,1.0836388222389512
0.10125254200104536,0.966461057929801,0.14024186849366996,0.11324467779761134,0.019795378855685424,-0.0024958034882653335,-0.016844152861304074,1.0783496318459072
0.08392350113245209,0.9582088056512349,0.09451002537022365,0.06744718314767364,-0.002889754754303327,-0.04915912571258728,-0.06130940488421742,1.0208799377041424
0.07121033365232071,0.9274686079877632,0.08789232554675398,0.04364052555627876,-0.048050523003385505,-0.09480672551436413,-0.1104301798930496,1.0164836211619555
0.06161604504063349,0.9474275217642082,0.07872796629279079,0.04443888453974691,-0.03645019222781674,-0.08655656996484747,-0.10704960905551344,1.0348647346064788
0.10394151239332414,0.9703316770077665,0.15417006997033117,0.14473098091444025,0.06792176336468748,0.031010516460125617,0.038250657229923775,1.0911247088291527
0.10287005857936474,0.9920707703231453,0.14115672556097894,0.12793968241850068,0.07366564932257498,0.040213725754699704,0.03914423181774376,1.0270483718247445
0.09860726911874786,0.9396071796072201,0.12419875503040112,0.11062845217832223,0.053264399531059915,0.02305033623414498,0.012746592461556282,1.0297230895972749
0.08016706037636082,0.9679886946102518,0.08119840323365438,0.05792417712267796,0.004907391893465098,-0.036597792489940335,-0.038462788511301194,1.0235650481685787
0.07140419117498588,0.9822290609819382,0.07250067276735676,0.02971983290599022,-0.028206256668646595,-0.08051160098976022,-0.08075272559712063,1.0248974782968014
0.05777338849553937,0.9211760137608255,0.04557889027742551,-0.0020784081068512157,-0.06640496109100016,-0.10958924478683171,-0.1405758420538094,1.0544072885890121
0.0923878866990468,0.9223887706283516,0.11167590290006375,0.10508071983773674,0.042904684624101526,0.019765481569747854,0.01955858306829095,1.0655038034283422
0.1067190522251173,0.9299314589885305,0.1546645656332172,0.1382090674050418,0.06433206117635007,0.06596753362563272,0.049530128717520855,1.0272379018612816
0.11250390360240564,0.9391057248293984,0.15134292060466475,0.13293273040806503,0.06856522405772629,0.05277450576902619,0.04150264335396653,1.0598784698016996
0.09206031793825561,0.9294120176538967,0.11986579762273365,0.08966051460447601,0.042249884009219627,0.00195699657982968,0.0063824233144804884,1.1093974369896284
0.07625814628431035,0.9085865555655458,0.10086041537236581,0.057156379575197855,-0.011635055997633852,-0.03923248280522228,-0.0462925535433788,1.1641389663696897
0.06411169192815812,0.9018329058525026,0.06139898856097579,0.033611347671418365,-0.028125247173928315,-0.07610624009211994,-0.07207494329278963,1.1935696893431658
0.08640508235267161,0.9120493696621106,0.12968466961997466,0.11610530463451045,0.06374732356236443,0.03674358473995665,0.04343779184270587,1.1557689235445432
0.0845671841443342,0.9441108981881055,0.12582069720779515,0.10503233765494141,0.04434762677902644,0.009456412510056997,0.02842470448670311,1.1639188491593393
0.08252288906320918,0.9468706308088539,0.12089393068188294,0.09452782709227475,0.03960095154163802,0.004174725356566787,0.009207720682583622,1.1945322328252395
0.0739443252065789,0.9773903783408191,0.0912767290787605,0.05565908056838503,5.410873792308299E-4,-0.05793685001253178,-0.051963728635095074,1.1417577044287988
0.05998973884827895,0.9333401951393911,0.05996108397846768,0.021079513701874296,-0.04728743597143788,-0.09932826904399156,-0.09425325082343008,1.1200555265134067
0.05342526053332637,0.9410559092449174,0.06629192227887613,0.028020581330453508,-0.03987833289416602,-0.08898490503986646,-0.08746844052279498,1.0486642057497801
0.09353979195835999,0.9629716323593052,0.13892878254946311,0.12353594315458324,0.08449912367343576,0.027116546456402886,0.06217629928528363,1.1553017992410801
0.11516740507850148,0.9968943751951391,0.1445278414199076,0.1295810284427063,0.08080420002431754,0.06317722561410899,0.05749740647552703,1.1321607031129883
0.11172177216667172,1.00878150438587,0.1427296033006838,0.1178910621940582,0.05983936300522404,0.046916339650028796,0.047635215779776086,1.1171742748004245
0.07709434568578023,0.9303634491210784,0.10520299781555348,0.08388029949665998,0.019839496695539055,-0.008288475813026257,-0.01403352545958225,1.0838457154851735
0.07657944386273581,0.9846712212555995,0.09205805442002776,0.04964323141152714,-0.03782759036334071,-0.06171196885350646,-0.058580439718816844,1.0261624959270068
0.046366023724216096,0.9439762029959711,0.07271765073592987,0.0246338766014303,-0.05668472920768686,-0.08271925522444395,-0.08045724868362306,1.0982043313881928
0.11062276064860625,0.975010347999208,0.1586454009615134,0.13857138845015068,0.07837449095548014,0.05460686419973764,0.07760255929935994,1.1456259931402357
0.11061410113347897,1.0208789404193104,0.15520788312456918,0.1431517798861414,0.07884733344295332,0.07213668132536938,0.05996928290774764,1.1615351779410648
0.11539930683649859,1.0084055005057249,0.13523297625833153,0.11667840171284569,0.07705485613284707,0.05183574106224732,0.04234364310566677,1.122748683662275
0.0999375377807003,0.9929115491945479,0.11003578085314619,0.07494110696569738,0.019684299357760754,-0.006887586574626944,-0.01739229401911253,1.1158976469571567
0.07877787100322614,1.000837307553383,0.09627645356637847,0.04655530582798897,-0.02242008874965754,-0.04296081334764759,-0.058681144035188225,1.0240579044268772
0.07180703719986212,0.9914763537233782,0.07761631673532496,0.035136858556189234,-0.055900883933801396,-0.08449276083738644,-0.07504962464392018,1.0674628689995707
0.10307347319089591,1.0478068569590822,0.17048840548238706,0.1553495975853532,0.06287113482692534,0.059981537972272,0.07671172159084479,1.1492125277152128
0.10949306437821835,1.006731297888189,0.178026172042293,0.15405177450590468,0.09503794728777039,0.06008966771779176,0.07627918692164799,1.0807996199179155
0.1134646799439616,0.9949250962022401,0.16731642096340438,0.13858870418722524,0.07267195360522997,0.05122163248144022,0.05713399692755177,1.1946767258702415
0.08801145478820194,0.9750134504107149,0.14214978965965572,0.10426507610548422,0.03208503755217522,0.0016087206962502997,0.004860306203479007,1.1348915721563264
0.07437481427529515,0.9760647086913283,0.09811209963529971,0.06621232030061593,-6.869852640424747E-4,-0.03758662898073359,-0.029844806335879895,1.1723101257541284
0.0830977448427585,0.9727621082223161,0.09519671406011967,0.06983638124764607,0.023762174717035255,-0.0432332409580252,-0.04362552044977537,1.1344340405082871
0.10556804413552459,0.9834156069719222,0.1362969059829769,0.12911528258016824,0.07222602720044558,0.048464118755955854,0.07281040451722735,1.0960377453146304
0.10864224068338837,1.0130593505729055,0.1371301875477598,0.1108458651872676,0.07504879823450872,0.04503100699681273,0.056919421131097665,1.116377982296476
0.08910524478103075,1.0112793389265202,0.11408536984957729,0.09351602836495655,0.05393525475399958,0.028617803700746985,0.030677537213929802,1.1611815493538324
0.06765608213520533,0.972962613299939,0.08588219112184929,0.04879235135006188,0.01901481172195287,-0.035534605050388676,-0.037990936708865254,1.0833472957735084
0.05397951782809009,1.0061900521891414,0.0596978077653694,0.02755494222331633,-0.03206937023166864,-0.06307492646153934,-0.0580589923096887,1.0522291355709426
0.06286164539065597,1.0010401507044204,0.08737158885106688,0.07392823717211269,0.0184435525618478,-0.0034801487282990298,0.018044525470792154,1.1265234099341332
0.10421090671070882,1.0705718119250311,0.1453401650358572,0.12868017880616633,0.09765065926907163,0.0909451570166304,0.10193787606575724,1.1597122478200386
0.11682044831440394,1.0730088322148776,0.15016100897904253,0.1136350377973619,0.10937867373383182,0.10427670473104633,0.11601391591139709,1.1520743548051948
0.10825619547528603,1.0534507326382785,0.12149642335590742,0.08982509841278646,0.06814769945858061,0.06034569688777608,0.07800996436309442,1.1198404804061903
0.08309032729554464,1.0395264148906918,0.10755592914846218,0.06592145836841308,0.035008065675510465,0.0169214529982618,0.009404829047842152,1.1127856452177605
0.07791874944100688,1.0333206392369687,0.09206787949634168,0.04861293835022025,-0.0016346136673558512,-0.020099026811885023,-0.015693378874344098,1.102620221050706
0.08775994800826392,1.0679835432158493,0.11773139354288963,0.062361074111262044,0.031861973902880564,0.003932523470113249,0.012384818493753209,1.1628298694744676
0.12185162043992943,1.0634659357262175,0.18488881115059355,0.1581867750081692,0.12892377105332292,0.12994146091148642,0.15412320218367623,1.2226805086732444
0.12740395153296485,1.1014889231812965,0.16451709166570275,0.12757173057623522,0.13166325669430365,0.13382759072045014,0.15851815534027278,1.2225873337425095
0.1288542031748821,1.0571401870509887,0.13514074755297614,0.08389234437625459,0.1149040165284542,0.09803387564534519,0.12040771080209144,1.1578451996319212
0.10710594078348613,1.1183087381692078,0.11434706433965794,0.051978542092957596,0.06261380417439338,0.04855050013034578,0.07728953543177622,1.0751603796660698
0.08458027287815643,1.1477318581227987,0.0843050531894044,0.03508588552892833,0.04333380357301091,0.02291654405030301,0.03120113487444143,1.0335166778531428
0.06086012237206614,1.1069685894083672,0.07446083656378666,0.03367732598301763,0.022152851570034465,0.015065222199619657,0.03470397460060953,1.0779048005486627
0.10961521561343839,1.1117757666092287,0.15354892953766636,0.12349602088407965,0.1421071978986927,0.1504918621432369,0.15606089528584366,1.1450564752238384
0.11652981695320525,1.1056186207033085,0.1441515257390453,0.11847286713789613,0.15280102379403376,0.12088653118306567,0.15151625003151606,1.1251280207461554
0.11464649568994742,1.0835512785120611,0.1248019189211458,0.08493711213118549,0.11016088832392881,0.11976409734293261,0.11788179194077905,1.143539730013971
0.08075932425683671,1.1109784501521234,0.09733877385323005,0.043654121370117316,0.057752805107132626,0.051136459877794416,0.07471914492971113,1.1076178214223644
0.08170926225469521,1.0878010819661508,0.04870014685779716,0.01189565965696067,0.02357530223660887,0.007442218136480078,0.020221033479274363,1.0844508565057613
0.07135898445609533,1.099996283855773,0.05435388645329073,-0.00990497190531376,0.0017155518536657345,-0.011757590431693655,-0.0034083539311780334,1.0564124465419682
0.10496689200340333,1.1306178516585674,0.13853956317528102,0.09151020737327664,0.09188816069629341,0.10366285564512835,0.1263182319854891,1.0434534956472565
0.1013162806120865,1.1515885808715705,0.11526917091681027,0.08468907905581623,0.08214530294443971,0.09153186612499789,0.1266606629521357,0.999719451802594
0.0932603531171475,1.125116135624548,0.10847351023716811,0.060301262410968205,0.07385377591045385,0.07886187682494727,0.09161363650553245,1.070356886393042
0.07505380141218501,1.1230905785147547,0.08298048393249524,0.04666442752844045,0.03967865384978378,0.030796573922951348,0.0529499588326583,1.137184663759255
0.06040388179499469,1.0970965797426697,0.05785686187125051,0.02301633738274593,-0.003408468937232942,-0.01250189637453972,-0.0029602050541327612,1.1041604218981558
0.10168578079654306,1.1277244544417817,0.13388974970913695,0.0922057583161955,0.0858978710901253,0.09550347734007189,0.12329795222515987,1.105673359024148
0.12223906173066473,1.1123452805653946,0.15357982645918955,0.13043053304161917,0.12307259270491117,0.1381013040539044,0.1685388972364097,1.1824377464770883
0.1137003992361232,1.0801119197759,0.1496207453149773,0.1256518103013743,0.15293078999205761,0.1632098172706205,0.19291781213910086,1.1736384686770285
0.10088519421673134,1.0565584497785983,0.13631286197485243,0.09212828498045231,0.099631037330983,0.11722932815859452,0.14255453542270446,1.1858845611671958
0.07541815385323293,1.0922798826560995,0.1113312954665772,0.05840486559127785,0.07445586007626104,0.05967246846701676,0.08283455398282885,1.180318390113053
0.07223339688196098,1.0643917892275714,0.07981842157919752,0.027037668412200525,0.031816752935517945,0.031968808861940666,0.042155239663268965,1.1432124273735729
0.12162527120386216,1.0604403395475555,0.14441792522730937,0.12248684365014006,0.1460669493293521,0.15489177696901046,0.1776225372892911,1.1914312070253539
0.14289079275697283,1.0950961638894314,0.16757521544069148,0.14531110993916463,0.15886469890290772,0.17699822946392196,0.2031667139569765,1.1779118770182264
0.14807137367770243,1.1355245659986544,0.17849236444325212,0.16108909733782426,0.14534828031381256,0.1677072970534591,0.19576163066162755,1.188399744638565
0.12895284020964104,1.1168794473377417,0.17465928401478126,0.1312936349426772,0.1125814993329992,0.11738804142167746,0.13958004213190983,1.1171489669493315
0.11493683660444698,1.0748152500877373,0.13550764667823942,0.08617314113147528,0.08327184581071266,0.0675733294454898,0.1045956055701483,1.1101753546509436
0.08103518531171373,1.0832098658483713,0.09140222611414849,0.05201466266511467,0.03844317065515525,0.015452631541893191,0.038533514604083934,1.155020702218046
0.10986725869229824,1.1391298474132312,0.14665068054455851,0.11912738102672127,0.11006649718291367,0.10905795589946302,0.1406370004587774,1.2438846051243868
0.13805216627331884,1.1463207188162778,0.16879366304620708,0.15080603857495262,0.14527568293471485,0.1662020334761705,0.1998099153712461,1.2162506841529106
0.13158865580075985,1.1478468522474485,0.15756202232435967,0.12676793527595454,0.12845658472409474,0.15350878120892314,0.18259936688654127,1.1753850561524597
0.11517187417122432,1.1406003088583763,0.11575639792240144,0.06689997240856108,0.07226461772215673,0.0945737537499845,0.13194644861585447,1.1140761954016618
0.08885308146928837,1.102942938251871,0.09188514733221842,0.03098696843560242,0.04216954960039848,0.039716053261596065,0.0589191470082494,1.1451633419928535
0.07531352461385807,1.1117937769167687,0.061103883787797506,0.005911083038703767,-6.95176569172451E-4,-0.0023710434560206273,0.0037559608663959923,1.1706293579383042
0.0714259777925187,1.1235363011357116,0.08309260253652541,0.041452076068483466,0.06350380149430206,0.03764671439462923,0.06619562678040597,1.2336035325144532
0.10010817741870211,1.094691215134901,0.12402131639274383,0.0952251605578242,0.0954223832218477,0.10908130274469502,0.14116249977046638,1.2619198612900935
