-0.010329106264260174,-0.11265160689796096,0.005304806837619047,-0.016128989708927424,0.030566230486216213,0.06000634357200714,0.07502189225736622,-0.09442569512458812
-0.0028864363002134466,-0.12538260613624347,0.019942074125739017,-0.003971682856572545,0.020208722725330242,0.06452673452629801,0.08980342404620018,-0.10443482026692026
-0.007425513876816489,-0.11496795053537001,0.012898998787550155,0.013067301110037377,0.03436307539561204,0.07238828832832413,0.09511657761719745,-0.09202064774498078
-5.931821597730423E-4,-0.11083225399769293,0.021223528643019848,0.01463403076236431,0.03454442983586645,0.08388242372968367,0.10478345788316157,-0.07202294908124171
-1.7761088046967333E-4,-0.09490868259407363,0.028862505731811934,0.013328043312475963,0.03808890304645651,0.08524358321923012,0.10122936175650069,-0.07438727280039356
0.001989427988364125,-0.10362201836099973,0.02536540256869013,0.022350762838634852,0.031918452887571724,0.07840012212324662,0.09623543614313995,-0.06643669378032556
0.0019882666424493518,-0.11692901502652345,0.0318776584042746,0.030469925927308048,0.03578456684720303,0.08114582217492497,0.11028734463737046,-0.09240373554912228
0.0032678913324546356,-0.10568936873732357,0.03851628440405237,0.04118103096900753,0.036412930480130744,0.08479202903690451,0.11425464938524688,-0.08778394387995817
0.005571361541810354,-0.11160400536013598,0.03868766986516569,0.044818183477563826,0.03223927797653711,0.09233462540899047,0.12150377144265592,-0.08448577806216462
0.008377729079700287,-0.09556801028099009,0.047923083455228374,0.05932583160475115,0.04394998171706622,0.0987170176880896,0.13216771803986846,-0.06405114159195391
0.012788262199275854,-0.09709120858997065,0.059755012140918516,0.07408807542553342,0.04737713176893516,0.0997587708432149,0.13545045074905485,-0.050300311923538586
0.014389570780242973,-0.09327169436587972,0.05936779133462691,0.08200123456458558,0.03788052180168783,0.09721734267288624,0.1231569891945613,-0.07188653938798537
0.007942337114481515,-0.10120529679232383,0.0636548104845326,0.09309707449510451,0.04057973106807602,0.10618550759426613,0.1284470930106377,-0.07495205911754782
0.017135250055818164,-0.09230639289517427,0.07522483772111181,0.09550083646029751,0.04187170445041471,0.10128363342027427,0.12893781038577215,-0.08090959559772572
0.02667065482277162,-0.07927333749042532,0.09254015453045447,0.10880894109198223,0.04453200740993973,0.10620587754339751,0.1320042129716665,-0.07946386872398932
0.02278068240038714,-0.06766853669235379,0.09715270281725734,0.12725786632622496,0.045007550085045554,0.11622241391356936,0.14739303019509953,-0.07478558270018464
0.02631088432850876,-0.07907314843117955,0.10392939671906556,0.13653337686457429,0.05765595678557195,0.11280545483438309,0.1473437010193689,-0.06399215527583237
0.03054680395229377,-0.07196058136316101,0.1060033994249561,0.14327030794796636,0.048726756915746655,0.11176192978934012,0.14332305429789874,-0.07877453478108844
0.030572567979135316,-0.07086598221575727,0.11272014597752861,0.15316760790967368,0.04453244813524073,0.10516714235554356,0.1451603357084578,-0.0769137248421237
0.031189521476821518,-0.07643649732352463,0.11375660357423478,0.16600303492236276,0.05079077560198618,0.1104036129559021,0.14849962966237293,-0.08851678641900279
0.03644084282218547,-0.06597192718642964,0.12308346208381205,0.17911963534555056,0.05128254281538913,0.11914054054910371,0.15157151845912178,-0.07687389851485887
0.03835687978206299,-0.06544028218971244,0.1478291787274374,0.19331060837966815,0.058928191259989604,0.12313947130224526,0.16184421925214035,-0.047153905999196256
0.047090194126711456,-0.054151632480819306,0.1528575847270284,0.2025126087917447,0.053604153996500425,0.12231947119155963,0.16371116954225579,-0.03739644118002106
0.042346078187197135,-0.047831190741866966,0.1480996092750364,0.206272844838019,0.05560122786914166,0.11734243110807739,0.14949703259361774,-0.043532385310662905
0.04542726555284062,-0.042965432058442804,0.1466533338103309,0.2034192991501849,0.0533633125060845,0.11806762166004685,0.14754628788826937,-0.0559410263241885
0.0435220366111852,-0.05223549774482378,0.1576816380225435,0.20500485489407938,0.04647175957124138,0.11213484370119912,0.1439976713565929,-0.06750977768348874
0.044138450739694135,-0.05197672453058013,0.15930094983718138,0.2167611647866605,0.04589956451492817,0.11766357491914152,0.15382018222148575,-0.08442006379007018
0.050212511519004355,-0.05491791945774393,0.17052196506926262,0.2259875251257961,0.05859163265483916,0.12268258480474839,0.15855419337827692,-0.06307986820881131
0.048475973096131664,-0.03973306999493314,0.16893991631665842,0.22751828233572544,0.05278479131350098,0.11300275802011618,0.1522223415246512,-0.0425945125478529
0.04817911968094371,-0.04121417388913285,0.14925769149090615,0.2205690520635602,0.04744285067996097,0.10647910945635268,0.14302728141084517,-0.07358167623796384
0.04736436923709485,-0.054220275134075985,0.15779120436341992,0.21444104057207547,0.04786970434936577,0.09465304448860552,0.13625413203300613,-0.07642319115788779
0.048401138370241896,-0.055485712999704305,0.15223975450395463,0.21771443033978824,0.0418511419831966,0.09202679928764006,0.12408937848434357,-0.08182238422030036
0.045419483471454386,-0.052075987520892285,0.14579163337102594,0.21276983465889185,0.035528067746969795,0.09019094897781933,0.13086674750025876,-0.09458508956762607
0.05479766287349136,-0.06016611624136796,0.15900604323084186,0.2161043673714677,0.05144963147601489,0.09778999958883108,0.13689134571086464,-0.08607153249817942
0.05326736115947663,-0.04899557890515685,0.14945628850405127,0.21628363295770028,0.04432311048797658,0.09872474818660369,0.13519181483817264,-0.07025765047038303
0.04472077451101771,-0.05057673560455925,0.15186283082662635,0.20296655804115998,0.04152597567249253,0.0923812870076318,0.13077497442109723,-0.0759455842067148
0.04492643204612759,-0.05750884372543641,0.14286378881889095,0.20246908363824767,0.04331159045266277,0.09236273544629818,0.11957081450370653,-0.08572295126660236
0.046616069496951205,-0.05885936147436624,0.14599556220006768,0.19564882715801513,0.040334770853140044,0.08386354531514716,0.13005536502368448,-0.08546380719679605
0.0434568712749133,-0.06374660535723095,0.1431171069452023,0.19953261441026582,0.036157857725763305,0.09090025543659976,0.12891465886448727,-0.08711328452765198
0.04248254730941186,-0.044853054441573226,0.14962987284391036,0.2004301049643155,0.03911450252248897,0.09267674908049404,0.13127919674763505,-0.060324525926360076
0.047175741372110926,-0.05995889739173732,0.14813384192684106,0.1995695053952537,0.03920486161127175,0.0995237205458546,0.1277528011134457,-0.07587094523485319
0.04062666937142986,-0.055884688159604665,0.1411229984742727,0.19662690023775153,0.041650863237106664,0.08448689035817039,0.12007740304823498,-0.06783216712212406
0.044190927848636395,-0.057975152380835455,0.132896590923531,0.18716339508786875,0.03792248367946501,0.08726350785286636,0.12029320148727883,-0.07799425776852409
0.03869157922156483,-0.048631167364310744,0.13663717836350597,0.1811717401358263,0.035786412833934744,0.07983362522898954,0.1137305167385208,-0.08884259432052725
0.04922560195028345,-0.06159521430454295,0.1399989661183716,0.18748634588703128,0.04281223761880536,0.09416340738200785,0.1292762767708016,-0.10297542875301967
0.04504801117457788,-0.05822041753985375,0.15042657601189732,0.1902441074232762,0.048636172293599546,0.10200099904074787,0.1252662971319173,-0.06752515286735912
0.041053950037012996,-0.05273903504852006,0.12880094052151903,0.18401318694884902,0.04533984844793039,0.09399984747316031,0.12632925592006256,-0.07193390007954405
0.0372663382368684,-0.05619012398120749,0.13638555143214964,0.17113231723879802,0.04064419886717869,0.09347229162031168,0.11741627378370495,-0.07563627504348139
0.03986221100735473,-0.06863404198021973,0.13041303737386734,0.16664247714167532,0.04290399289003908,0.09082505532224569,0.12245898483085488,-0.0882537203442185
0.040395692237424514,-0.06970675988586734,0.13363231258375965,0.17189667528994407,0.045002981341671994,0.10041332701101631,0.1230279260194349,-0.08119517649610149
0.039224045850951274,-0.08024431630306693,0.12942627349609442,0.16529401051717477,0.04648634772751784,0.09482387859649319,0.13244958835012244,-0.08979432520359434
0.04005573834128187,-0.07582860786950103,0.11917126043748165,0.1688755958160542,0.05618769815047798,0.10880158306389134,0.13699206300086414,-0.05617231337664033
0.040372026007979026,-0.0628806844923608,0.12307428905555357,0.15483071284937922,0.061460457059498534,0.10672402204627696,0.12974931831822195,-0.06800812858278255
0.03509106652715874,-0.07553699341220736,0.10818361755417777,0.14209759562239435,0.0515435195005945,0.09796035992504233,0.12546617274314714,-0.06309959417337245
0.0372968309664171,-0.07799632248416286,0.11135766695291544,0.13522983788657272,0.0494693423661796,0.09469212022362965,0.11189322034744463,-0.08142542822537008
0.03315997977193019,-0.08710637571639505,0.1015524196955902,0.1406644094472892,0.0516116813417503,0.09568481496441456,0.11517099385297228,-0.08953014506834067
0.03400735394110047,-0.08545920263672827,0.10299397670776912,0.1296159343699302,0.05115079588849878,0.09171158566765995,0.11641550202120379,-0.08988811979394337
0.03303213358567625,-0.08576397337933703,0.10416207603168456,0.13614750734459197,0.06516026757165932,0.10493994914676236,0.11960831643634685,-0.07207837316408611
0.02949530683357932,-0.07707470329408639,0.09810347781607608,0.13037423905857767,0.05667259869853201,0.09197183485490806,0.12470872534673699,-0.05418450396653847
0.03318477179073202,-0.08525345114133205,0.10173430740383212,0.11621665343583762,0.054086412077503546,0.08609550979652661,0.11966887334173078,-0.0495357275139753
0.03039504731178761,-0.07597535001511557,0.10483721610522051,0.10969830036133951,0.05543935285205246,0.08896114181416008,0.10249743398610936,-0.07693994970621668
0.02878823151190109,-0.0850562444552894,0.09598116140931809,0.11952876404172741,0.052269241967725935,0.08159518553989574,0.10782011541216745,-0.0796245057617522
0.03975849572637713,-0.0907359467627613,0.10189313881443285,0.11933848492818294,0.04917347650835613,0.08506763593770374,0.09897196527489274,-0.07420607248586004
0.029475690274812148,-0.09157881558164897,0.09344996739577095,0.12181850187387691,0.05157252671644684,0.0903823264469471,0.10801251300379469,-0.05380258161378753
0.023190248396814817,-0.09181300480719826,0.08299785248711253,0.10155585912280718,0.04938515828745036,0.08323445339021791,0.10072944632201931,-0.05340735223559902
0.029343971909131662,-0.08808873724875417,0.075694935155105,0.08373369219551538,0.04754824584247151,0.07092524875716813,0.09000527193067676,-0.07103957652559573
0.02613961305212897,-0.10956672990259926,0.07380943850733918,0.07040299375466771,0.03869982626590666,0.05776025801122154,0.08301311888486569,-0.08320902464380077
0.017394195115822776,-0.10567992617220087,0.06454964242918071,0.07483054340956045,0.04049330847231116,0.05972205021151587,0.07921868962385037,-0.09333196519497985
0.014977676834106508,-0.1135227147092842,0.07216260855517108,0.07375545686959602,0.03124701465308966,0.05835974111024673,0.08541197145480854,-0.10409788967240205
0.025033401300064567,-0.100429848305178,0.06593381879778847,0.07369254917168118,0.04753067619245009,0.06645865698925153,0.08540100249241431,-0.07694855584523713
0.0202393565747828,-0.10032256475034533,0.056949750216016434,0.06905509685350872,0.033017583369555376,0.06774011058740272,0.08124959706145211,-0.08004225414387871
0.019772261658779745,-0.11131684218428914,0.05863087531882776,0.06248759450050988,0.02735922559163835,0.05640603801447382,0.07104540819487086,-0.09089496332062626
0.026465588119773696,-0.10865009918233973,0.05701971187192424,0.05756584890782185,0.02866534227438538,0.05457799720429985,0.059728818836329266,-0.08625634511229371
0.020337609452128605,-0.11311554991812134,0.0633633529040041,0.0666349927371942,0.03280666524462034,0.04798834780201025,0.06045920548341481,-0.11564949533616119
0.019684015702044873,-0.118766094285823,0.066016790205605,0.06690065065942663,0.031208944340574807,0.04720059936061055,0.07034022599975621,-0.09843853038865778
0.01631912030039131,-0.09646054805726623,0.054216748097495236,0.0711830917703765,0.028957755015216188,0.048638219952697195,0.06639290032362738,-0.0807358076623998
0.024214095921598608,-0.1027075011424211,0.05234623173563537,0.06373909836112236,0.02481578940948135,0.043765407668918066,0.06526258369421657,-0.09567618446976164
0.019834023494819334,-0.10191922552191968,0.04907377931142708,0.05469753026146369,0.024010558170549035,0.03696770950625632,0.05490001447922283,-0.10492422529607484
0.014845360357817639,-0.11556532810531567,0.04965991415313216,0.04752902933792936,0.024070284690145202,0.03515605775563715,0.04711652840135039,-0.11978838376886669
0.014869797108281983,-0.10951822957905251,0.05187056189780632,0.05299117261360769,0.01436779026564558,0.032181321395843454,0.041436941796055116,-0.12770730051348306
0.016809183850659222,-0.10206122532513047,0.06212596832419306,0.05846334328461044,0.019325681365984722,0.04766258790619186,0.063835648572036,-0.09175171595927688
0.017626308814271057,-0.11415008575039474,0.06646450439137787,0.055286963585624245,0.017708576409140413,0.03834257086102483,0.043796728566251907,-0.10618496692295074
0.019854176714192043,-0.11316095841228646,0.05612151846795007,0.05116572973117358,0.008171077782981206,0.030449092975613046,0.04042157712999836,-0.10777656107050598
0.0205976616108013,-0.11665442265853129,0.05271075121748463,0.05269672152657081,0.016480906846715788,0.017878854034578465,0.034478383753242935,-0.1241960573203696
0.01875074461686802,-0.10283119871681469,0.04923703301338146,0.051915027141123206,0.007935665688233636,0.020058829848617565,0.03578031552946038,-0.11144249252714293
0.021785932388296098,-0.1053210931209157,0.06278225423983518,0.05564417212793445,0.009077636066237365,0.02515976403586364,0.04358964104849058,-0.11078077802910409
0.030013790083346637,-0.10489380062959025,0.06520708882927148,0.06491317819585685,0.017111470235012975,0.028421226860116392,0.0386381241602095,-0.09172496568656728
0.019199312860928488,-0.09683341086018649,0.0696683700751344,0.0556014824818652,0.0023948472177531066,0.024103953530866126,0.03992882382555782,-0.11016483502827143
0.027702766684071137,-0.09360923801486172,0.05663781592256872,0.053523794042803836,0.008349322221225653,0.010613727263467997,0.02306674506496242,-0.1146579108087169
0.020087953143830734,-0.10827806437753439,0.05271563247377502,0.04314203535646593,0.0028935371576007626,0.012259956456375672,0.02567600741560695,-0.11861913887713207
0.023614245115597954,-0.11052158854034451,0.05780403450008471,0.041991958570099464,0.01038028491738421,0.006678785100268602,0.01592404087686664,-0.13717785855007517
0.023723395277610734,-0.11118266207945089,0.04462590699094865,0.03416060159249767,0.005734372508821724,0.01334681921242047,0.027657731083165858,-0.12418862376677493
0.022641982764041054,-0.10050998056195118,0.04379953065289552,0.033098608457895855,7.51738301230598E-4,0.007825443475113384,0.022184088257725918,-0.11214934059009182
0.020967904203872203,-0.10601507852475323,0.03276305259077538,0.011546099487390209,-0.0019262002085269183,0.001827423458983456,0.01266601370640981,-0.11365674035591425
0.011601059420103258,-0.1180552961302197,0.020736960153814096,-0.0010976655923902261,-0.01179174922111556,-0.003980151502513464,0.006000983429802077,-0.1300803498455249
0.0150862108659592,-0.1161317528831475,0.030549367673517548,0.005721855352497304,-0.014466056265098342,-0.010593125688921855,0.004361034567527627,-0.1289147385844633
0.016363899610046015,-0.12319612411718164,0.03040738940139022,0.006039272533594789,-0.011637418354461773,-0.005819112689180177,0.001972933778239194,-0.13203739227398845
0.018690691106098656,-0.11600652024759066,0.03924126917077693,0.005195702269728902,-0.006050049709110354,0.0028504402631385627,0.012752390488216253,-0.12297354203458177
0.01567957193831274,-0.1040500314364626,0.022717518586212817,0.0012131668927178195,-0.00616924439789371,-0.0038404324125391833,0.007920093610130597,-0.0988826237545404
0.01918253540495088,-0.10966778881451773,0.010078058807321506,-0.010677266491251978,-0.006074123408607212,-0.00718383895366105,0.002651990293984754,-0.11546556613913826
0.018813003762018766,-0.12718027946583668,0.014045605390258937,-0.017820772834316427,-0.016179610866999622,-0.014929041230757287,-0.005969139052948139,-0.12832803938866222
0.026710728484873433,-0.1282897205084255,0.021661653983410908,-0.011288363820453033,-0.01777872482289017,-0.020807515424124706,-0.00830983119422719,-0.14428012533580453
0.017857100110452582,-0.12312076409926707,0.022856910856849023,-0.014724048437108688,-0.01733618542339828,-0.012741154271912079,-0.010038755357727795,-0.14067158334169133
0.018039069998893154,-0.12951272636903816,0.024563009082098842,-0.008435922433953559,-0.012771330943304593,-0.009375478466957198,-0.004328858869214159,-0.12594797781350472
0.016971884605693002,-0.11756930080643062,0.024868034870653786,-0.0015343921402580566,-0.010490774171753094,-0.007068349506063471,-0.003978592775376869,-0.1268271414710654
0.021766027148873907,-0.12616961644470012,0.031008262427617533,-0.001789525898497056,-0.014081326472106134,-0.011203767686417006,-0.0027949795419847435,-0.13268682486234967
0.01612899795324967,-0.12388024256818837,0.027081847793567586,-0.004220120502198475,-0.009283067404435259,-0.016077799113668252,-0.007793079402415035,-0.13790442883473386
0.017899547418478507,-0.12246449010772911,0.028687088175517583,-0.0011932907978867366,-0.012673816571339388,-0.014808707887853163,-0.011651730004922539,-0.13683938111600086
0.020966182039627135,-0.11488265938341448,0.02251830856290854,0.005310703374297827,-0.01677449731154783,-0.0149157676727823,-0.0026958687420412615,-0.15141679502343194
0.023076012170706706,-0.11316118100170522,0.03719488828731991,0.012864036408862006,-0.010164947565176332,-0.006604079235474846,0.003960837527065795,-0.12761592264727048
0.023125206722493918,-0.10408518030148953,0.03135445990578848,0.012450513614472644,-0.011682876345488565,-0.00939163257290512,-0.00811032493895941,-0.13046540387707056
0.021549883197702523,-0.11214058102532448,0.03707044056757433,0.013213818159134968,-0.005596674648642716,-0.013612055342799514,-0.01242221867832642,-0.13378277655382803
0.019542994189303543,-0.10736139743641109,0.03334673520933415,0.015551846047117077,-0.014027959204729778,-0.011081712700018951,-0.0068683376157492974,-0.13334616663476287
0.021416529039173356,-0.11290067921864656,0.04732469932295025,0.019641261835017618,-0.019518518979222767,-0.009296948404449334,-0.005489819407020235,-0.13658413427349567
0.02200623956365415,-0.110056436753224,0.052264905105920495,0.04024642369421194,-0.015305155004739696,2.6495636633921586E-4,0.008530046791418807,-0.13547054308334672
0.024701018327957607,-0.09426826401755149,0.05890333016112701,0.03954958070488167,-0.007121673290492011,-9.99632513826664E-4,0.005368221952183378,-0.11059956242345403
0.021995169086460483,-0.10049042880100378,0.052381689579092464,0.043420773348116025,-0.015404909528759805,-0.014735282471859767,-0.004741889384929034,-0.13208497717825704
0.022146791913897183,-0.11105978008342544,0.04557145087813541,0.04616637731645621,-0.02275525525494334,-0.022892720414138448,-0.009241462416864086,-0.13776400945533723
0.027373133212133822,-0.1070781488431346,0.06228867918003265,0.03598295759332816,-0.027957311699952456,-0.028935868966141608,-0.015212708781783237,-0.16393290051840534
0.024663660903590286,-0.10548282524792281,0.05791824868813445,0.04471912775130317,-0.021682934329106323,-0.02686821447803978,-0.02020536205120509,-0.14135726193728027
0.029467621971296275,-0.09747107549201803,0.06025570435950382,0.049848023506605194,-0.026591699239194064,-0.024180825907570987,-0.01671950803855894,-0.11331217177244568
0.03482151376473984,-0.08969316556599848,0.05034991451507605,0.03611488830305554,-0.027089085792802458,-0.03440508582488895,-0.027109323682097102,-0.12747253717405557
0.026440513406492804,-0.10194253247824983,0.044520003399218855,0.03545928232251216,-0.029082727414920184,-0.044810417247850336,-0.03511680492483873,-0.1337190791214561
0.02573567560734703,-0.10057265037451059,0.048867636790049074,0.027308571389228698,-0.027469403791248643,-0.05055663993819055,-0.04839199025230474,-0.16809425306440526
0.02746633948175866,-0.10731236019008979,0.04635740893771453,0.025644284060366045,-0.03469402922908727,-0.05398034087369204,-0.04326025131046077,-0.16614791477543972
0.026411531845097258,-0.10475644593620906,0.04465347208799068,0.04140577790346955,-0.032387766620360546,-0.04054566956776753,-0.05152555270067346,-0.17201611000700195
0.023112347877349955,-0.08562439897887839,0.053134635563360996,0.047743330739633646,-0.02241185006409752,-0.03143675271565209,-0.03819789042756371,-0.12416938860724991
0.025690839403320502,-0.0931774685294215,0.05124940188177603,0.03228379698445682,-0.0229026325631321,-0.03413703343659577,-0.03614169624429214,-0.13887990972333553
0.03088202159715506,-0.09329351859610209,0.03901524260217838,0.03744707094677723,-0.028934599992127122,-0.04660453871556696,-0.04321202885113967,-0.14712608070292232
0.023036131742554117,-0.09675128396444137,0.05367810800112384,0.03265125563444975,-0.03898017846930444,-0.05212498557232344,-0.04649843445007331,-0.15887989123648444
0.027697950612716106,-0.09530129437843342,0.05829985213790157,0.04196795165624919,-0.030421457896158625,-0.045148978035661515,-0.044413142808436834,-0.14774876078159288
0.024936468865977262,-0.10094220894819413,0.04929308657168465,0.04485284143166828,-0.027384740769909655,-0.037184684880682876,-0.03842719872445892,-0.14852802048779226
0.0325763212680686,-0.09492195187869362,0.055060158937156614,0.04507420972280609,-0.023706498565949603,-0.04301124128961472,-0.034910423440656035,-0.12911008013453196
0.027901304148616916,-0.09298362548010021,0.0582158460306292,0.04683016107629826,-0.02611938481127925,-0.04231474659302545,-0.039873743542290604,-0.12763117249103928
0.025453479670271607,-0.09438860758792152,0.04606612713059622,0.03544207364251934,-0.022859757614043994,-0.04034362227066769,-0.04103072138734018,-0.13218093503774922
0.024661449863133726,-0.08683443122189681,0.054473437106750774,0.04198925928310641,-0.02807409096114626,-0.04224281239147462,-0.04086607548285397,-0.13722020340300212
0.024528106200753075,-0.09357480897534197,0.0679884391121455,0.03987862179359321,-0.02703300383128102,-0.04109827879343016,-0.03755570015944784,-0.14955477819745072
0.032569638443319844,-0.09951282854194594,0.07205001459136583,0.05158784353669888,-0.019882447566337152,-0.034262811608383625,-0.029811078703687054,-0.13526100908730793
0.026332741354216517,-0.0923472040584447,0.06556684291243159,0.05942845502402387,-0.024082779428790876,-0.025997006392100508,-0.02235448617076894,-0.13759410463058575
0.02254878146157357,-0.09128990833522213,0.04874051246955306,0.045844364863035496,-0.027881389727461094,-0.029374878401969482,-0.027782956087567773,-0.13199016057259164
0.023943319324602395,-0.08860188143213572,0.05836479515530152,0.053978880406263384,-0.027910658830478188,-0.030026481268379077,-0.029486808089162722,-0.1327342145374787
0.02266744814774089,-0.09188594228665203,0.046307381054382195,0.048307657221082,-0.023820697970101768,-0.03372444049594923,-0.02125120297385874,-0.13548469241539868
0.026519626733479507,-0.08617704872539049,0.06839260497813425,0.05021646943195037,-0.017379299729620983,-0.018778697192452454,-0.014578231961795678,-0.1302745703181805
0.03248438468778611,-0.0986459252251598,0.06050197597632026,0.05963420656035957,-0.018193179020336132,-0.02298547882736629,-0.009322429256406108,-0.1340967773499907
0.030138434048761032,-0.08508384320261338,0.06386719974933035,0.05549474439247115,-0.017251758477672744,-0.02101362696878809,-0.02191490235719636,-0.13506474002923718
0.02499952056159226,-0.08489785456977209,0.06408044464816778,0.05725827517191295,-0.019621780702863634,-0.02386001581064663,-0.024210509114421262,-0.1262857405607639
0.026521601450837456,-0.08837384427017103,0.059515979340940696,0.05639638180803594,-0.019789622147625998,-0.02012206835083043,-0.023329464439673375,-0.13429571537944926
0.029007742807878423,-0.09992478863788659,0.05810269228550112,0.062421896846186285,-0.012659769197793507,-0.009469356093642273,-0.0013757767329311272,-0.13825979776274905
0.027132006640816993,-0.07807224499295312,0.06520749061685994,0.06739157900295364,-0.006651284425417025,-0.004542356600300339,-0.00903516956824131,-0.13225682518738344
0.024485166845279998,-0.08488039868900661,0.06713872020066172,0.05412176825413744,-0.011099489023541149,-0.02378086307537459,-0.01726251634795045,-0.1163207755505797
0.031421383750784335,-0.09116700832434974,0.055850717461539044,0.04007260805913623,-0.01874165604171028,-0.016829512915366718,-0.014811437907760776,-0.12714084676461238
0.02162058113689139,-0.098150729774775,0.05764600666502554,0.0413245062429869,-0.021095500746910086,-0.026579196181003184,-0.015123887836244401,-0.1398932443139421
0.026182946791342747,-0.0965500841178593,0.05075324557306638,0.04447044690227908,-0.016119453135843256,-0.02141836130935756,-0.026101572942920846,-0.13932755447117004
0.029674189430428904,-0.08876342220498379,0.047445232751643536,0.04445355366721571,-0.014806580448843854,-0.017656612843387307,-0.00870149394560686,-0.1328145847343047
0.02584744500392345,-0.0896262200514078,0.0530733981266092,0.04283825844966252,-0.015736188299197932,-0.018825632968880658,-0.013406482679750817,-0.11423067488152278
0.025535211145446792,-0.09697947046603071,0.047773331281247854,0.033937296411133515,-0.010294094203080523,-0.01959841226598554,-0.025018761874825778,-0.12716877477721678
0.021784123498453874,-0.08333134541379968,0.034135344808245004,0.024852265930463153,-0.01905169025238809,-0.03130696808498664,-0.03204805865792379,-0.13543163537430858
0.024148788629106844,-0.10979743704084832,0.03581352819285025,0.023424373038861388,-0.021377406834193497,-0.02838769321897988,-0.026906732917146802,-0.1426066431287496
0.016342731846500445,-0.11075770711501269,0.04242811818118703,0.026024844050666556,-0.01572934422958127,-0.017317481782731868,-0.013246113761251371,-0.14565879656717995
0.026267861618213064,-0.10495909185337135,0.03777048995105456,0.02492155336863394,-0.005320459100426507,-0.016268871196674153,-0.010979172980363746,-0.11823296752951425
0.02063360832525244,-0.10303723160290713,0.041075186992357654,0.019274566587594157,-0.00836415114674,-0.014629654938584707,-0.006453214034939528,-0.12327640211719998
0.015165934402939701,-0.09366950560238742,0.03863265802649698,0.015776950414115084,-0.0028284461284851193,-0.01448897074369823,-0.011334407782391373,-0.10251237890342246
0.019240451756575714,-0.09800782444512506,0.03550001997215452,0.02184315592228165,-0.013667839934134549,-0.013148718454998107,-0.015863460397031383,-0.11842741814254222
0.021138821912230658,-0.10513522103135886,0.03988188908770484,0.014936735687857132,-0.018658244837846172,-0.009633261860977856,-0.012278387658226286,-0.12864211674138065
0.023100173425361727,-0.10384686792426591,0.03963498752841654,0.03020549122613284,-0.010342129753906786,-0.007873685606506657,-0.006075716927482772,-0.13261305185472222
0.02442573855185248,-0.10511374199618488,0.04417953591312034,0.03349116209475689,-0.013235221145988862,8.00717808677875E-4,0.005279476468734625,-0.12180627040422934
0.02137718738134998,-0.08980253050439273,0.04483269782442219,0.030680827009111376,-0.0021224592834898355,-9.425903746265162E-4,0.010948609779339983,-0.10628668699728226
0.0168802301892483,-0.08432208457277017,0.04845281038998528,0.03285369262180017,-3.8895704864226247E-4,-0.0033858059416965974,0.0037896224998659315,-0.11806894282780428
0.0244046187394786,-0.10592326879074011,0.05453496620559034,0.03612510160567345,-0.003959878964639862,-0.002067847839360766,0.013816128591759236,-0.11819398345148044
0.01822969120300652,-0.09339140770498988,0.04597893256070396,0.037613793755230523,-0.006185628229696403,0.0032141748359586944,0.00876694412731583,-0.1131917269815354
0.025822002495679067,-0.09261800759965609,0.05797207265600563,0.052371099707452386,-0.004431237564062699,0.017374622992094208,0.019571887633163778,-0.11340179706936093
0.02258146819321052,-0.08635215343061575,0.06286010483143412,0.05988662008392788,0.001839625806553832,0.011214981806047724,0.024000338427298255,-0.09393498335019022
0.024309597996872042,-0.08797726540348948,0.06456298946762545,0.056910033288446835,-7.82151364832813E-4,0.014708968479814103,0.01635432632319684,-0.10602476233521381
0.024098766020052943,-0.09896337667765698,0.0633657503904782,0.05363562798256522,9.825931825548015E-4,0.004396752332827402,0.01980061121653013,-0.1114825101334266
0.028165648496983615,-0.0953685657692732,0.07362204224978983,0.06299093759477763,-0.0034462341919787457,0.01040934638097271,0.022742949343960702,-0.12778300696381736
0.023859143591753246,-0.08647308431850302,0.0655288925064402,0.06550091115497286,-0.009381374274957806,0.009168010856898919,0.02031833939083534,-0.10942863786044213
0.032000655763116205,-0.0802556437657177,0.06457817970402228,0.06631188063701203,0.004886770484218987,0.017655402242920747,0.02472518293673889,-0.10385814860521804
0.026314344142295852,-0.07712768926993802,0.06859158481463823,0.0710445536256867,-0.0033592633885424503,0.009875143231879624,0.02936261470540915,-0.10722991066400166
0.029844992349383887,-0.0920509083351455,0.06723028170570401,0.06887490057527071,-0.007110258654207505,0.005653376254830661,0.012162655398845406,-0.11624005408683956
0.027154792326420228,-0.0893497916992159,0.07472961677435315,0.060572089179001885,-0.011926999035635377,-0.0022374474179142545,0.011064399927852462,-0.13977142119978583
0.024577075663408336,-0.07921684878150695,0.06366474947285829,0.06060183830055973,-0.009424778276816842,-0.0036233708353914026,-0.0017527397035327905,-0.1360267939584942
0.031163941298434847,-0.0819002919341572,0.07205333762858845,0.06332630129869274,-0.012596421765901726,-0.004050135439990437,0.021478147709832324,-0.13056640960322677
0.03430255933390313,-0.0743001034492661,0.07812329038617755,0.07022769850891461,-0.01236620127380439,9.717206110685792E-4,0.012208920803703525,-0.11206846413884564
0.03082769153315926,-0.07553147961560677,0.07415338054975774,0.0572194638318793,-0.014305389534620625,-0.006344181392916332,-0.004548976500151132,-0.10921102843617787
0.02490051525994048,-0.08416385886671882,0.06879200882221426,0.054035299016409695,-0.01605506004116822,-0.015211499380540162,-0.012946963986989416,-0.12322512043754798
0.023104519291262546,-0.09634602378925122,0.06477381601829758,0.05690101626332628,-0.01971314719382503,-0.011657111814879594,-0.011025292879442422,-0.13668401346264464
0.029143222389833977,-0.07990482143715896,0.07312245818662792,0.05651364277267288,-0.018253552441105225,-0.014365708837682432,-0.002275599690528228,-0.13404624432261503
0.026860824293078088,-0.07853673747831424,0.06860604480269439,0.06174334835016808,-0.0162443330712056,-0.010575419439119015,-5.630239114776636E-4,-0.1152488097190074
0.03225399906218251,-0.08149655419687762,0.06657315876697423,0.06148967458019221,-0.019731522126884154,-0.014344030346409358,-6.303602745107927E-4,-0.09866802709268736
0.02540405520228701,-0.09387910237536122,0.06471207209454621,0.057482752134878655,-0.021580028630979648,-0.015549208636473378,-0.012881297412622726,-0.12126446905188563
0.023804664244751954,-0.09274463468242003,0.06852059612318014,0.05007969524661505,-0.02526884564318165,-0.019880117009652625,-0.01828393836199514,-0.12429796227821607
0.027905902720387118,-0.10468215821801435,0.060914165432354936,0.054543249155150374,-0.025633552441620758,-0.017908670269666853,-0.0050975354815709015,-0.1265180742412794
0.01887691534108966,-0.10112148258065098,0.05963192863763272,0.05632137263323959,-0.02815112729226462,-0.016514959730785393,-0.016330410561925364,-0.1377401223786777
0.028085374733385165,-0.08981289754477026,0.072481010790743,0.057526556327661744,-0.014720252397707622,-0.007130400714187491,-0.0010562282018358813,-0.12271350514697603
0.019115010853244477,-0.10123035365358211,0.06719603610370183,0.05078325508406544,-0.014373448755370785,-0.012384803575330883,-0.004096741465815009,-0.11572341970479705
0.024354373703361826,-0.1046078958084785,0.05703234798387007,0.056694839749196695,-0.012735190197898476,-0.009108026149098149,-3.795979768655068E-4,-0.11658971762538245
0.017643396632304777,-0.1064511795827151,0.0684753695666739,0.050564060223680395,-0.018562709806484036,-0.007494112601560989,0.009173827571557545,-0.11845794305099235
0.026055221344604057,-0.10025558064748,0.06766944932603483,0.05913947977112574,-0.018784943095911454,-0.0013173797919258342,0.00374522390115552,-0.13015108324526808
0.02389851207369271,-0.10544563839435256,0.06965252892420301,0.06106071284321471,-0.010683437307341784,0.004952313699176188,0.018839995849603712,-0.11177887003087525
0.025668718111718843,-0.09682897215370198,0.06074416454443039,0.06861433633988866,-0.010091777177549456,0.004412450385125607,0.012502390151053018,-0.11101526841726744
0.020196103504936315,-0.09065596722910035,0.06476581711504366,0.05149374140842258,-0.016481525263021567,-0.01026692140930031,0.0010548149448646087,-0.0914957588252041
0.028064334362364225,-0.09015779648750698,0.07250821365743795,0.05424012353306146,-0.012184583856770178,-0.010396311678511324,0.00357862488443325,-0.09540411601668777
0.02707410277284417,-0.08032769982106701,0.08609738940995018,0.06799091452089076,-0.011475100959451975,-0.006135463445227117,-0.006679843001291936,-0.09756345462126384
0.0347086327693819,-0.0715739807217281,0.08310116505422055,0.08581195273296047,-0.011553966261697622,-0.004450436683610351,0.0032626546889107117,-0.09570109578752262
0.031176305620879245,-0.06716627259423902,0.08152334243954286,0.07920381051028504,-0.007155636259750842,-0.0037650818771373246,0.00842907911070149,-0.09965697569536609
0.031335282153812476,-0.07636150044100301,0.06904828584377119,0.06161530602036887,-0.015059444902620405,-0.012238374137580565,-0.0030979996002336164,-0.10329279466998385
0.016734714109833536,-0.08446577043199381,0.0629521527892816,0.05114664784152806,-0.02193832848625949,-0.016825409041176943,-0.012727405963318388,-0.10822990720952719
0.017195274660968114,-0.08509219162310787,0.06269727539344289,0.045067422465383956,-0.017335239455778993,-0.018759744445442605,-0.018357010017965407,-0.11952863993808346
0.0192649463754905,-0.08933560555732603,0.055337732348305954,0.04528250922715821,-0.016523717523533047,-0.015293002078876036,-0.016716633430595394,-0.1266960362575295
0.02715856435717688,-0.08357249039300796,0.05035239029395528,0.04019120799076883,-0.008099248113970569,-0.010660719382044303,-0.009678346247614142,-0.12307759704709313
0.016037570316916237,-0.09573106365587006,0.04977127683804241,0.033696533626230735,-0.015219648904374269,-0.01724510366226931,-0.014601529385362738,-0.11435039154233975
0.013571740756889331,-0.09309282186589712,0.05389346398334476,0.021166820739338794,-0.012017466829188883,-0.01972296105823711,-0.020622285842504383,-0.11282835025708193
0.015563943939726491,-0.08316873782116889,0.05490950558372876,0.025136643934049477,-0.01314692466582777,-0.023265522948134512,-0.02387034774597235,-0.13186453840597567
0.014552277519013878,-0.09134568140518236,0.05300055309866877,0.028734033737106437,-0.02069037103119657,-0.023795259409270027,-0.014119654499227018,-0.12986363224506753
0.01298940187065708,-0.09818925469956424,0.050585241671784666,0.029565281634759567,-0.016706144956214756,-0.020525774998085892,-0.009891366757943781,-0.11843636192992746
0.016251340143634354,-0.0888634293183817,0.04446722722765401,0.02978687663120069,-0.012625353495081957,-0.016623547342505294,-0.008236964292443798,-0.10788334962150944
0.013441604895506973,-0.09787100649578799,0.03844430338999702,0.014588941588453988,-0.00982137751109024,-0.013425299883500108,-0.01469655330023514,-0.10790265457936346
0.017346698421877003,-0.10574828484023308,0.034539340924989934,0.0142075662483489,-0.01183445338912446,-0.013458170695203279,-0.012010861341609431,-0.11300422300264541
0.009324752059337936,-0.10473409396976303,0.0432796283035245,0.01773810214325232,-0.017660280503133473,-0.019891658660415156,-0.010064249543397514,-0.11338486512997485
0.01296483490412708,-0.1254305321495494,0.0505500992875653,0.023486689581915684,-0.01926518015011569,-0.008590037382682197,-0.0018506498736781255,-0.13633147814273364
0.020320801085772458,-0.11115093487443604,0.04535054105314401,0.021387894530911333,-0.01401785291490477,-7.697356704496701E-4,0.006691260600625273,-0.11453029532452558
0.012959379608382355,-0.1062084645328729,0.04756845231476641,0.02019770373828544,-0.010219208642564169,-0.0057039566233734245,0.008693847943592958,-0.10346070436381666
0.01049905199108415,-0.10291724627112368,0.041091482756779804,0.019126734710415275,-0.01968300983252772,-0.010030673951885883,0.00692172046714903,-0.10664761685384731
0.015888063867680352,-0.1085227284180534,0.045315208255090965,0.021681906567244842,-0.015240750204918135,-0.0056143276689902145,0.002720725819461475,-0.12442453624716593
0.013839833208438972,-0.12180816308911047,0.05003379280568758,0.01467690211708833,-0.006320470149544352,-0.006618400469660554,6.974091300149018E-4,-0.13519136950361305
0.008026554365222214,-0.10081906325084221,0.04770310328068134,0.02115691796616909,-0.007808451600178638,-0.004614246420673574,0.012218524250206267,-0.12738359692197276
0.016569948010556442,-0.11264864780766709,0.036326612576598305,0.022590334941200697,-0.0035203046812165915,-0.00817901216316637,0.0025769366046398197,-0.10205524247168613
0.01141083426780534,-0.09587281463978688,0.04836815138271368,0.014312454719831629,-0.011193223170368066,-0.0052242317551644876,-0.0011123171203285,-0.10738336623600142
0.011847504477998467,-0.11254913969514752,0.04073264671355557,0.01195455574788979,-0.012148616605165164,-0.007109698297008717,-0.003049469357781212,-0.11090634604780364
0.012967791078245064,-0.10792717919597056,0.048217822835506456,0.018248147857177613,-0.009161651414042063,-0.003143138698693431,-7.543008327228508E-4,-0.1255563617360004
0.01133036883429122,-0.11118603522666774,0.05254150052082816,0.020741208307662247,-0.01370974416577536,-4.551599948084998E-4,0.0029887226780980405,-0.12152490724513602
0.015572062524826565,-0.09343466292685364,0.03942886004673194,0.02956669414107597,-0.00626958520203758,0.0027232314056829386,0.01082886598779158,-0.10052983204842476
0.015707184408379236,-0.10390811517974409,0.04386422527391599,0.02087280737481115,-0.0022509761456763586,0.0022138920364150323,0.010285812082372912,-0.10149484618276235
0.012857665103917865,-0.10534340849899065,0.0386756536205223,0.018600040955867574,-0.009619588437575396,-9.483272327663872E-5,0.003999347024283007,-0.10644905239519036
0.012236571073816748,-0.10065821879023717,0.04365235607669309,0.01620895998264001,-0.006738011554415265,-0.008023929056933722,0.01042373312076978,-0.11640094694650047
0.01230300717959719,-0.10823355450134338,0.03904356748588141,0.024555826031748322,-0.005311830917480956,0.0019021867206622382,0.010557231691124061,-0.12159043875893052
0.008972646929418413,-0.10524932163709373,0.03897555503447232,0.02659637257424409,-0.008502830054375384,-0.001401541700897788,0.003493261310379101,-0.10550704346290306
0.016066481815380017,-0.10034858246951196,0.04941514694455891,0.023005663984963825,-0.0027467049649686106,0.006243654826508626,0.010555328012320167,-0.09865866711508377
0.011170024227972393,-0.10582172226068459,0.048744610948904483,0.021882036528428347,-0.00452508971181951,-6.707922810482781E-4,0.009696067010122787,-0.09631492333922817
0.011190736494437475,-0.11097663451106449,0.04959851887937327,0.01975673681971674,-0.004697672584809414,-7.803399164759188E-4,0.0014996407695131281,-0.10710996251363561
0.01644602475637782,-0.1119210105400861,0.03365455967373121,0.024963088626108552,0.0011981944366774495,-0.004464302218343134,0.00520491810516092,-0.10018794498394619
0.017412135575265265,-0.09890257820428763,0.055108438485587524,0.03637952257319586,-0.007021387032213542,9.807808729874361E-4,0.01716305639365942,-0.11366332627838677
0.015314810621861094,-0.10375419843106606,0.05357211969792618,0.05020105693312521,0.004205780178517911,0.014004706341985798,0.02424558594117217,-0.09302729274971204
0.022266710258141236,-0.10153135624037136,0.053079063587074184,0.04156022424409043,-0.0018205318447725427,0.007080131186436329,0.013739616524837553,-0.0972434098963085
0.01921446894223393,-0.104228514340154,0.053920262358264186,0.031748695702289026,-0.0026070853444600263,0.005355858097054101,0.0031172505112231933,-0.09888205136077227
0.013637679458211845,-0.10264056509286464,0.04524674215611353,0.020710495305041644,-0.007007208005098978,-0.003269069242928232,-0.006135537015297967,-0.09647506868145171
0.006068016085232889,-0.09874932144541707,0.0298678579923422,0.026538065040715802,-0.0024893244905995235,-0.0062184683422627975,-0.002306062613995973,-0.11918907803654336
0.011453544997934424,-0.10526182967187953,0.04209334164749054,0.01478113376619619,-0.005399025025960809,-0.008441716311375202,0.001922260727801915,-0.13290355055125747
0.01308931628308998,-0.10791607657118324,0.03605776025819821,0.014458523618999533,-0.00588231748405557,-0.0041756894009829125,0.0014674001616038408,-0.10915926712380337
0.00893769631118571,-0.10309877061657524,0.02272812489976282,-6.014997705260506E-4,0.0013311513061991305,-0.01355637181544287,-0.00618193388078418,-0.12231171869941744
0.00880570356127969,-0.11796722401341149,0.027005632116065884,0.002048143383966775,-0.009829457949342724,-0.020945605519972044,0.0027501549009882912,-0.10943912475776402
0.0019884278459534914,-0.11736611904823692,0.016243902553932522,-0.008459180274182488,-0.015430802415512188,-0.01083023619743497,-0.008362722216430725,-0.13651571962011708
-0.006751955436840876,-0.12745266787639062,0.010922944078957619,-0.012892659551557611,-0.017506353782768914,-0.0117680561707974,-0.01238016128713359,-0.1654111530143274
-0.0027069309903077657,-0.13819815975689004,0.018034225279971648,-0.009098419282720517,5.78216736839706E-4,-0.007970438223301382,-0.0033663285241193838,-0.1495533648591845
-0.002713480329291858,-0.14258995578638123,0.019100070979328313,-0.011529771697964734,-0.004241321073434503,-0.0016117670266045507,0.006708202016784121,-0.11940142922681905
0.004812854452045856,-0.13936474782416744,0.017284183796490563,-0.011813823852313108,0.0026182784854864305,0.008481342201440678,0.018592307993418652,-0.07899733416335815
9.671131881794576E-4,-0.12789588465059376,0.020567633769520047,-0.01060915648255059,0.0011411061094899735,0.001855108889953481,0.019140017482868026,-0.1087409193771003
0.0030959868746890493,-0.12047362417753223,0.028348058677550955,-0.009585576192896543,0.016919616946057862,0.02214111276018216,0.03675479348605659,-0.0731023120576539
0.015172317251800668,-0.12233434908304225,0.03574702138544864,-1.0253388936452689E-4,0.02516861756482249,0.02487062870383269,0.03407543562863948,-0.08086639821756113
0.011706984651824445,-0.1282040508408563,0.028078302529560582,-0.00505242473082517,0.01776137452603807,0.013002380098085155,0.02482794201510947,-0.0850855996191399
0.003745772145270111,-0.1238458135780291,0.02282697765466586,-0.012700327600339258,0.008691414308984893,-8.722330132491955E-5,0.0071644287500334395,-0.11234147380109497
-2.4995563900132814E-4,-0.12464039160444501,0.020511679657228356,-0.019998861281444156,9.055578285033196E-4,-0.015851215645699596,-0.00639018542335517,-0.12968964284292406
0.005687174988165815,-0.13004236234978067,0.017437215085740553,-0.014167353412907398,-0.003040215303012564,-0.019049210450533777,-0.010072190887283387,-0.15976272787572443
0.008053191880280095,-0.12869416679119022,0.016564117438753363,-0.005100736548255674,0.004313287533505665,-0.005447473873809537,-0.011287958636309051,-0.1296114048107059
0.0036707975379102614,-0.11962359686388789,0.018416875465265423,-0.012938545603039033,-0.010478454644818213,-0.023089992191464567,-0.006027617429850164,-0.14127545404314135
0.0015637051151940844,-0.1316785573573491,0.019491804770378367,-0.022778696252759842,-0.015602800648615979,-0.028580072155003532,-0.020567765042048103,-0.13039833975899234
9.421378676894214E-4,-0.1275361742185705,0.015707478635106586,-0.015432588818544125,-0.00900003142092017,-0.034974238623951374,-0.03079503632757562,-0.14217191866118634
0.0018541314519914655,-0.12854451514304838,0.018780988622641135,-0.015876376252184153,-0.022874682558001867,-0.027310158279055603,-0.013302147336550227,-0.14596111398800962
0.0028476664774716694,-0.14435012412991816,0.02266636532120191,-0.002514261691682203,-0.013335576926657787,-0.023121379913877343,-0.024851075276792582,-0.1488146736898425
0.007154733633793019,-0.12639663381217645,0.017468761440118198,-0.014880566854743104,-0.022858858233067606,-0.03368764754753621,-0.02628861804153105,-0.14280842612469524
0.008040308130997448,-0.1319091840402057,0.007289474543087685,-0.02606852990686318,-0.025007675273707043,-0.03910657571901787,-0.03488771196961714,-0.1438471412661829
0.003933532829644109,-0.1388124258045877,0.012600889011462436,-0.028386624118903837,-0.03305256649337718,-0.037242005992375656,-0.042585041442513225,-0.15965370703936735
-0.0025556974616664525,-0.15053721342938756,0.017862352640367948,-0.02562296965291111,-0.033007338105682474,-0.04263170284850899,-0.034249491102727715,-0.17134029784393742
0.007863341984706276,-0.14758524975569048,0.024456693815846677,-0.01286066528589859,-0.021776366264482965,-0.036182557782574044,-0.029533502786691118,-0.1599779305413998
0.0038548317274517342,-0.1449724415800625,0.022745839563489433,-0.018792189048979058,-0.02403372792020644,-0.03610030767091329,-0.03692980730182573,-0.14886035876105644
5.060689943025418E-4,-0.1336684086100086,0.014188370451836697,-0.02433758978149422,-0.021557256114026955,-0.045173351369672765,-0.0346495987000916,-0.15517624415963657
6.867125973646388E-5,-0.14195525583555071,0.011474351898855444,-0.022051095761045816,-0.025720519331713477,-0.04604391355866617,-0.03287778003084064,-0.14973580642661682
0.005636786015640543,-0.13917072729414595,0.0024347569386051877,-0.026750297090387124,-0.031512104827642384,-0.039785918813451775,-0.039375654222032506,-0.1699862785366383
0.0025573859254414003,-0.1472846513975926,0.015506630866380516,-0.019704252067462277,-0.02387419968156069,-0.03977974979585154,-0.023845995139635735,-0.16924570542286108
0.005757499350405616,-0.13902354289637336,0.0299386016836423,-0.0037877458512950027,-0.014836209615535802,-0.022444238872654856,-0.02380371073650093,-0.11877696752919767
0.006267665862487431,-0.14306809761521452,0.013873476782131739,-0.014989760834002497,-0.014769535658611378,-0.027619146877711793,-0.024749220654633662,-0.13733518883083884
0.0028230982081686026,-0.14244505902161514,0.02088350340040761,-0.018118834412478295,-0.01830631949434498,-0.025711795076371495,-0.02132422493848276,-0.1497734582704607
0.0036096395052197445,-0.1512600512201611,0.015449504089112486,-0.011063206661475374,-0.016359435634872816,-0.029457534815429898,-0.02319706234374362,-0.15673487467981456
0.002303885529946944,-0.16272676765764083,0.026527524423636824,-0.009328110121169653,-0.025939134771043763,-0.021914884649367455,-0.012404570006512744,-0.15324105263247537
0.0028086295406332417,-0.14628836191778646,0.022652005973010782,-0.00456039210220957,-0.0066698071267562815,-0.012349475513105555,-0.006043020610107049,-0.12672236965567588
-3.4224358607657605E-4,-0.13366347539458254,0.017558438416158027,-0.010852154829177403,-0.019779608159582445,-0.01891876964808551,-0.010095312021667026,-0.14449021835669196
-1.1629508787911662E-4,-0.14466042235282023,0.017118432149069485,-0.012257570493407735,-0.01869406390905332,-0.02900849686340878,-0.020635169232348514,-0.1380234747204684
0.002141325118303198,-0.14928698117202713,0.021060217259545495,-0.02026963836096058,-0.013426641320858105,-0.026470385686199305,-0.027452122721362486,-0.1545572622398939
0.0023221993902155062,-0.15035789990010118,0.020214185409435485,-0.0053104016375793706,-0.020361537387792904,-0.03449882855530791,-0.02443892534895206,-0.15689738557555527
0.004058594577000841,-0.15036401470373226,0.023723702009048078,-0.005670234140427877,-0.011827671870616332,-0.016960908125616892,-0.014133206232041976,-0.14497919110245217
0.005020592515496988,-0.14093900606640802,0.02333812581772867,-0.008016468556055978,-0.010166965855424322,-0.029304643130734023,-0.015066358207193922,-0.12462620168419886
7.790639237781552E-4,-0.14846705235801969,0.020894091266326104,-0.01781852142423525,-0.021286489580460883,-0.03130829853785697,-0.01634549093704357,-0.11239356719451372
-5.961650262903724E-4,-0.15568968554833293,0.010010811346878206,-0.017218737107404465,-0.01685617402176285,-0.03271054109592624,-0.031742837732059354,-0.13539529103822842
-0.0019699859175985415,-0.16140547439327368,0.0030838086827687525,-0.018650328195753137,-0.02060844918844213,-0.04237100363514689,-0.03033349427086227,-0.1465941466694705
-0.002800616334955445,-0.15128447335807596,0.010787484795445683,-0.017507676770077286,-0.019176866527623026,-0.029436003149195256,-0.025380451570994486,-0.17666549425372013
0.0038988254806625777,-0.1504520380336884,0.01988882181952191,-0.016972026043139174,-0.015590373513542026,-0.02785475942188213,-0.02507169678183544,-0.1413042112778205
0.006048095391879523,-0.1377642696900535,0.013327811962417507,-0.02612362836597529,-0.012225755509490175,-0.03032892214708706,-0.019317905995145532,-0.11690539413479298
-0.009892167576235728,-0.15225803219128803,0.005097073090507543,-0.04169640971454783,-0.01848362864528942,-0.031884795591563965,-0.027617254789264592,-0.1351999251041489
-0.003237281287212864,-0.1553351061946482,0.0019633307651984477,-0.0332757035177913,-0.027427616037277187,-0.04577881951661842,-0.04285142154858439,-0.13541126716534715
-0.006539778038704352,-0.15240100657472108,-0.009198012188691006,-0.04154929641874738,-0.026301580240172016,-0.03347489518540847,-0.052515672044709756,-0.15219207669486565
-0.00674338482980154,-0.15011465823180867,-0.0017915543195232394,-0.03322578833737214,-0.025559212068238486,-0.033864938778542415,-0.034173986637266084,-0.1437739346805419
0.0025668297855344284,-0.15639905035124332,0.01254088115416792,-0.020135001854134967,-0.0191454694428061,-0.03301006880847314,-0.023772203790197843,-0.12039931295711792
0.0030295486068629934,-0.1445905172204325,-0.0042019084481045455,-0.025690186601378714,-0.01696369881003268,-0.03059153626596605,-0.031898548590622584,-0.1212405350760802
8.471300249834988E-4,-0.14712249089389667,-0.004295029821397557,-0.03668578880181928,-0.018457202881289828,-0.03758768470637528,-0.03214839773518503,-0.11711601565301002
-0.006318808497254211,-0.1512375490925043,-0.0020689540422646844,-0.03266690127521653,-0.021120664131846264,-0.038535296591246174,-0.045538473567745784,-0.13499936184832398
0.006379066511362307,-0.15835552859433447,-0.0026714157120758275,-0.029230272522850476,-0.020837702462410596,-0.03995990470851746,-0.04593793690727831,-0.13541167219781397
-1.79284002379346E-4,-0.144181966616232,0.008073163109355002,-0.024816133064318985,-0.012936501489507268,-0.029937383342320108,-0.03834294385945151,-0.14765352982643318
0.0032588829679697723,-0.15070958695805933,0.009228809094473324,-0.020872138094295528,-0.01202044825368759,-0.021162460921730547,-0.024589207191178228,-0.11993921678468641
0.0029336487212318738,-0.15226918383040713,8.042514379265535E-4,-0.023086503673765222,-0.005420631438075066,-0.02416981125253865,-0.03637295912963344,-0.1211564179691914
0.0023415574464484114,-0.15494974718947416,0.012690271439037367,-0.029284622422333557,-0.013854277380407445,-0.03385600855948338,-0.03642700680324991,-0.13690168804634745
0.0056429064943902055,-0.15344354938755753,-8.417137954125863E-4,-0.023559522432487063,-0.015765190041299306,-0.036287104268493936,-0.031365031932201505,-0.1393276790488891
0.004042259158717582,-0.1630935709674763,0.006207221860101268,-0.01861986066280821,-0.009752195673231162,-0.02713354599462685,-0.025391801122103097,-0.15717624330662686
-8.221735940013382E-4,-0.14940392778153186,0.014769961170114417,-0.010800057098522128,-0.0023128526660629316,-0.014562717609520924,-0.016042161717607764,-0.1291155996347892
0.0033804391262177384,-0.14771552818529718,0.01598181180377317,-0.007125169099580344,-0.010242734473293533,-0.01718590346740568,-0.01110925135794971,-0.11317389120250758
0.003593592932849662,-0.14810630924053036,0.007433376786964549,-0.02116803125912912,-0.007933371207448796,-0.026918319438194515,-0.023260881217942748,-0.13570734100832152
0.004024610509824598,-0.14672963677885623,0.009404369389595066,-0.02977891282925966,-0.018683774437992556,-0.021248915964683878,-0.021432541565907813,-0.12818644788058917
0.003958229937324076,-0.15116581866869006,0.012874781533549099,-0.020065660637929607,-0.02289131165555638,-0.03295556695724517,-0.034219176751440705,-0.13765735597987944
0.0070824202444529655,-0.15449868075233064,0.01280842366487447,-0.024660388127120927,-0.01121766713133726,-0.02555431066676432,-0.02347196028211939,-0.1403651835431341
0.006383053429704135,-0.14451676816643558,0.005901509168582519,-0.007858795251618107,-0.002476084483884189,-0.011729944992296806,-0.008374637134279767,-0.11916632776282718
0.00908873437717919,-0.14594371076505802,0.006602680107387266,-0.02536157742847287,-0.004546508191238294,-0.017363002843621283,-0.020254133150204162,-0.114585988756017
0.0010056279402615037,-0.14440941672846758,0.004105505198117186,-0.034913589569354794,-0.0021927763336799504,-0.02071594538657345,-0.018273167854293247,-0.12419456198841958
0.00537520829538247,-0.14944302953812053,7.150085695407246E-4,-0.03604394260248057,-0.01244953665382183,-0.025362167583138338,-0.019635732526248558,-0.1110817231688141
0.006819361807662776,-0.1516941418972105,0.0043395716485909175,-0.02929131884707491,-0.0030832039973349742,-0.01753656555995342,-0.011264982161308104,-0.12849659816374023
0.010455759860614651,-0.15156228307922187,-0.0032769384662415585,-0.01778702302604144,-0.0019329797811643184,-0.005138833352635707,-0.0051188017732152705,-0.11383804448558595
0.01464156715054609,-0.1356231169207379,0.019189904878031665,-0.006210007776135705,0.008612074154428639,6.450076942849391E-4,0.006491043116617617,-0.09160147529607422
0.012614206886383924,-0.13136621774358428,0.021611086919246666,-0.010644204737342192,0.013902605811490758,-8.236447650850926E-4,0.007980692301014723,-0.10612060539104687
0.010377826407219274,-0.12975445755930481,0.007985486461008601,-0.01763007460854247,0.015099955111279862,0.00418835697322711,0.0062408175666762294,-0.10180907893749036
0.014152520631630191,-0.13540915567997772,0.007577022226385599,-0.015796141523476477,0.002548605466018168,0.0014707245953320767,0.01070842534893405,-0.11288437563418482
0.01154373294648501,-0.13879417612397663,0.010788940977066949,-0.0019294589760266907,0.008767156923004175,0.019695733941131346,0.02219052201855434,-0.11386892539246754
0.013416355360910147,-0.14430725539574857,0.02187634371754914,0.00494776739541711,0.01531726406746655,0.025605097053091115,0.03616393132925455,-0.11770597141427647
0.016141928567167334,-0.1316445569602765,0.03207793128638855,0.010112526713942822,0.024538075901159917,0.036330379765823616,0.04436595769992393,-0.09178907530172509
0.01800258407618499,-0.1323138671009781,0.027353434484140585,0.009316266672513137,0.03274943935929136,0.031363312876670005,0.04857908435088168,-0.0879727473273475
0.018448804482582244,-0.13212760267734383,0.033891404095494966,0.010027721770088753,0.02948817146982179,0.040422544143989596,0.04793034397642534,-0.07332690260446001
0.01884414863168184,-0.1334025386768906,0.036246547401039816,0.024873049614551515,0.028677521494639938,0.04987475665500797,0.06124330662600764,-0.09654815548125882
0.016501759927930532,-0.13180355359670165,0.038824959660861094,0.032567841197641424,0.03915830663467609,0.05273367466724154,0.06769142593888391,-0.08549655314395632
0.02165955048355888,-0.12085259953504948,0.056850560190118755,0.0488105127942325,0.04574412629890449,0.0671592593505557,0.08659447182468966,-0.06797938428912258
0.020400823680340463,-0.11862012964145931,0.04338635381237489,0.042917346932451035,0.048673606188306254,0.07056271357105988,0.0877908953081351,-0.06165227055512527
0.023878145267183615,-0.11216160981022355,0.043794958060126385,0.04366986154290787,0.049633670409076014,0.07520445738765609,0.09732198259994443,-0.05854395561987517
0.026067432371374454,-0.12162741313727228,0.04943580582353166,0.04490892708844289,0.045452607131111114,0.07493900964294033,0.09984257787434775,-0.06912319682079565
0.02540133195323712,-0.11899677572626328,0.04936526386456874,0.04868374886504311,0.049741134453681,0.07948391120638339,0.0973680899365317,-0.07486736713610982
0.021089079077226403,-0.11227329198441585,0.07559726472802,0.05791898097730402,0.05264496557521463,0.09017904859190148,0.10886557755268772,-0.05274657367215613
0.030009010335336577,-0.10777824668265569,0.06627011277662251,0.06639686314387509,0.061510299517833156,0.09274122141975344,0.11577888843932374,-0.039857424036611494
0.034341743578109964,-0.11023873108487958,0.06571433708013157,0.062164932105359366,0.051489286154515486,0.09360383651954403,0.11108338020550197,-0.03882917758266269
0.028546141274181234,-0.09884160507542185,0.05779890909540808,0.06031558849401531,0.05821925926892945,0.08468516811292016,0.1032467751419035,-0.05127548581584905
0.023647742614239152,-0.10853336489138468,0.0746173780062704,0.05876778066784214,0.06206853298664805,0.08098424168269605,0.10453207291866806,-0.06713617669151489
0.03482405945422991,-0.113238417408545,0.06456161350452415,0.06671231578434322,0.05215267722412532,0.08678100273184085,0.10608002068970587,-0.07232396890851116
0.03073242628277546,-0.10916291209109827,0.07125557092665172,0.07185314913919814,0.05680961302664306,0.08362899150617162,0.1146520886266305,-0.05726525884157509
0.03534443017897182,-0.10855598783721074,0.08279356687235946,0.07151379611762623,0.05675058008162444,0.09403424293617738,0.11760633249198371,-0.04475465205594168
0.0393082837291742,-0.0993223230013996,0.06752070482065237,0.07890427850448047,0.05230405944675872,0.08142941433212243,0.10790564713671282,-0.04938670707654876
0.0354469889701288,-0.10699709156203482,0.07331424531122437,0.0697208862319194,0.0517669328033931,0.07780537344987755,0.09714620436856443,-0.055197820063514424
0.041831221882518255,-0.1197690156212042,0.06609420182789139,0.07103801194364168,0.043538683981675076,0.08130541377224235,0.09883372380401208,-0.04500182478364291
0.03375181195345341,-0.10058262680265831,0.0725072613197157,0.07205852636362581,0.04513555471098478,0.07113364021225328,0.0988681240677299,-0.057051282581707025
0.034037776869271834,-0.10671780920882942,0.08192274565720145,0.07871639127617042,0.04226870096359571,0.08528278058088327,0.1050518907600641,-0.07430539817000878
0.03373778402962962,-0.09576105587354855,0.07922353175125316,0.08666692272477416,0.05305441393943266,0.08905400215525587,0.10719303544314818,-0.04235071257138524
0.03597066422507918,-0.09652789802716144,0.07877001007974627,0.07869863484155454,0.049509622237334364,0.08207073191792506,0.10410178342712492,-0.05678806312395123
0.036789330000841135,-0.11281114283897274,0.0709234914869234,0.07230048967453255,0.05031505879200335,0.0777098846828184,0.11078294557102254,-0.04316740024377508
0.03778083744704839,-0.11457223867303776,0.07407955952195158,0.07480493022759734,0.04116756340656714,0.07657034072265924,0.10597466273389108,-0.045886470704373475
0.041416496110898676,-0.10000421843679452,0.09168453842339842,0.09404356855739836,0.04496352760320171,0.0818047746850965,0.10643135245301637,-0.06659406872615867
0.0445690338502477,-0.08692671249728076,0.09993673586953801,0.10758471956232768,0.05244696822204886,0.09220557593902257,0.11370022969207501,-0.0384297862789847
0.04655168696454388,-0.08817076667117237,0.10358203844546064,0.10270950580249162,0.056557187676631065,0.09184524018776148,0.11681869912851801,-0.02225570132519232
0.027308942672174402,-0.09101055126970709,0.08547357641541072,0.0863153920689865,0.05088480018009712,0.08125945792087585,0.09213336727457558,-0.031888079712452846
0.034957459415440664,-0.11186114982122261,0.09018870112306485,0.0727655365348565,0.04327270359814583,0.07289178608997411,0.09582189448663882,-0.04256616442677419
0.030105912537325256,-0.11393398410215551,0.08097592186924256,0.0742365777022776,0.038180438662610554,0.07717836498907703,0.08407999764200844,-0.04557616413178807
0.028829557552337796,-0.1147014134414197,0.06517853169313112,0.0711516465274768,0.036904922939454396,0.0670070487112179,0.08132978544467469,-0.06299853427930069
0.031581010691051375,-0.1161370734520025,0.08164761405778494,0.06931423838892173,0.04470420093563133,0.07021853090795288,0.09103875070889979,-0.04612409778127958
0.03273778050139699,-0.11457100838987594,0.08986536793331744,0.06791065763034579,0.051148844264013414,0.0683727193691725,0.09014525986837878,-0.03979161913164748
0.027349668177018466,-0.10553871497213729,0.07429805368423587,0.06013398906695386,0.04477812243798314,0.05860772271189637,0.06774554251218576,-0.041469190645033405
0.02531791087155181,-0.11517709964155394,0.05531644623116259,0.04706772746136066,0.04017300111472784,0.054015134925415986,0.059447225518417086,-0.05330949113469696
0.02747850598059924,-0.1148385549030375,0.06277702253960306,0.04517057248746725,0.03290007305874947,0.04374687161132117,0.05415132611590023,-0.06149214850633001
0.02415627593127039,-0.12655074013641754,0.060174448824816616,0.040932917255179516,0.037581419086183475,0.05572287905718634,0.055559195071864374,-0.06551161298387641
0.02310071501889669,-0.12808005652839066,0.061023870171398195,0.04839086747526631,0.03489292898181313,0.056212768559071126,0.06515487642843626,-0.077093405540433
0.02442710377695852,-0.11219611648176543,0.05587394255744095,0.052849060579591836,0.03899261420230519,0.04585791230113231,0.07283049560678707,-0.05878957867387664
0.02571285672257476,-0.12218810689759331,0.05548776925679045,0.04400033632676046,0.034200074873880194,0.04465294833815409,0.05856689851938604,-0.04623412671620605
0.01930421625136497,-0.11268341397316294,0.03861599947227362,0.034395301440076555,0.039053196688524014,0.04599211886521674,0.05760562237390593,-0.06667743352582733
0.01598139011569073,-0.11749625174901097,0.03870714681305954,0.025007257614092105,0.03234197888965831,0.04103475653786664,0.060607187919184076,-0.09178140183996798
0.018633244471125878,-0.12469811856366202,0.04355275864178979,0.031224843745348993,0.02952283530510115,0.03829541675787406,0.04544609638821351,-0.0897069971243303
0.025854839486777262,-0.11947193033318215,0.05283322016482832,0.037711652726793755,0.036742511565486,0.047142545890333766,0.055678165576361315,-0.09596614821198615
0.020479474761338656,-0.10936654476015618,0.04412108098640779,0.04395025503789028,0.02797246725922051,0.044258556808712664,0.06074387622181975,-0.08157511970007351
0.02102421579076252,-0.11082139305376341,0.04393658160890954,0.03272946142193082,0.03185632203811522,0.04423500527938375,0.054301744099935115,-0.0830367551316843
0.02028637181412154,-0.12101851602516635,0.03762938203529209,0.02112460732595096,0.028917926066601575,0.04329667904806142,0.04520919736329991,-0.08853578086750309
0.021911897106460684,-0.12981206882149707,0.0400629894584983,0.029774311706697688,0.023519471334066167,0.04094477441608522,0.05343354275605399,-0.08877282390795109
0.019007250345686934,-0.12048844166441536,0.03849553687254467,0.021553461710494135,0.03137460219701333,0.04509948355708748,0.06763447426163519,-0.10037402388230714
0.027107143810118993,-0.11504854591898289,0.03766792697918388,0.03649996248966912,0.03979104387864879,0.0475813078658971,0.06777350436974024,-0.06886004966745135
0.02735531512140935,-0.11650699389703709,0.04178579256441046,0.03713939610139216,0.03538654300356432,0.04519319270704169,0.06762838847359653,-0.0724305950872851
0.020704281429608475,-0.11017353906935765,0.0459117218469846,0.02732059294354481,0.0423929492044325,0.043929036548821715,0.06308834070157468,-0.06923689073796788
0.02061451518476589,-0.10483502290276346,0.03871369504362101,0.022450500859564536,0.03094115916160796,0.04465506959129951,0.0649935864312368,-0.0943375869691807
0.026328091266481047,-0.10846517850778013,0.03426413856350488,0.018603976707757985,0.028048203277384852,0.038148708419232215,0.04972246961468248,-0.09686987821947435
0.01896973898222472,-0.11361152310310918,0.03198351674864776,0.02835677696308317,0.02827188087954554,0.04854712799782771,0.05138425810238405,-0.10178744272533219
0.023031208013383774,-0.11343080174099847,0.04265099439706471,0.0322891349787456,0.03690134777993919,0.054226624603815735,0.06722556495155295,-0.09261798401651754
0.02116923134076323,-0.10450158226251334,0.035568425605385805,0.021574906104982597,0.03471774763932242,0.04495650537380447,0.06083024259257107,-0.0755698532202578
0.02869951784305736,-0.1094859099847666,0.025715578963211302,0.021950048563300226,0.0289998180143867,0.038407971606991435,0.05494991862360769,-0.08667834554988522
0.013246873281413486,-0.11438078652582528,0.025276868261575536,0.013074428936647413,0.034586062108545854,0.03803380456410881,0.04358608619104018,-0.08236944114965587
0.01708723113714234,-0.12672264671014388,0.02493695389589242,0.006710033810090998,0.021266244966696473,0.03255409708499359,0.04583305879719642,-0.098417576745485
0.02198077380754933,-0.11953984315192535,0.016006550593052258,0.01059320483970766,0.02094867630659998,0.03638093991595611,0.04631614120496287,-0.09149659207961769
0.017993996101531514,-0.1232194656353601,0.03710444807759961,0.01952906670289553,0.03816263387709233,0.04855027574943849,0.06055105530521015,-0.0838689807764474
0.02380147314855782,-0.12207139370578927,0.030335001787383364,0.01952544942731982,0.029944605333370473,0.045105298196753504,0.056656937273998516,-0.0540750294613634
0.02170524093324596,-0.12802013835453663,0.024888618918161125,7.90049114262371E-4,0.0296032539907718,0.03629728526157373,0.05352749897574856,-0.07615974383555782
0.019188280853037424,-0.1264360504288511,0.026733436607624048,0.002169570370525114,0.0298029162964322,0.030052523598303998,0.04912268562897339,-0.07640297949695583
0.010167828081717302,-0.1314053988723976,0.023386703387378045,0.003981861462286291,0.028302254664614147,0.038323633655446956,0.05151407935922948,-0.08478165983146144
0.01959992439765855,-0.1302110604688387,0.03298397930069157,0.005713270933660527,0.030258370661599036,0.04229223434141133,0.05724794551186213,-0.08242960477258304
0.02315115972463793,-0.1099639049355604,0.026631307420073826,0.009433432477085156,0.0435274041900685,0.04560722542276913,0.05481842094866777,-0.06473197582699822
0.01626314150983035,-0.1180645864177212,0.027980453426224048,0.0010754858829650242,0.024507791115130854,0.033842283634262525,0.04434898016161015,-0.07628437072200375
0.01664878542916667,-0.12548868801050933,0.010606219987863813,-0.014781013773120745,0.01701006704241572,0.02970654433645638,0.04161875653519667,-0.09058587994046136
0.019848198585555133,-0.12698232865788428,0.018936271880987017,-0.013667663297958458,0.019179834087696284,0.025880280829296415,0.035275718935360106,-0.10659604565342462
0.017076687573091776,-0.12178767674923294,0.022005104275062238,-0.011816943220078795,0.022463193676740007,0.02659291962820724,0.03385050053654726,-0.11056944419654366
0.015561724904809074,-0.12398333861426127,0.014848448624538851,-0.01013994243546386,0.033012908448302195,0.0378246800275687,0.048273032236807456,-0.10053435423370909
0.018786610079161402,-0.12130466867314922,0.01630869814932902,-0.013796623402067748,0.029478218391416535,0.030622350402437007,0.04294628269906661,-0.06968909422633875
0.01019364789816298,-0.11686442790674872,0.008273612869124388,-0.03293331956269017,0.020308499530630294,0.02088469192220122,0.020802876339912787,-0.079054937580504
0.014741565732310752,-0.13067847255046094,-5.578028149109363E-5,-0.03588559898945877,0.019656537300298108,0.008426679013799,0.02395768277948723,-0.09856019936157258
0.013228290664975165,-0.13443960877378308,-0.010252455556093098,-0.04070052722933862,0.014961512601103639,0.0034912427485614523,0.023980568347294274,-0.10572344148768816
0.006612147018144413,-0.13034254054032476,-0.008079567796090004,-0.038921714929748205,0.0104943186961735,0.010956975457791882,0.013285400360847856,-0.11183851146596786
0.010886328997154063,-0.13882741322014744,4.5191760187374964E-5,-0.03884072089530598,0.021599497145370766,0.01859805014094639,0.0172402245967512,-0.09223810647322023
0.011760990250779965,-0.12673541818500844,-0.014014148559580969,-0.03503112651283669,0.015413715544993323,0.01701987379038463,0.02571702787079674,-0.0834014084288711
0.009986361293273276,-0.13261572948735967,-0.001737099509318818,-0.04982945649362319,0.012884943424025585,0.011487444538771142,0.007820955204756718,-0.09580847017363006
0.00903328225505657,-0.1506087018288277,-0.0022327568145672386,-0.05692236063569017,0.012933703620731984,0.008416875776557945,-8.993306542516563E-4,-0.10224729618467054
0.006250322860599461,-0.15206496799328115,-0.011578730074153559,-0.05663507916490175,0.009597810227032553,-0.005393797806812165,-0.0018512340271819418,-0.09982319953030921
0.0010367210855241923,-0.15516581868033752,-0.013131526361317166,-0.05485937525384342,0.0094046825535069,-0.0012815945925106727,0.003911870725068316,-0.10703248388564864
0.0031905089591231714,-0.14862843543266516,-0.014807687810334395,-0.05118789247652121,0.012605431495673202,0.005441794639215864,0.013695017094946211,-0.11055220855119341
0.003947742992471135,-0.14216629288066274,-0.013572139998037273,-0.04518438321690294,0.01611070866609668,0.011317327370744017,0.017028477718596377,-0.10121696733902252
0.006119885075843008,-0.15325917039976,-0.02208296282266479,-0.05623210640229957,0.008761108989601757,0.008399540246990628,0.011885225814533907,-0.08501202776068215
0.01006698813175403,-0.1433338337893493,-0.0271511580958437,-0.053698992609860795,0.009173054411838974,0.01575170787391536,0.012831199337462098,-0.0915277868126519
0.004640516485736332,-0.15155030416469867,-0.013037732969834423,-0.053382303354018536,0.0070749794889050956,0.009727580473481509,0.011673038263671278,-0.0998332269991199
0.009153751205834776,-0.15209727431422604,-0.004566436642848976,-0.04909301502013733,0.005839196186318231,0.010388807045479379,0.014632279867238534,-0.12324235363758325
0.001822218661272417,-0.14402131534028337,-0.005325494910641777,-0.05147437619137775,0.02354036906373249,0.017181819903283973,0.028910876287326363,-0.09708618966021786
-3.212756380434969E-5,-0.13748630243335289,-0.005998279418277806,-0.043216132486487716,0.02053114926883203,0.019889336730395422,0.029538362718795827,-0.07388631606210491
0.00858195159039778,-0.1490803539987464,-0.00603030389075617,-0.05293679108430542,0.019315445985975236,0.01042798857011153,0.02678587571067598,-0.09407301694824327
0.006372951670394105,-0.14862224164131088,-0.014069492707443508,-0.06585859467046351,0.0087008926424323,0.011427364774548964,0.008429203697660032,-0.07753085926871144
0.0052063016269699265,-0.14823141506623996,-0.019007522482861132,-0.06902636149062515,-4.0362327015319125E-4,0.0022816205709527476,0.004787934770503598,-0.09378754532421318
0.0032887418439079804,-0.14771554304886717,-0.008829573364038288,-0.06208665885584303,0.002302966883592483,0.004819402504456318,0.011750691775140869,-0.13501704726459812
0.009125908659246765,-0.15101060907588704,-0.008559661997958913,-0.055182828501625654,0.009404208429709229,0.002260759188129104,0.0058979805521901804,-0.11582641080360616
0.013444343438642158,-0.1446701312777221,-0.011322888794077402,-0.05130337135265806,0.003775412355165901,0.003854660205810804,0.018069217375369002,-0.09429307542090011
0.012024401271726364,-0.14291177427407178,-0.012946517991666524,-0.0678960002931556,0.0032208613068309107,-0.0021616796827947956,-0.008165027494195566,-0.10800204087643986
0.0036192889868114355,-0.1450743380144956,-0.026448226907552858,-0.06675292568186508,-0.002119558694097953,-0.012565109353689185,-0.003969004793346931,-0.11732884922287022
0.002310657032959741,-0.14720164433305305,-0.022665260155157723,-0.07072144657527651,-0.00672785332421933,-0.017516820875524045,-0.015897161593507576,-0.13844476320278423
0.005112389352279754,-0.15129117810828327,-0.019868156230143597,-0.07108418092589985,-0.0011679622857379785,-0.010423824999453988,-0.009356501380050236,-0.12919604585994507
0.009618166179845193,-0.15098755330028701,-0.010999005056678803,-0.07267615349303969,0.003949289742414166,-0.005225820717599111,-0.005952958726860361,-0.13397263057615755
0.009597782726327539,-0.1455875357595092,-0.011638265544288564,-0.06484552523855086,3.5487024281912106E-4,7.534511396629836E-4,-0.007328649477566902,-0.10933087559399014
0.006944263079505834,-0.14980079293727405,-0.015424507465068474,-0.07700520823240593,-0.004568833614590261,-0.011413906501427179,-0.012899267664740028,-0.11528988507752413
8.523187944141808E-4,-0.16225769500540735,-0.024078800265014817,-0.07706602683069093,-0.004439639024466633,-0.011443511147463671,-0.018850937647275745,-0.11641169963397112
0.001041853778538068,-0.15788385335169558,-0.02520411459021261,-0.08470396536836389,-0.010443119981542733,-0.015154265224310449,-0.028320669204517444,-0.13529961410760974
0.008334349495586589,-0.1649410955967531,-0.009749709610676794,-0.08052126448207118,-0.006549707470577848,-0.021903273545547476,-0.01763467638926752,-0.14209443489373969
0.003556058404127068,-0.15560941638260836,-0.01682948281123194,-0.07074545767711454,-0.012267340038284589,-0.01413193481563235,-0.023087626605215416,-0.15185481938037923
0.004285478933567661,-0.15173237220964375,-0.010707058003433375,-0.06764819472484537,-0.00649731986555244,-0.011730167771556586,-0.0157846545635174,-0.1242632280175667
0.0030569063348792644,-0.1524665593967391,-0.01614582474131874,-0.07350941079549297,-0.007109742782636053,-0.020505352491030037,-0.009029531888113623,-0.12207572893375579
0.005296053566636396,-0.1564233553516205,-0.02711197806029965,-0.07786123909108131,-0.0010003233639788714,-0.024018849700977674,-0.02057260948956386,-0.1451743182351506
-0.00282301035900172,-0.15973839225983785,-0.02037513127695187,-0.07134501709562432,-0.0071443764310065395,-0.014393172138337582,-0.014917062142450647,-0.1438966085744424
0.004180706217758756,-0.14005147529120004,-0.006618348699825487,-0.05792833577949871,0.008778508402121505,0.01597041306713102,0.019569546916804518,-0.10702279177693709
0.006359255864764857,-0.14522201573516486,-0.005484354755167577,-0.053569086397332884,0.021737404570304743,0.020847251003901123,0.02250696579634337,-0.07051562843803952
0.0010246164025351516,-0.145381315490177,-0.015070691779141457,-0.0701568427310198,-0.001870181979721613,-0.0064410831617635975,-0.01007419157292525,-0.12319963058600128
0.007977926649210931,-0.15131374491320168,-0.021367614397047135,-0.07411845177437512,0.0030096222513986593,-0.019708091438428887,-0.016911123508090483,-0.13026376892446886
0.007820361789217363,-0.15643433771923085,-0.02209362316284578,-0.07766718073390898,-0.007544588801683862,-0.028373655101061337,-0.03213338252439773,-0.1708209135970184
-1.4421352628561602E-4,-0.1552669922693452,-0.01942475979193404,-0.07207631221384163,-0.015701912548517456,-0.03615323970764936,-0.03336022127665061,-0.1568502607209293
8.248441860260965E-4,-0.1530616459837034,-0.01537863150475337,-0.06941717382845683,-0.010351112259883073,-0.029788362756051522,-0.035575287319391774,-0.15365054152526264
0.003947090470426605,-0.15275823341235328,-0.008354861681823407,-0.0678572798211471,-0.008914609882225996,-0.028963223972580627,-0.031877581465300626,-0.11838592859973342
0.002085382208985984,-0.14479532464089753,-0.014101975123035978,-0.07324977240768044,-0.008566052178501317,-0.03936095854645778,-0.051837339197189275,-0.1484721073937831
0.007719102338891754,-0.1529984500900513,-0.03486593897426122,-0.07919617768534046,-0.019232331771322282,-0.04145522269436469,-0.0487640564034052,-0.13440222513577155
-0.004975976972515757,-0.1483651960920376,-0.022036912296875533,-0.07454403205321772,-0.016892099135289832,-0.04799082288475224,-0.052411913476063235,-0.16348495119393616
-6.820392736680486E-5,-0.16063288488374391,-0.02405703762493856,-0.07141529784613207,-0.018113148303013315,-0.04805621846117454,-0.05402042747099249,-0.1711606653357931
0.004725010589534481,-0.148668851557153,-0.015426848069699284,-0.06452751756118434,-0.02048376973850359,-0.039016595615042386,-0.05022204612538604,-0.15203268612948106
8.027580441174859E-4,-0.15201575582523846,-0.01137019542965359,-0.05662850922406285,-0.009179406600673352,-0.035237121931513515,-0.04163100383366106,-0.13157087716655516
0.0032234660588027855,-0.14581828185776582,-0.009433210044146472,-0.059049537388587245,-0.013610492610939896,-0.047569718654462266,-0.056715404286372735,-0.13463944449201512
0.0010520829438893798,-0.15409436832706264,-0.012561775409841401,-0.06839054710933803,-0.023033725391981744,-0.04089099702785568,-0.04655749072216195,-0.1488137405723558
0.005777310211707137,-0.14806307212225003,-0.009247045563500983,-0.06318936859080845,-0.02577535785512618,-0.049598804433318336,-0.05390219125189094,-0.1630536403738922
0.009794310968002857,-0.147981353232237,-0.0022682738597563207,-0.04890869221920328,-0.02362277123287248,-0.04775392390258914,-0.047038632235493046,-0.1647323268192565
0.006884378909990384,-0.1396684531530149,-0.004295787741890346,-0.04435899479974328,-0.016792165734519793,-0.04315517331266719,-0.04379643675411181,-0.15040434605603337
0.008997820420393765,-0.14372674944604694,0.009627897123017589,-0.04467769089593369,-0.017705586036419783,-0.04682217232758354,-0.05467139289972306,-0.13343785278452977
0.010210360788065507,-0.1424601251016296,-0.007908703290305564,-0.057124119546339246,-0.02876794622365134,-0.04946599021247175,-0.06276940065492008,-0.15849527949083414
0.011933760511307233,-0.144882596165563,-0.010205319750290027,-0.06092459740585355,-0.025757230296178126,-0.06329450511053913,-0.06694858237351736,-0.165101975903065
0.010238947250536217,-0.15111106970546323,-0.007783208334752461,-0.05124292705440643,-0.031085615934494906,-0.06481031692621395,-0.06911814599610362,-0.18855412498484928
0.00882451942701093,-0.15507073114813175,-0.0059540459381980495,-0.045142929411821395,-0.0332359025732115,-0.04982458114052599,-0.051352950686524415,-0.16653879430114216
0.015077645530829851,-0.13455217465114044,-0.0016495993986793008,-0.04468046110011655,-0.022624862172805564,-0.05432053968504799,-0.05680961306621994,-0.14907286478791693
0.0027281361847029035,-0.1407175554297804,-0.014990663005804213,-0.05592091054357687,-0.023210322439745548,-0.06404468123925675,-0.07130222660393139,-0.1505799534954134
0.002515274125042142,-0.14360283520856684,-0.020053812990067886,-0.05894297106397079,-0.03582580167615847,-0.06723450457609088,-0.07832016103001263,-0.15766586443554428
0.002282183385893264,-0.14739924881565383,-0.01692331441467775,-0.06267214943600191,-0.03690531792730253,-0.08160124138164548,-0.08903955405446826,-0.19000518286107265
0.006100363929029156,-0.1507747495849488,-0.018312516848933338,-0.060417830128761965,-0.04767454971069271,-0.0845476632955281,-0.08652954506637207,-0.1763486533866152
0.008376462580248085,-0.15691619033730567,-0.02478522502547758,-0.05708673948829359,-0.03255389994254254,-0.07193626703764018,-0.08117409548787517,-0.18624056410590228
0.006053275155479811,-0.14044497085670157,-0.015706437612827594,-0.05635584656367835,-0.02694146694479692,-0.07172066163044438,-0.073569112379136,-0.16106455275332776
0.009221928036600671,-0.14620269752625695,-0.01836033205266768,-0.07179418815396457,-0.0346391408154721,-0.07461209286537311,-0.08056477695928148,-0.1707470789509283
0.008342054614392757,-0.14905672016590904,-0.025518459711320263,-0.06899614665777314,-0.03935991796898329,-0.07974716605342858,-0.08992230803126713,-0.1756987546477735
0.007566307125574913,-0.15053357760694883,-0.013137147065193547,-0.07069463706427556,-0.039715732920146914,-0.0793552853309994,-0.09863483720097506,-0.1897053975077028
-0.0016081586718541853,-0.1514211971183444,-0.013635355973133936,-0.06177951668738279,-0.041666911722101005,-0.07723681546425526,-0.08264041781420935,-0.2006655541351388
0.00866571234813282,-0.15457028949083687,-0.019418953359368635,-0.06387464392347242,-0.040019566977394665,-0.07251635984083675,-0.07682981620781995,-0.19652094540293136
0.006299305232027706,-0.14405143739406887,-0.013196509107632226,-0.056311304936760426,-0.034077654141836916,-0.06349257642885461,-0.07109780021962848,-0.16322094552083793
0.00703034891471823,-0.15308655069865984,-0.013458149537408199,-0.06116826402597514,-0.031441639219959905,-0.05687685190902465,-0.07317011468128037,-0.18036258864076207
0.009320720767888086,-0.148138320309389,-0.0216135187353335,-0.06788001202643508,-0.036785667519544006,-0.0704823100804714,-0.06133530089768069,-0.169776872558354
0.006517633651535421,-0.1479412565175611,-0.021224620081023667,-0.06554380840455752,-0.03244110410666369,-0.053880124470041986,-0.07035820627908304,-0.18894917735055788
0.00682324191349616,-0.14583569743800662,-0.013537148116551278,-0.0591424602300927,-0.02787723496797814,-0.05501536949306336,-0.06508752708722548,-0.2013085180351656
0.01268391044204093,-0.140189380962039,-0.0102336838823741,-0.05186559655846441,-0.02750051736714182,-0.05166957431190318,-0.051647702010246224,-0.16792588913027756
0.007518460697339976,-0.13928210654590967,-0.01661786883874109,-0.04997531914339855,-0.0300342077084745,-0.04923937812301318,-0.0489505366922596,-0.17752164027570744
0.008187057608565616,-0.1409453586314649,-0.019833269802182522,-0.05118707456307388,-0.024998619761136123,-0.043899566355442864,-0.04967739848581605,-0.16126115668142096
0.006727759876358826,-0.14764109200314818,-0.009985523813466532,-0.05698889304403215,-0.031495679772084985,-0.055216369655624827,-0.05739108930763426,-0.1768566858130635
0.0023741324642603556,-0.15080959843463881,-0.01720588408749447,-0.061026932698387944,-0.029258957868261506,-0.046036558051177595,-0.03843412153625995,-0.18737259559577985
0.005309557655058553,-0.1512022359522627,-0.013219457800638601,-0.05779706357025496,-0.023810344021113723,-0.04133625597226686,-0.03068606284210747,-0.18247965735978214
0.008372473886708177,-0.14443580731527808,-0.0016326493997317385,-0.04762585969021019,-0.01180807221166704,-0.02745032308641537,-0.019808687419908072,-0.15133042559724919
0.0059137093459633965,-0.14532639459078986,-0.011535900021418945,-0.05071085186946781,-0.008178305051450216,-0.033567060657534745,-0.025146084460697903,-0.15401190477449428
6.999768633936309E-4,-0.14677034873613187,-0.01560425729994131,-0.05561446181567551,-0.009604977661882683,-0.023389501901334216,-0.023079031874615505,-0.14684632915602666
0.0029551747673091434,-0.1500754157346474,-0.018086741836595893,-0.06229480642879128,-0.020775893647293073,-0.034227469132245114,-0.02071840731046753,-0.16333730492627427
0.00155780702745971,-0.1515715161435244,-0.019538117842420346,-0.05934755294037354,-0.009205837210850209,-0.021789834960188596,-0.015299185825309512,-0.16520337768543425
0.0059861858700343525,-0.14983823788742007,-0.009964876076845186,-0.05273679230345243,-0.010888104170620158,-0.007625975610536891,1.8220309320851597E-4,-0.16036186139545558
0.009986916804207742,-0.14436368306308964,-0.009109975714282664,-0.0442981067776655,9.642997004996914E-5,-4.0604231215886496E-4,0.012840552872113402,-0.14437832094127478
0.005964703340638742,-0.15201140194009993,-0.010446943837699368,-0.05013038290037051,-7.635949553897677E-5,0.004017513040692828,0.007581671093137652,-0.1359873247500016
-1.961051793235098E-6,-0.14979810377614275,-0.013268752606056564,-0.05071064929496751,-4.931627266170998E-4,0.006050226604490552,0.012160262797376626,-0.1323787952482451
0.009210477421714524,-0.15459284942562002,-0.0023163455735965835,-0.049874571132010194,0.008993335367057901,0.0010200402561776894,0.009660649307585098,-0.1608956267619303
0.007211386830840538,-0.14431466593017012,-0.0014111327983436731,-0.050250025111263134,0.007823856354015637,0.004713074061896912,0.021214073942407537,-0.1536652304731451
0.011842255725988347,-0.15001599603211815,6.403131603022103E-4,-0.03910868357496282,0.007376231370935869,0.012773785724963795,0.028565682390995096,-0.15936910486226763
0.0034357515834448076,-0.14630209254473206,0.004876316727054571,-0.02896270387325966,0.017082575678528836,0.029542119294408153,0.040645231296842936,-0.14646067815251992
0.004865646231350081,-0.1357227767447996,0.011119684214848338,-0.02279365151502303,0.01451394165144118,0.03171106774869444,0.04924491310275195,-0.1298317380698995
0.01585769039123053,-0.14661269540204347,0.01030784949138434,-0.02445231587447755,0.008564853322725642,0.017027323742709356,0.05015057805565137,-0.1278205901781102
0.011884097568163658,-0.149955951446566,0.014551718103603981,-0.023885320589708825,0.011584503772347706,0.022123782907844537,0.044378516169407,-0.14087018089182848
0.01603140214049854,-0.14545595436440223,0.018932635451700326,-0.0091746661046926,0.012279531418487546,0.022559022293642185,0.04981113627821709,-0.15121658617749717
0.01599617153564805,-0.15038667051019242,0.02592645099450491,-2.7460143680388025E-4,0.01120662931915784,0.03412662729457978,0.05318888600292328,-0.1360830205608616
0.01710990717976355,-0.11976701374479796,0.03224071619448139,0.0075959648810283945,0.025786536441246195,0.04071810108566598,0.05874340487403121,-0.11930534164925413
0.02223805556418931,-0.1278232592166999,0.032040636491661514,0.002499925848757147,0.021303753264693567,0.03105735800942291,0.04953364392913973,-0.11743216021700208
0.015361761239923754,-0.13069857145709135,0.024199938341836095,0.004129756410089946,0.01237839058406734,0.029167512438238993,0.0445938800883236,-0.12073944736522717
0.017370249585411602,-0.1208169486620394,0.027823250475371288,0.01294560293647453,0.015116260278001482,0.02878416978480663,0.04950155481191668,-0.13818704545968738
0.02778166325171866,-0.1282948261729823,0.027864838178403482,0.017639260881992625,0.008189674723304346,0.029365575258037954,0.05046894384481857,-0.14463137908251364
0.021608194299240012,-0.12398999496161063,0.045293701507218356,0.029498975855259936,0.02460070067937775,0.04593363467172601,0.06789162577988543,-0.13852602923481502
0.02551948498741474,-0.11495470078187883,0.056705472041719704,0.028970201508114923,0.02299541378390209,0.0416696374033971,0.06690560102047412,-0.11399958702948676
0.024650860624195154,-0.11958191405833705,0.041725608855374414,0.0324203011206436,0.019349570515381755,0.03832126652555773,0.05724836307190759,-0.11627520408376497
0.020370450098062938,-0.12210212580927014,0.049066995168196216,0.02923574108766843,0.018126453882411474,0.03511670572620059,0.052352345327794314,-0.12681917046841587
0.027751943125811713,-0.13306580031675894,0.055339405587472,0.038909942696148635,0.017990628973725678,0.03701382730523096,0.04737003737668621,-0.14577556435245506
0.019781514126004342,-0.1292084927158487,0.05354328755266386,0.04801601119667647,0.016375136621444433,0.026137372271981832,0.06501231614486414,-0.1451645941255762
0.023861073095562464,-0.12340776986480093,0.06272413356970301,0.06066541218702072,0.022267661044218384,0.033352577146338894,0.0652920053684013,-0.14144838091296955
0.027343080525138484,-0.1160172768086626,0.06902267217059575,0.06227689073048922,0.022534553921268217,0.04668899728251836,0.07383288482864875,-0.14027579451700964
0.03966961884563607,-0.12632868795922195,0.07842637315253666,0.06665459426714343,0.014595026681422759,0.03524500053343998,0.06598859866470642,-0.1198174412121383
0.032407278744213466,-0.12623642788417988,0.06511168960045936,0.0641140331311745,0.0237119158246056,0.03228485563823209,0.05506487624396081,-0.13666368279518593
0.029109762989621597,-0.11876136158102366,0.06530512304711672,0.05520900255144703,0.017838824195927652,0.03038380961701911,0.056863963915089466,-0.14266139642806977
0.028850288098433843,-0.11982172705110504,0.06547930572837148,0.06937889646194934,0.016120008598900122,0.0370719529613953,0.05737950999384707,-0.1374037654857319
0.033840366699235444,-0.11049575339894346,0.08977715481949558,0.08912999113009666,0.01749616489981602,0.03543713555715711,0.06111905350926184,-0.13793288622493624
0.04415045367144532,-0.10371733999069739,0.09150850562698569,0.10024388450936554,0.022050104917258746,0.04127639085288858,0.070172998134703,-0.12440728883686397
0.03953066459884637,-0.10480783935029225,0.0939921593333406,0.0952142107574881,0.01998986785669113,0.041329924404535825,0.06538318851738122,-0.11926427407252996
0.03161751990818377,-0.11231740963743019,0.08130563624683936,0.08884970931573989,0.022468411560462892,0.04023331820154088,0.06273709531429533,-0.12495290391211628
0.0343333031110109,-0.11264233069160737,0.08267824788547354,0.08517650284490799,0.015852363786301674,0.03302431757762339,0.05087440232948938,-0.12924478046907942
0.03686578769673644,-0.12522570607308528,0.09180618841202459,0.09265811671861035,0.01634260356991309,0.03391151371483132,0.04993939183361724,-0.16475214333949842
0.0381985071693874,-0.1346630137942434,0.08339192149092207,0.0829630006535323,0.008102575958676434,0.03330637243787871,0.05283668974045957,-0.1685966814674034
0.03496794181331718,-0.11781016990578615,0.09294185993122434,0.09341418572828923,0.01670908176043118,0.04689582492883931,0.06200605679820076,-0.15462970442201213
0.03443577714999174,-0.12040979406196801,0.08039446119012518,0.09061460905633978,0.02136435708205913,0.037940139144948294,0.061261366055138426,-0.1503873650611558
0.035368162905138105,-0.10989799743220378,0.08638801220979019,0.08270215613387694,0.009100233031100748,0.029685140099987465,0.055386962507362414,-0.14597562506116005
0.0376731765070228,-0.10704518099966409,0.08685064953105191,0.0889089134604052,0.020231523941430598,0.03105478377915915,0.05003158504220365,-0.12933033971145133
0.03960394965461671,-0.11841503536872197,0.08197180628029285,0.08299029841297818,0.022594053650147553,0.026125532636883716,0.052236242296363165,-0.15857860019033598
0.03835951978531873,-0.11345507283384557,0.07786094597504045,0.07773157448843436,0.00676079081142378,0.024545141704545366,0.04287529428863805,-0.17305081209797826
0.029317967545949165,-0.13080170946135497,0.07570483514685658,0.08356337095522551,0.011492632350626489,0.033074978635408044,0.05064319808604217,-0.1634751631449545
0.030672736562730316,-0.11990875440601466,0.07518605258484483,0.07480452621732159,0.011546076945751771,0.01723247019383325,0.044098452420911934,-0.1549933065879165
0.030409702885769288,-0.11982396302324022,0.07609309257449928,0.06754521725591395,0.009763850585605593,0.010386912199678262,0.036372258414885734,-0.16023950688547725
0.030514210307673012,-0.13258820578067357,0.07564890354519985,0.06488696648016522,0.003327234020398441,0.012543146757246697,0.029553044421004607,-0.18041313144434676
0.02596247261225659,-0.1343712578034058,0.06925461445085805,0.06455521172023418,0.007430068759849935,5.753504010848093E-4,0.03086757641729661,-0.18665783824780152
0.02300243063175172,-0.13851640618892863,0.06699117458556018,0.07078377203824325,-0.00731373088459742,8.578206240791074E-4,0.029908892359739217,-0.18022814102506826
0.028532339313355377,-0.13873614067276274,0.07762297210743212,0.07026404514157256,0.0019392654831311995,0.012453749913638257,0.028416911306184872,-0.15465995717811773
0.026268641561257387,-0.13396849234635863,0.06621298656792927,0.061917044405574995,0.0031916446914246914,-0.0036011058658411673,0.022370139703335522,-0.1693251244611065
0.02270812790323162,-0.14909185050428894,0.06565515639318927,0.05637878949083022,-0.0022672547161511247,-0.002689089790952879,0.01179159697452237,-0.18382824546652837
0.030427869151170128,-0.1550355095011684,0.06269648006186818,0.050495069281279004,-0.008647036565419255,0.002517969309863986,0.012520345970761267,-0.18285563471690264
0.023398754031656886,-0.15480186061658985,0.07585945212302395,0.05899549863315235,-0.0012383148964654836,1.6068258228179046E-4,0.015458267762627534,-0.19541253829804522
0.02368564822095811,-0.1423045385836614,0.06963736460483724,0.06737972839901782,0.012742796210320652,0.010229494604817375,0.030635074485000403,-0.1616785927018538
0.021819718825105004,-0.15194207121908831,0.07510451146621877,0.058836248339831844,0.003908765002323494,-3.6770828624241005E-4,0.03471388543006675,-0.17065163575034664
0.021314062148165648,-0.1513913127018258,0.06561484322244296,0.055741299621729766,0.002468823396345545,-0.0023367729771093565,0.016911780994297427,-0.19433556212598113
0.02097867095548127,-0.14488061156993084,0.06432223270292838,0.05079424000253524,8.212791757398054E-4,-0.011861014998095241,0.004836991515397055,-0.194790143187653
0.023154442113524853,-0.15835230918515264,0.06423006502777096,0.05021570902665199,-0.005713538733473207,-0.006840118026314641,0.020666952287730498,-0.19831526608443883
0.02853438633426053,-0.15190862538599734,0.0731035362028183,0.060934438275855395,-0.00405938898586086,2.367069415767672E-4,0.024950988417970516,-0.1799477846949589
0.029654146272708033,-0.13897456878745842,0.07498035548041392,0.07882705158503178,-0.001300623154036512,-0.004804497757819913,0.02478302219821878,-0.16228432558232986
0.020470350243867463,-0.14753563740533585,0.08014715394072978,0.06671771747008651,0.001162097882031491,0.0012979876053811445,0.017163987435351274,-0.16326427879074248
0.028804373928213906,-0.14382402751075166,0.08212061137650141,0.06492715142729949,-0.009178901375401064,-0.006023768823785443,0.01264547077595073,-0.1822376660942994
0.03252774080027898,-0.15070402384179452,0.0681691106375124,0.0553056902466187,-0.006313768670857868,-0.010539989344162757,0.0039133799552988685,-0.19761428617370588
0.02222199035657719,-0.14959663457254205,0.08361759867298431,0.06267379759317583,-0.012864445729738761,-0.010671715786997845,0.016176906366412676,-0.19677713218250767
0.034678426260359725,-0.1388370367111332,0.06956126957691905,0.07074310602718549,-0.005946393780635784,0.0043097120584087755,0.019721200662923617,-0.17781124153070266
0.028355734471494594,-0.14747968659044697,0.07142902805772086,0.06128912594130304,-0.0036701233783438944,-0.001341699349123462,0.00930040435511757,-0.18643223570791465
0.023218335317413137,-0.14586544985784514,0.07960273456018835,0.05667732050569807,-0.008614194631725232,-0.005716027644409097,0.004064202726502185,-0.1811633752419128
0.027219345373512203,-0.15370389597698583,0.06800370976298499,0.055247617939972744,-0.009664898456551184,-0.009395079454224601,0.009690459559356237,-0.18586933060405708
0.01944697039457689,-0.15315419110179015,0.06278017421185574,0.0541888013315911,-0.005296534341934464,-0.007598211941267384,0.022252739872905897,-0.21242351657047318
0.025491090122244337,-0.15342459104969197,0.06744782037626815,0.05888493670530846,0.0018093575410246913,0.007923829728377695,0.018990761031705827,-0.19568133803162208
0.023958041840772618,-0.1502857974963219,0.06490888593710076,0.06726649599414265,0.002067134080503302,0.005501396386756364,0.020977688958530364,-0.17758680518028352
0.027631255433060515,-0.14544774400602115,0.06585599010007154,0.05692791317145598,0.004542529932678495,-0.004955784828991751,0.022905812509727466,-0.1748102345605473
0.02760786533574921,-0.15267389514055546,0.06318781056921913,0.05102861856184889,-0.005001972790873215,-0.00435333370724998,0.008485208791683895,-0.18769874364705258
0.032965189911843946,-0.1587121309410137,0.07097848898053237,0.04516947830090781,-0.009691706912225515,-0.0026288519497326746,0.01923155018943841,-0.1966365055194069
0.020651142919187026,-0.16021090636445104,0.06408596342599585,0.05370245962617795,-0.006374596789583395,-0.003294684211281413,0.015429465766827726,-0.20286603407910922
0.024729348942562488,-0.15233709955970814,0.06906817196873423,0.06511120159983036,5.952191750680554E-5,-0.0010396807474853961,0.03116083870832965,-0.19507285873909702
0.02603221508638439,-0.14240066469638002,0.07380502182721606,0.0680466051026067,-0.002027873268109007,-0.0030459035539697013,0.01706142280965589,-0.17702658388628803
0.026430101127405937,-0.16523232419204803,0.08100222155247495,0.059635592332308814,-0.0016782506984921275,-0.00990200755144913,0.008769190523123777,-0.19037553082749073
0.03049245902707404,-0.1584718627764014,0.07236056774766432,0.05344120671197557,-0.012382426830581104,-0.0032620633370634908,0.013207490738654118,-0.17992344158827525
0.03434253037077248,-0.15032011556715996,0.07400955774075445,0.05724499237565005,-0.009583820780540656,-0.010855654966808096,0.009707818523434174,-0.19486968030947158
0.031957851708645624,-0.1506522588783429,0.07740978203885614,0.06268925657599146,-0.016646329181013796,-0.004052242351215615,0.014372866020482877,-0.21110020769757154
0.03187156170751461,-0.15590130167099792,0.08227282406166593,0.07005836948621867,-0.010083098971018932,0.0057639474064349275,0.025830083447945174,-0.20492931749922394
0.034326527799388024,-0.14516859107769928,0.07997781206793793,0.07870177066586867,-0.008214894522049104,0.0033431683769847152,0.03381869436228776,-0.18740127995404246
0.03532310078654698,-0.1522924854861532,0.08824415760750941,0.07499949817460398,0.003861037152018474,-0.0030055700849800143,0.016438212601184467,-0.18571982052918823
0.03549361825569163,-0.15629193655889814,0.08453421455541035,0.07835253308458866,-0.01469934919145347,-0.004595912141927472,0.012775392593380175,-0.2032430282915374
0.03238812602154572,-0.14738223690042362,0.08585000542719477,0.06832872088074834,-0.01568000037077004,-0.0030923301788095855,0.017224464871810403,-0.19331213656622603
0.03347589881238977,-0.15658806775597833,0.08898479619002464,0.0739974715252474,-0.013899824299643565,-2.1124001925680952E-4,0.024647753498020838,-0.20713571935544672
0.03569636338129479,-0.16548025533896463,0.09298228225251613,0.08095538014398708,-0.016106922234536088,0.005949002827235675,0.019383793075515694,-0.22102445654742262
0.04185294968658781,-0.1417841352426958,0.10192753696267688,0.08877502635531165,-0.009074482097735998,0.007354012445569769,0.0318649549122323,-0.19526175194024384
0.03755434562766805,-0.1471981249953019,0.1008022161474652,0.09443519844855304,-0.004709832759408915,0.0030900229220745617,0.024922339516191442,-0.21190593785641942
0.03490457635483728,-0.14428614365586684,0.09738006764032614,0.09462641966407238,-0.00564987503865199,-0.0022112188275696196,0.027016214805590574,-0.20941479652562206
0.04103865730309648,-0.14953530440463614,0.09217717200975546,0.09622742303455988,-0.007704761886566074,0.006598129738942024,0.026911002746569556,-0.20763686138181547
0.0449823878082344,-0.15208389400298686,0.11136527795392984,0.10413451456872408,-0.005779651229839649,0.0032333656283769405,0.029778640307252684,-0.22725323991903829
0.03953003271767747,-0.1523626182932814,0.10176554925977939,0.10886396496684918,-7.141568878322832E-4,0.01311721526762106,0.044859654662076615,-0.21275872592224268
0.042901478252366565,-0.1329758852686497,0.11951897803497341,0.11770352033781187,-0.003591487747345377,0.018019220075861913,0.052600734555461784,-0.18569170150063272
0.0462422729204925,-0.13224663526280464,0.11385256904513856,0.11468153586886541,0.0011508084581870331,0.011139692213909211,0.035312887944758675,-0.17381191327444853
0.04663753927712182,-0.13113251120730504,0.11362819737140066,0.1062635528546945,-0.009174960291169374,0.01135448208502451,0.033485875818356554,-0.212675164331532
0.044223408045706264,-0.14283583154217244,0.11394677043459901,0.1097946223742529,-0.010575851799510514,0.0019401972393955286,0.02035988300274519,-0.21830907713678585
0.04390097565783544,-0.12915635418159052,0.1124206704043383,0.10965949278857276,-0.014904035082023972,0.008485064189224302,0.028428120069002985,-0.23021369988281087
0.04979582011291274,-0.1336915616788374,0.11770174713285529,0.11519071634883521,-6.91858370724136E-4,0.008418147726317219,0.03305518233558609,-0.2223184312078786
0.04616539961123353,-0.12987612856759173,0.12137690849140556,0.12119863684633907,-0.0032700363805809366,0.011468222771453793,0.028702104162443037,-0.21250837230389374
0.043908956235057195,-0.13828069142500413,0.11900559863941242,0.11214114768643028,-0.005211426631773892,0.001986165734643698,0.02227593267073816,-0.22219670664648064
0.0482133979358667,-0.14112446713787175,0.10899558668389475,0.10359892522085137,-0.01578279744021735,-0.006251270432036575,0.01641049192052365,-0.22742621200979518
0.04401422809918757,-0.14498168382348334,0.10464126650813609,0.10589826507005536,-0.014848224186782137,-0.0021642306259408144,0.014497973696189952,-0.2421530167718335
0.03799422675831222,-0.14375614151582686,0.11181214314339713,0.10555361016465074,-0.014475811077790602,-0.0033613307377699866,0.020167181672251566,-0.25099583594329833
0.04672117363867447,-0.147635061864894,0.11476766918291952,0.11274850704598514,-0.008596079774219417,-0.0021610246964128927,0.007545192417029632,-0.24510898043399165
0.04233347090541673,-0.1432841372939481,0.11467550204033973,0.10257030076864201,-0.009242369699094612,-0.0024521125164140367,0.01997860108482299,-0.2290251217845729
0.04839067318232398,-0.15099487830016803,0.1018686253342119,0.09854337745026216,-0.012601853579013458,-0.009165874683497062,0.007126959495608897,-0.22715267778034057
0.03900821793088178,-0.16509468405551908,0.10027798096682568,0.09003815894287519,-0.0060769435091998485,-0.006549837348478537,0.014529585943610274,-0.2261746360905102
0.04283828585737701,-0.14815689594720408,0.10201390937579932,0.09364208389905977,-0.01095176602559712,-4.3038843377446104E-4,0.008728763924169493,-0.23113163066401646
0.042217154055323336,-0.1527217196199029,0.10826690477118626,0.10454836439710011,-0.011803549342950186,-0.0031053974660977487,0.026866623826685358,-0.23858100189609413
0.04866842406635978,-0.14323619856459896,0.1087496279255067,0.10149646997487402,-0.006343821926634412,0.002213562095117859,0.0231296558717901,-0.21542082796844306
0.038922894998663915,-0.1479557159060379,0.11239364184598026,0.09690647709489367,-0.013419917526764556,-0.007135902736528892,0.01057401203008237,-0.22353222498509226
0.04263577055995772,-0.15856196530621974,0.1141717238280272,0.09424866132594517,-0.004081263741306024,-0.00492845934548743,0.01656929135763775,-0.24201942512215177
0.0478284878317468,-0.1549731066263309,0.11015782598284793,0.09523134060294698,-0.011366695024788926,-3.368161972025182E-4,0.013666394466126885,-0.2455405669487811
0.04932942671340564,-0.15744470876971264,0.0998294543875228,0.0951045459563854,-0.010880056559922177,0.003190841283569138,0.02311516475557617,-0.24023851712222652
0.04027193459626692,-0.1401237770177268,0.11439349826512164,0.10493707203528835,-0.0012717035179253512,0.008053908640378481,0.02794482965362427,-0.2227362606741942
0.04380682512763518,-0.14340834514403503,0.10193377326263793,0.10014575350288536,-3.317717961046693E-4,0.0044385127931251345,0.02665707200852948,-0.22387291945251606
0.04991692575090033,-0.14687345185001316,0.10783541847219696,0.08976589117154492,-0.010724463900548806,0.0020454449208420033,0.020544452659467884,-0.23871978873707622
0.048406258317182045,-0.15640062599839843,0.11195389247767436,0.0913441371779601,-0.010188953620502351,-0.011257721166331905,0.021844036406125585,-0.2467983696596918
0.04416435551265004,-0.14655025561972954,0.09818220331615103,0.0874881648027094,-0.005253350316726373,-0.007552021720638426,0.005983778689659522,-0.2291635400650396
0.055963917241334794,-0.15066372119635368,0.106229957010332,0.09158711574270013,-0.001687004003907911,-0.011407204237588774,0.0135782457159132,-0.24911444338705105
0.04388045300956812,-0.15577029732357087,0.10269807476804768,0.085460419290335,-0.008056183544332332,-7.874168039656865E-4,0.01381976315993597,-0.22473662459229546
0.042010399601197006,-0.15699969280059506,0.09247537657663836,0.06135670515292114,-0.008064505611956322,-0.008197811797155934,0.002266668984396599,-0.22742127146811073
0.04351178389618162,-0.16474521180231846,0.0811435236169998,0.04902365222276672,-0.008451825504060515,-0.017501163463972073,-0.007201170333839116,-0.24322810507160594
0.038115898115863626,-0.1600935240181042,0.07757279260718393,0.045596727773829254,-0.012395024859629629,-0.02593873725357328,-0.007607140567553367,-0.2586389600144146
0.036211824977669074,-0.1713312358069713,0.0823307274367553,0.0453869734883147,-0.004742350817002307,-0.020150135749551802,-0.008970178128393218,-0.25432921412998755
0.033416108857826636,-0.1690769695064933,0.07521714851955737,0.04864554913518059,-0.008889556422172809,-0.008766253504495445,0.00843524136790957,-0.26055057221816247
0.03331925056496368,-0.16235185675605715,0.07866683699244417,0.04714859503483532,-0.0011847769217518953,-0.007228447083623794,0.005065950620772379,-0.21984592775163483
0.030522571015789066,-0.17293244887986464,0.06274868919958297,0.025011212242642186,-0.00818016064115361,-0.00591913501047903,-0.0027843449542367077,-0.24085889545127084
0.03184230377642462,-0.18093172966433957,0.05105522685146208,0.019559913448903954,-0.007170090641070406,-0.016244601389407084,-0.012116613824097774,-0.2431270350968494
0.03051791481976883,-0.17961799961514976,0.05057313186835631,0.018912899228378095,-0.003936370739895187,-0.00941860359718029,-0.013703662173237072,-0.25928057711653646
0.02970273859222599,-0.18610759359717138,0.04867570581906003,0.015074838818649032,-0.006479821969303935,-0.019832488961706262,-0.006429320949539778,-0.24483639035949714
0.03056207148790668,-0.18026909102910352,0.05224872047781881,0.011951155475679464,-0.008971507402174133,-0.009930263948606022,0.002840896112696518,-0.26459620103331044
0.03066193169514352,-0.1809401040089449,0.0631138173100515,0.010757286228982437,0.003556155713789337,-0.00402397082874486,0.013194926422937217,-0.2378319520158219
0.032514485050264,-0.18160078549652234,0.04574128747395226,0.008481618693960644,-0.0055831019373800625,-3.0257363911976757E-4,0.016731519576519353,-0.2469355006810927
0.025856126621225557,-0.18958131774354947,0.04799970674643244,0.0021582605176544076,-0.007057887797780392,-0.00862802917597616,0.017398373449132042,-0.25410395413558406
0.02258117654159156,-0.19537507101444657,0.04365612444965582,-0.002928553893903519,-0.006683575713677378,-0.00704888197642539,0.0027828649843879166,-0.2494126579133951
0.028087282681726857,-0.19901142526198884,0.04770788265532833,0.004319725255735205,-4.982223450040807E-4,-0.0090225494586984,0.013986452445842576,-0.24928976926517504
0.02476628676290971,-0.18932236518632997,0.04462661743001781,0.008305302018533661,-0.005964464758992904,0.001462727981722382,0.01389655157396638,-0.2675507460852411
0.031084002568122812,-0.19691702294255745,0.06150017347193322,0.015164347919168828,0.0015654122556975588,0.0012099885787792968,0.019102808139793967,-0.23723369401454733
0.028484592688722915,-0.19299165594483322,0.05835192949584575,0.016316052218593897,0.0011202544416027405,2.308378054661807E-4,0.01995997635972962,-0.249372950372918
0.018342085171749192,-0.19295041961222625,0.056901473369001074,0.01053901646252265,7.538187955432748E-4,0.0037797418102551695,0.01829019848124388,-0.23976937135949944
0.025522743295740606,-0.1976190454256522,0.050046945586042065,0.007743338774708174,-0.010517428232030612,-0.0010153015434613607,0.01761423746864412,-0.25266454545916855
0.02461383667470821,-0.18433124916644192,0.06087325144000044,0.01706258396024342,-0.009856656035337497,0.0028695684014185476,0.01616339987147623,-0.24095348825293597
0.021984267946014456,-0.19565215285804197,0.057228919154132564,0.0209795293733389,-0.005398411297434546,0.007511253938835767,0.03208452666650033,-0.25039401436804665
0.028819440157916248,-0.1868262109672142,0.06791361258887416,0.023017501714736058,-2.0665325777038693E-4,0.010739205997436387,0.025875677654979147,-0.25127300176762557
0.02636109393996334,-0.1934946012940154,0.05389096312426784,0.014991773652489744,-0.004640925314962931,-0.003425980597321483,0.020094098568574824,-0.24654674821509415
0.027442600460223565,-0.19426859404316926,0.05621103604334123,0.011804174973465625,-0.0030261493977899946,0.007094283997730963,0.022805097006371632,-0.25436609649037617
0.026185295436197374,-0.19266905645312055,0.05377797594919157,0.004014064899397374,-0.011505888868191913,0.0018024717210635046,0.014801818390762023,-0.2570241036126661
0.03313591612762741,-0.21004762394275686,0.05467426325980831,0.019510498269296923,-0.013845887662005221,0.005082335593227728,0.027592818704707707,-0.27166566069964654
0.029556634405456528,-0.1948886916295596,0.058440988295558924,0.022151126753014058,-0.004502080210911345,0.010548864055636894,0.03670783314396323,-0.25872601867567596
0.029533869906238495,-0.18196947233478103,0.06309653178167883,0.01977861532904922,-0.003217182814793584,0.0034029170671129078,0.03474401262801445,-0.24622493822318828
0.03195617235070809,-0.19203439117783414,0.054132108706238656,0.017428068014775096,-0.01810069537920498,0.00626841519718982,0.02130104086742109,-0.2625734357998258
0.030063732646623865,-0.19349738900664848,0.06017848547287835,0.013531508832672196,-0.003806203763628172,-4.533009134959739E-5,0.020643338624063593,-0.26150672814056386
0.02665558481124761,-0.2002586091693236,0.05699341044379928,0.01830453820424429,-0.009306593156953251,-1.721340898590696E-5,0.0200231652248124,-0.2675787745584035
0.021729803813422544,-0.1977334389554819,0.058176592020216134,0.019340086971115816,-0.008852845661532669,-0.002308955631198349,0.0184197217720948,-0.2763430287494233
0.027520643186235445,-0.20932751242287406,0.061000620396233,0.02216954586168447,-0.0066223412709284215,0.003514363768145878,0.0257560627396908,-0.27119038869641426
0.028008642526271145,-0.19153498328710972,0.0636189964146687,0.01875161437147109,-0.009008078601165509,0.0033975187208794408,0.0312574592602763,-0.26158719003762626
0.032938934969553614,-0.20967759538230848,0.05300872127327432,0.015847466642967448,-0.009424385248458613,-0.0010061163225318938,0.018811961841132926,-0.24799022083715136
0.027516648034401157,-0.1929307794526947,0.056089426516317965,0.006978954613730418,-0.0234230940371778,-0.011777526962657865,0.008651877114802458,-0.25606052295578413
0.028846874944784353,-0.21042089927245033,0.0518203284666975,0.011232144473285533,-0.021310413385068654,-0.010091087321083011,0.0030607511933711303,-0.2706258157546575
0.020799985274479873,-0.20944694433718675,0.053353317297700716,0.009227836800932605,-0.011292029129672308,-0.006970053659207598,0.005246630985874972,-0.27870535002025915
0.02433321970417662,-0.20647983272929105,0.059469016272877095,0.016081487793298356,-0.017710640605912573,-0.009515629859783806,0.01155005699056078,-0.29159806443872277
0.025729491938113816,-0.18932478517468845,0.0677733566167826,0.023309923212539347,-0.005197903572823704,0.00475535351469057,0.02128338024930147,-0.2549667333930646
0.027783312652482742,-0.18039487707701884,0.05836463997190154,0.021647188022485126,-0.010166587576826338,0.0019494600012368282,0.014632954079897448,-0.23616303117150564
0.032654586611106436,-0.18500622624458662,0.058520701354269185,0.01739798274960196,-0.010425440106617763,-0.00117805763550976,0.02704727329723173,-0.2469038077910705
0.026583822068455325,-0.19043129392799196,0.05634441555066175,0.011018786768394951,-0.018629925576713603,-0.005473862188272491,0.014485703126047147,-0.27609591164545755
0.02326653156565698,-0.1922439368652912,0.06351213061135118,0.019559520996183598,-0.02129680323090168,-0.013682504930400838,0.009343938883387115,-0.3066371939623342
0.024025045764966713,-0.19358848734395187,0.05963715518899858,0.023259691560871612,-0.012432444412960863,-0.009315146454263871,0.020859536298787007,-0.31842418762510805
0.027290267117017424,-0.18693890379188585,0.0618616598428263,0.024187965067377627,-0.014601795290920807,-0.0050416676341731494,0.009615765134138468,-0.28281689109411967
0.026585177718976078,-0.19294819685913042,0.06375853622989233,0.018152059185941684,-0.008563563751221323,-0.00496119440234326,0.008381033362782479,-0.29007692030027665
0.026813161645032457,-0.19324951023921572,0.0513298021302596,0.010608746287578515,-0.01600882067769768,-0.009527299278400285,6.979993548982919E-4,-0.3090598411608994
0.024722691519376012,-0.21096993669365555,0.06696680423660682,0.008232915622422076,-0.01837730300459097,-0.016756080498854024,0.005731719285591789,-0.303133858261176
0.024794171274210266,-0.20584425803664178,0.056310602938940406,0.013925701471619392,-0.017470536031122603,-0.010281101081965864,0.007059269874386656,-0.3077955239519364
0.02546378048395688,-0.20453898795746162,0.05904547039983634,0.01868861893146007,-0.01773192162172174,-0.001613003919508479,0.02052379116182261,-0.2800757351851731
0.02884128552333852,-0.1931669762708663,0.06347866755865629,0.02077543039070532,-0.015779506373891354,-5.4260146639481555E-5,0.018714927031051654,-0.27497057441567335
0.025687195613642126,-0.20747020431586916,0.0626382571075596,0.013376936817543723,-0.013162591386462662,-0.013558942096324232,0.022676289119125184,-0.26677944309523355
0.0232213084790044,-0.20975997565400037,0.046650140875809515,0.005300446549781695,-0.012298467043852757,-0.015625853156689035,-2.560762324816715E-4,-0.28001681722662874
0.024838838446294625,-0.1951926384618528,0.05389358378888195,0.009248337660357726,-0.022569314307805018,-0.01929475257033505,-0.0010611123063969375,-0.28557130818047055
0.023746783249686456,-0.2139451985725289,0.05135934941697591,0.008187812728659462,-0.01944265757618184,-0.012191226352886504,-0.0030811364937416473,-0.27736894493062664
0.023520984560214748,-0.21069041065403507,0.048394955065561934,0.0071532296089856055,-0.010125918186122542,-0.01338031432152878,0.008478718581435311,-0.2970346991417817
0.018923932860357057,-0.19973135982380513,0.056841000034552364,0.002909272397196648,-0.005251098028724223,-0.013850815617704982,0.015529581881504585,-0.27186843040735986
0.023141680768433866,-0.21786236559707142,0.05163845951275854,-0.00468536931408617,-0.01744353334452389,-0.014481568176958963,0.00957441328415646,-0.2836060733087947
0.015765925328070324,-0.219536226497998,0.05228253043068,-0.013366894525239256,-0.021453105413606528,-0.020546272709087512,1.8293940045061518E-4,-0.2828230009414507
0.01721731526866925,-0.2240455946280115,0.043120809174548684,-0.009851274137875465,-0.012981499323691243,-0.015757869710236815,-0.005843270469349018,-0.2929118859247542
0.01650342959558681,-0.22366044045478636,0.04934168609902737,-0.005901652911798434,-0.014941469661623652,-0.024035524299862623,-0.006304260963561561,-0.2764996957432193
0.02172687862600248,-0.22149098727073174,0.05242067342998409,-9.001124128820115E-4,-0.012760244262636661,-0.013858635713706135,0.0010760278846426,-0.28582270765994605
0.029591684921056995,-0.2183580189951094,0.0564779606313182,0.0027137089145519108,-0.003279988025384212,-0.0072347185988924775,0.0031246906324533157,-0.27187132364134936
0.016530844895592485,-0.210223605929702,0.05432657959876,0.002187140022590484,-0.011490400480526892,-0.008140925029591897,-0.0014811602147917224,-0.263559704200621
0.026419826013937272,-0.21118443755979607,0.053718854591409126,-0.0014609720936413428,-0.007161318641767142,-0.00815594730429533,0.004705279492199108,-0.2912382620360866
0.02690284772872958,-0.2124340069410237,0.048610570356696824,-0.006139485736422886,-0.012003489181948922,-0.013535759261338796,-0.0020157923508213518,-0.2810475857801564
0.021780462358951345,-0.22038306646877,0.057609183036143735,-0.011541473490843281,-0.007229871869924872,-0.011099527157384985,5.250045759633321E-4,-0.3025269188429557
0.01762550715612265,-0.2224168218985294,0.049780111838817726,-0.009524372202692907,-0.013174551714085006,-0.005003882210629586,0.00781673157610164,-0.2839898823634042
0.019762520428302156,-0.21248912745388518,0.06798212781405112,-0.0015316546800452533,-0.007490357166167125,-0.00846681437651528,0.011408246115192608,-0.26130637841343923
0.019815906930230946,-0.21658629563541434,0.04503139297166004,-0.003977833847660043,-0.011550118504093841,-0.009451202962338864,-3.960168253266655E-4,-0.2720686995375386
0.017847052968994196,-0.22486872603899374,0.04036093345907833,-0.016668551652581725,-0.006117423881520098,-0.02054714820398528,0.008138480281743026,-0.2793949483136456
0.02236581741376318,-0.22419862256384493,0.045816623832811695,-0.018361622569460598,-0.017938189149992737,-0.02062879447714747,0.0034011426447372777,-0.27981919916875525
0.024830739271154416,-0.2375085747246381,0.0426723704069293,-0.013366705171927853,-0.0062572055731643286,-0.011166234612068497,0.011414702377149843,-0.27656986847953674
0.019289891198696035,-0.2215738716384718,0.042471694000994244,-0.003999061862822465,0.0058910728600504265,-0.00146259461660273,0.01733876803513648,-0.27303810439390097
0.021483536683413063,-0.23137520000008185,0.0504842500645684,-0.010807065753878565,0.0021243856660724666,-0.004472057194151078,0.0032906631235162034,-0.25986219911841973
0.023030205459016052,-0.2382008044778761,0.041214365576261985,-0.0183825816259837,-0.0011580065076919118,-0.008692009598798612,-0.0011518933660686556,-0.26040337079730225
0.021067899841122444,-0.23013171316692022,0.044115581129621134,-0.018126307033986974,-0.01371848897287401,-0.021387969399357807,-0.0017557698018438117,-0.2698277344085059
0.025804318538354243,-0.2333191209324319,0.039063887320019704,-0.022328827384558086,-0.009363253184579689,-0.0160458372177671,0.0020139137602421075,-0.2877787339625186
0.02542264247834602,-0.23223070425708972,0.04723999546075176,-0.020120822906953207,-0.021011117703229238,-0.018620207231138372,-0.012846398225931664,-0.2896900649336201
0.030176655218719525,-0.2405656551267989,0.05318791112388559,-0.009922687243263022,-0.012128746492035453,-0.009785770142588772,-0.003166449273308367,-0.2890254589283197
0.022856549663339762,-0.22633225634960488,0.03669873969412243,-0.01620717609527689,-0.008704176371199152,-0.017247787941487933,-0.0021750441392604414,-0.27998683008419767
0.025709702158083467,-0.24087617102859044,0.034236754722793576,-0.03613633079496663,-0.019317107917827193,-0.03139072078904291,-0.018817489184079574,-0.28085125170821545
0.017539675246501837,-0.2351248915505098,0.030715251875717282,-0.0418328901339248,-0.01775340551384861,-0.03178721231586836,-0.025403496711259146,-0.28558598174543837
0.014678056534040024,-0.26170482416784663,0.018906621739484004,-0.04441378555120049,-0.014103135649263712,-0.035530597273900934,-0.03084278565338863,-0.27307152092640724
0.014884388492054982,-0.2758490280256671,0.030414572780653855,-0.04788185365276185,-0.024911480686149748,-0.03813377409712917,-0.0285422532483609,-0.27256756103429886
0.017923049048569395,-0.2636974902325021,0.024973254411364523,-0.045038840444819976,-0.010046815301630456,-0.024596042683176216,-0.017074330487725622,-0.27785759448327524
0.017996086668363068,-0.2579222767161053,0.021782413886464392,-0.04545454267651267,-0.010741732700110288,-0.030562044489456316,-0.020805146311584023,-0.2695024407390879
0.011265269399335672,-0.2539040653714416,0.01558952814328971,-0.0638742549800287,-0.019616638128024243,-0.032033186756129046,-0.026826231173851054,-0.26780597907248754
0.011922525966416518,-0.2520437008975336,0.025023856052338395,-0.06974645737085405,-0.021246353942532707,-0.047487061602234565,-0.036268158203809686,-0.28242508172188385
0.016354461329272985,-0.2691670095060677,0.009729328274721191,-0.06856537492810699,-0.016447073444391756,-0.04409345512933782,-0.0567592137156501,-0.2903899370005109
0.013995363616986278,-0.2635939947881298,0.024023177701950352,-0.07223542544446003,-0.026799407615291856,-0.04926641448700698,-0.04567398363771357,-0.2999037243411017
0.015697123698075507,-0.27248372429178935,0.02510005821649639,-0.06326911687875678,-0.024613375562838942,-0.03923225538437648,-0.0360260017439905,-0.29006653070220656
0.014508387121071196,-0.26278032938295487,0.013372882179528875,-0.06169436696123854,-0.026526211839480545,-0.03499490227741174,-0.02992705170694033,-0.25514475756254795
0.015691111444744183,-0.27206456905623644,0.01075690632198665,-0.05919382891371837,-0.01601076385937795,-0.03657291505757292,-0.04003295337291753,-0.2491404999520044
