0.03328762079650935,0.08097249176690444,0.06630801959530822,0.03185572977089144,-0.1270324536046275,-0.12753045390247364,-0.11766323307140736,0.0339715317957396
0.06157025081526249,0.14629862685303466,0.08009511324723137,0.08854379379651661,-0.002909523048186695,0.004498769029407684,-0.028654086511455908,0.21783902571524033
0.056955932337141656,0.10894641087702348,0.06548329088080967,0.08043918966009278,-0.012426556336462433,-0.0425260687303513,-0.041246092425629974,0.1478340608277967
0.040523268593975564,0.1940362084962973,0.0340531843913424,0.04849082907387604,-0.08220538433054764,-0.07004681708520469,-0.11023531646276849,-0.018058179043507122
0.042932672020474946,0.1697191725259803,0.040037484352534514,0.049594795825912086,-0.07423342686025773,-0.04675787257629832,-0.07651427772804967,0.14941593731533845
0.06741630947244501,0.15070508781969677,0.07648119194529981,0.06460175768848012,-0.01241688699997431,-0.043436509933990716,-0.020709741829233005,-0.02692625170503473
0.059119785954214854,0.1253332258648102,0.06302705739600135,0.07226514088536863,-0.03991964275408053,-0.031468258562900336,-0.09035948045381052,0.09265538575172139
0.021830847519052655,0.1270173531716322,0.04753251460720875,0.03794711877457703,-0.0919950935314447,-0.12803268922458252,-0.1258834295279836,0.09182187781558994
0.07831114667078568,0.1611166480471042,0.0800180313451448,0.08991416790662572,0.0578734515604321,0.014154304766893971,0.004150317483093288,0.027824111782000817
0.06771387587292421,0.1896580793104238,0.08450149175328586,0.0828682452559889,-0.005708001556373729,0.03365884633664319,-0.0467754670236732,-0.05285190970651543
0.0450180594020346,0.13704234360203849,0.06793440913579275,0.03993440668119711,-0.0566419954728324,-0.08336568298668864,-0.11706253867698307,-0.03753934803719873
0.0695487343228203,0.16549193037289583,0.08320695232200548,0.07253152425378663,-0.010504554593089771,-0.03795124316586707,-0.03402828037718966,0.045755656706095695
0.08916197015091903,0.14103044803095988,0.10126725552026422,0.08535558651979867,0.0381780815903676,0.04931697499410598,0.015728122090332926,0.15247086552165712
0.0760379701661984,0.12436338474991238,0.07805557544497649,0.07537671251763922,0.0013671604842452195,-0.02308762861211612,-0.03881259033565759,0.22846058555269838
0.06595911068315119,0.21710957445186552,0.07812511894264787,0.05769466862683932,-0.04923446917360611,-0.03984273216756594,-0.07773756466170721,0.1019494237670488
0.09567667900027726,0.18840842095519442,0.11005138310956336,0.10915113277319573,0.03310627200634774,0.11490497295177765,0.06912366691964494,0.1733336075161554
0.08970488505952941,0.16198229440711132,0.10747762639660614,0.10626634319626685,0.07387936583934052,0.05088090371516056,0.07944328660080358,0.2177429827239749
0.0781546665042889,0.2469543523478963,0.10351263633981908,0.08308237720902896,-0.015306729270467376,0.00906005954902507,0.009180430887876144,0.08122078982269695
0.08059844409836263,0.15350341448327603,0.11850574702168756,0.10827641645516989,0.026994574262503828,0.053349096216257774,0.01488038305460386,0.11148317705080527
0.10727317103114375,0.1826009145287436,0.1294788952869102,0.12372151938319226,0.08589386743025726,0.09968696212705519,0.10658119370120833,0.2702992946588198
0.1007395857103259,0.14560989170387306,0.1349050051163001,0.10298449429901999,0.059720202410267556,0.04538443158584652,0.10165306709027726,0.20492834240558502
0.07399513682178087,0.1813799132422133,0.0954013550171904,0.094130815342756,-0.012462251555486088,-0.0018683576527350615,-0.020087590353206897,0.12688142464620503
0.11267477645869955,0.19923660960206582,0.14123119920774485,0.1384969892594562,0.07149572506618244,0.09698141636914766,0.07115786492456447,0.09428052710447431
0.11672012380529587,0.20305497450174195,0.14237391767453916,0.10888748523408177,0.06476965838026619,0.07555810509181908,0.0443279331104864,0.2529752487837434
0.0993427504981537,0.17305851145806067,0.11059262825779537,0.08587522395900471,-0.030153747467834502,0.06651483961580823,0.024029564224538807,0.12806281611110093
0.09716770459895407,0.20173680765439794,0.12793367462699323,0.10444114619664491,0.022812380078431303,0.031663884070496515,0.025061713922266457,0.22235024400897557
0.1278684567744554,0.25860968935521866,0.13860830303558422,0.10810345034145612,0.08617975761818777,0.11978595818532485,0.0868654589967236,0.2392245781178265
0.10701705916872038,0.2015724591406388,0.10130239350557348,0.11072385886211299,0.05243995358218215,0.0559795024745558,0.07692256970830716,0.03562925166158721
0.08972368216698501,0.14296695710060986,0.09694620623607927,0.06824155909744778,-0.02136687068197357,0.01670590042227582,0.00763380552522281,0.05892964403218669
0.11299190321561085,0.18593413409987522,0.14992142950092394,0.1337745716522602,0.12164868335775234,0.19059870212759739,0.12611370079046225,0.1420924866700302
0.10822835141968368,0.24187222040041556,0.15226709623308837,0.12578992997425925,0.09234927492325032,0.1367648896504728,0.0996658267719677,0.21239173281940052
0.09382311536562585,0.18944627675103043,0.12336728610000783,0.10511924201065087,0.04461592989762286,0.04730825993701636,0.039653053843093825,0.3283249706641801
0.12045446810114215,0.21537332395719666,0.12021780546078552,0.10853223516853211,0.05903078549106517,0.10180512491044827,0.06468842659120162,0.16040384555229073
0.12447160792562811,0.21054453233642934,0.13166880104146433,0.1392601178606512,0.1543309379801684,0.16433445818562398,0.1549585242394917,0.16806625488224886
0.10476321128222277,0.25607870345210826,0.13446548607659745,0.12058893945208074,0.09535955780090523,0.12426815570066077,0.11086063871124417,0.15818209508448886
0.09582911861712157,0.22490782965160044,0.11981064879256258,0.06770935987819326,0.011761382003392981,0.02903770214640964,-0.005797047959773122,0.23931373045218468
0.11818469428687112,0.19647904893815982,0.14861679588085347,0.1170764229232659,0.13030971965865462,0.14804484505693616,0.1666331959778925,0.1044551481225656
0.11835263830517632,0.2492533323961471,0.14597158084862827,0.10731875050590445,0.13294609213496247,0.1456109182762748,0.13631961917986454,0.16442025629498264
0.10391051156578637,0.23869454677183968,0.09944517579919863,0.09870091467911556,0.08939186204672858,0.1163201651735008,0.09773164154795477,0.20466695452864508
0.08840330727504117,0.23253078591730147,0.10429353384855575,0.06787063126297956,0.05295960509589443,0.06753955554607427,0.04132410444357263,0.20643687195634022
0.1249956089745734,0.23351404524640618,0.12747816281695387,0.1407306920291161,0.14397047443438452,0.17240480039246672,0.1771495140880105,0.20738647195639745
0.12097562228388864,0.16553759503425433,0.09948132479385345,0.10618555667082971,0.1317902806854097,0.10861660936764597,0.1411208763948351,0.1497885932400605
0.08126464566039734,0.2524309936526351,0.08552645933381386,0.08023810710496891,0.04593373878694665,0.08195370617467336,0.03623866752741137,0.1335240891674985
0.08408079662686821,0.15208734691628498,0.0873870070359585,0.08191693463016494,0.10085115182811474,0.1410957617160138,0.10320556452964849,0.20512727203026798
0.097631545621096,0.16750738433773,0.1059225850109736,0.09256011751475632,0.12370441848234925,0.16967676649726654,0.18391274062771956,0.33297292989326416
0.06659288661490127,0.22280061532317205,0.0837441049748058,0.09376130858461815,0.09117254238323827,0.12766725814145397,0.08935505881185188,0.1760196654799527
0.04729466713921854,0.17206495462616045,0.06099497920799333,0.037441064566831064,0.0395398326491794,0.03273236351939994,-0.01624382770259168,0.1131569594688842
0.07361592654870999,0.18188234379253573,0.11014879095072799,0.10265968942745465,0.13866770393655664,0.16459595079719472,0.15405167119496221,0.12124409861251835
0.08118588772813205,0.20033352260140408,0.10534403091471703,0.08742503027345308,0.14143484611133417,0.180598141525499,0.1586911576092146,0.1780447760869702
0.05712274300511283,0.15358226843722783,0.09774307741047761,0.07564332296973253,0.08753818331494412,0.09739842310912498,0.06037123517062292,0.14437192298279483
0.05549987099758415,0.22211919340736896,0.06443292069515809,0.06321696646048627,0.023180249990088407,0.061939035356188867,0.08748809472733873,0.15423184655200084
0.0763061153840392,0.13703446336791733,0.10805786740138856,0.11721113415309996,0.14370941116805902,0.17353337802603672,0.18177279565681848,0.24881043737118455
0.06380107958010145,0.19972601867643666,0.08207299923134875,0.09847344240534611,0.10976554897138055,0.11209097850467979,0.1315691514097608,0.08776395721320632
0.05964750881710928,0.17218829385930023,0.05715656352286462,0.05811108875063005,0.012540889809985536,0.0319238039882849,0.03621020741776247,0.19605887135537328
0.05345671812499721,0.20078530645388903,0.06128378358536357,0.10668281051490289,0.055093009084802275,0.13537371092479122,0.08413920625267488,0.09148576637958883
0.046915065070135126,0.1501446097158941,0.0578812826979594,0.0896753289659916,0.05862773579235272,0.1543873683368973,0.12201506187611794,0.1586731685628371
0.04824239644247097,0.16248296800412595,0.0878383730587883,0.06786201634716241,0.022810065741970052,0.07586495369511528,0.037308913519175584,0.10595461536143894
0.028562635717679863,0.14168582446410483,0.04696351980790368,0.014019453068867052,-0.04156747806330033,0.02232602897574535,-0.0017323752192684866,0.16776779107503884
0.0391759979445582,0.25866702169532646,0.07545145795437713,0.08763175078091769,0.0316999744690113,0.15129929823835353,0.08641629806731016,0.123766540341987
0.05638684495974562,0.10911301262613125,0.07222890996201033,0.08200025859649693,0.022736317689283726,0.1342462744301055,0.05377403963838735,0.16333451205813326
0.034884994222844,0.18574461738904788,0.059225923485152446,0.061136119137868455,-0.014133033912737201,0.07473168093684723,0.05113799684970324,0.23904772363625854
0.03153711159579667,0.1417618024676809,0.06466722084577645,0.057007476944733244,-0.022033117382992913,0.04817450729395644,0.046008030980165524,0.04228281445126889
0.04026052668003576,0.1655720544249335,0.08134426120666909,0.07422849275191885,0.02905800943774814,0.1217076559241185,0.09008789792306673,0.08970764715311022
0.04054748147938243,0.1338546972648372,0.05307177961866779,0.0630734999977692,0.01664767173679661,0.049068578829981196,0.09327555010837844,0.22523878668951505
0.008801196270945735,0.1598545604497339,0.04197227463238065,0.011156760809553551,-0.04755741167175935,0.02627225656197764,0.018926804523391752,0.09805577726549587
0.041277835208375344,0.164632728086456,0.1045625487934971,0.08219200101216464,0.054431740223848786,0.12376191528471783,0.15901015966829216,0.07705117959290504
0.032782066801396476,0.22728039600662955,0.0763830139470181,0.07039011040198366,0.04035255345513486,0.1052851183339433,0.09916742859400923,0.09418257566102389
0.017942684181263387,0.2266152736869188,0.06827559491516812,0.053572525067267056,-0.021382598851877252,0.1013667466443452,0.029737324993004337,0.19070499058339122
0.04221150364380942,0.14689524333098902,0.10523178055739475,0.0762409310597466,0.045246859033152495,0.08904546870952346,0.10366773313696778,0.327216517993618
0.06813241546965847,0.16322680281201132,0.11831288379298843,0.11825666292664155,0.06567116151090999,0.1425814328983086,0.1557581416082029,0.11099319705056872
0.06589096561568739,0.22286810791614323,0.11784141390475243,0.07909246560145657,0.025102163145367635,0.10954718286980278,0.11345450461489927,0.1738474948332212
0.03453816955064214,0.1829025185656115,0.08444733525957047,0.04740850448628765,-0.007359493413223816,0.035237955514165205,0.02795339175921243,0.1473407464489054
0.08570704267887308,0.2810437751403887,0.16304752273172984,0.10542317408942513,0.09334014965112128,0.14859993762674206,0.17987575845074924,0.2331281494443267
0.0717028277894344,0.3656522711800857,0.14390393540097085,0.10416017798093308,0.06778055293518626,0.15781560660709815,0.1517112798661952,0.12234569340837417
0.05883291407738189,0.22255090077981143,0.1304265281381738,0.07549194780574321,-0.011097254455905793,0.061781366187958583,0.01900531545770441,0.2749316542487314
0.06590335098127396,0.24367627713099954,0.13053841563366403,0.12123672873145411,0.08444508653016575,0.17130760622909383,0.13862017627255468,0.28711702377831194
0.07352598642805036,0.24234104842764673,0.14239376076231056,0.09855119240903007,0.057757136998189684,0.16132540336319812,0.15581222158628666,0.22602141995496502
0.037789482311951186,0.24280891773859448,0.09091783811485492,0.05927128629010961,0.04329724406830034,0.12071033833199446,0.11588058256396373,0.16149982006431496
0.04459671743880894,0.1922783294239171,0.07919673360128335,0.08257643746550188,0.0068484969303982575,0.09457254854404393,0.06264763162056242,0.2860996647751407
0.05906775953773884,0.2718039486909494,0.12649592925617512,0.09448543254104115,0.14393852281349198,0.1600372144848122,0.1430393661801833,0.27165066298074214
0.05991171331047946,0.3068564281682006,0.12980082163009987,0.08301678944707869,0.05339439430346069,0.1353207078220231,0.11884606634466752,0.31022350570489327
0.029781062437176566,0.285101735278379,0.07217927307454547,0.045123250551843755,-0.007359673497605471,0.06558381482204309,0.033256280650305545,0.3235323784652962
0.059921391869421886,0.25395190268818285,0.09713940790140338,0.09659830646855172,0.13867700045762038,0.166205744221534,0.12059444825444035,0.21753450231785798
0.024174494382620426,0.23316239349689463,0.08387765148368401,0.08477299789106324,0.09304016990833515,0.12806307246005671,0.1380089672287449,0.17819726588181878
0.0018982524788398664,0.237658093823462,0.07933558361139507,0.04937772273790743,0.059838987970183895,0.04951850705153232,0.03718474350292682,0.1722561889520713
6.535271450812648E-4,0.20378575498698445,0.06845551015120521,0.0489546054496199,0.04112982276501448,0.04595468346394432,0.04087971913400294,0.28803541533629734
0.017831735594316216,0.2679591353100819,0.05494648791310567,0.05823034265622774,0.04539240829235595,0.08020906891408815,0.0588044611511786,0.24749483199681077
-0.007832059034589766,0.2564073444823288,0.06861684238707144,0.030706334271495765,0.04185305319486861,0.05105882875654079,0.018734924798071404,0.09155599220601227
-0.022131521252866146,0.19839561960870838,0.052846647545454754,-3.211205559399549E-4,0.0033365760078264937,0.011413925162257444,-0.03474189758679999,0.0349886848918994
-0.0025528249337580552,0.262372971876139,0.061691851668215156,-0.0020416066135413302,0.07585260401133175,0.08474908909856824,0.07050712544706923,0.02105221684075006
-0.026482119699494946,0.20265625368458606,0.023678616217191507,0.025306577893104337,0.06166415996086495,0.04865556681604648,0.06940088257817315,0.20439702354421255
-0.03137724544506553,0.1742391821971192,0.020423555457266554,-0.003013505710601605,0.007670799346808743,-0.01717490424337429,-0.02267248513533777,0.09016099371081492
-0.005055709135406438,0.20002051559804496,0.044558003147438616,0.03930368339946755,0.055026953004210274,0.11326008544400266,0.10008097393338461,0.18414570916895542
-0.0031612652708935254,0.2381341950827045,0.028210934471305668,0.037337192941689516,0.06840191532134673,0.07065893054060529,0.07695909103497924,0.19325310400657092
-0.02657217518499931,0.13094605972820614,0.0030168525645258154,1.966929198767564E-4,0.0151588858537846,0.015141589801078957,0.013739763297442599,0.1977101142619429
-0.015027802116470274,0.2105888437663822,0.03601453136469962,0.06267308567072556,0.04465119721216871,0.09406700051083389,0.10365399921299855,0.19269224873035912
-0.00850163097367181,0.2948072764737976,0.040962140919260454,0.07114566538442059,0.09669698682788876,0.13260622867747834,0.13383085562602692,5.790366088996787E-4
-0.0060906069645047635,0.13268070811700533,0.006764208150504866,0.02034418762824336,0.07359012812041743,0.0829225058822548,0.05314650985114315,0.1278054279115825
-0.021793976657429895,0.20743897479114,0.03894395899226477,0.02153405822228665,0.047454459890745086,0.07533014667512018,0.11698797314188909,0.19528757193758733
0.04466158896114453,1.6597396712939698,0.19397589874105023,0.20316901509780202,0.2661226354859409,0.37604110005804325,0.3770651101770915,3.324241320509194
0.03222610092496149,2.0611260284452007,0.22591016798562147,0.17105919944116788,0.26023544826651157,0.33666992125631456,0.38646863206102244,4.391135708019114
0.039662330664522856,2.047011672105678,0.1870508385127695,0.11930007695006004,0.2170202971341474,0.24677162467689714,0.34455971695636534,4.36001239633202
0.05556842371027206,2.0569417788018205,0.23333761777200737,0.19859499375723477,0.2797900836209409,0.4037228395717207,0.4345760313237956,4.392997081948803
0.03818806404955373,2.093396494825325,0.23276578838317044,0.1675992655731587,0.2617641334877898,0.3449382335413782,0.42593924898833363,4.588123203513572
0.029268558578414823,2.079704766617276,0.19070327589023195,0.12707219471674636,0.18284266903279228,0.26191994139484676,0.3523137021516854,4.400980770431987
0.04669370343227044,2.072419683568056,0.20297449025349004,0.15661284497281225,0.24261076024251965,0.327610755978695,0.4162290184666601,4.512050858110935
0.04011010249693926,2.0511959455378945,0.24878325501899864,0.18926800964995974,0.26117328230566816,0.3349344604214003,0.4588099576191345,4.487859551582363
0.04006653154947505,2.0729684999413145,0.21605243626915238,0.17498661611942762,0.1572662477889204,0.2715361647071471,0.3449179331827813,4.325854498256666
0.03644830413392966,2.054512531645683,0.20156898848244903,0.14229083723956015,0.17605650138099788,0.2700175958986643,0.3239087978122726,4.363882143113235
0.06287699585719789,2.040198486547346,0.2306537838097712,0.16871861104402558,0.2565956957754417,0.3249487306342272,0.4153679896565583,4.409938929649989
0.05251659486509247,2.0298374048121475,0.2298507606318972,0.16650339099601008,0.2212411900385221,0.3258094630702104,0.38401736443333095,4.164423722728483
0.023489109678674076,2.0542030295285754,0.19231566794738564,0.14329634893034388,0.1576116950869701,0.2281005587163597,0.3023813591198388,4.4973561325219
0.044939657506303896,2.092290811808564,0.19006258841599388,0.1715128549189291,0.2545070429480072,0.36580463176755257,0.45826418509295097,4.525674549924197
0.03036151483446468,2.0430352045648705,0.20657531799428905,0.15053357554521607,0.2216157840548936,0.3693437922535526,0.4191186360503975,4.367492825904074
0.034463490552553655,2.076836650331006,0.1790568017019929,0.12473372695411683,0.18817795232878726,0.2764571560641874,0.34693927314113865,4.349057072348675
0.041223844964144815,2.1019887078501536,0.21652789252232582,0.1328051103797353,0.2167958627258908,0.3341077468082826,0.3934107350784119,4.485765146925959
0.06219138928300708,2.104284293821302,0.22500703685518683,0.15933557885764135,0.2618326985878257,0.36185575703828077,0.4280167663425432,4.307474966221402
0.029546879934710994,2.0155225344923684,0.2088850888848381,0.13773003847086834,0.17733554912467198,0.31420909977220185,0.3663032834694521,4.525129382472654
0.029012828118555718,2.0315295558344273,0.17485605838078344,0.1244527836529139,0.1527820636503323,0.23698888920197114,0.31916820767706633,4.364708182200174
0.052053052689636115,2.0970324584159847,0.22634730246761012,0.17427073287103692,0.2667457497415412,0.40735895386501136,0.4336034274104352,4.298941099445587
0.029612842333488792,2.028850700950823,0.2216548848153658,0.1521431351152937,0.2319230563310712,0.37547095908359623,0.40572830951981237,4.336890854943948
0.023211592608678014,2.1258534007731895,0.18071292313268272,0.12378860525054382,0.1494820652892246,0.28137955536001497,0.28101018387294063,4.452008180065508
0.05328871490858137,2.083154453588596,0.2339376966415399,0.13709365713202393,0.25658793224605025,0.3203938526135666,0.4037405365970732,4.568582079433525
0.039204425463612254,2.040475144142082,0.20938932242697067,0.1318072571885779,0.25188309508264595,0.33067705206192377,0.3672223487180011,4.4344750390167995
0.05863715888216484,2.1492834275276893,0.22659540579271895,0.11560706342717192,0.25042404502966403,0.28991712973725586,0.37799624475230686,4.425517294332311
0.06102259449659685,2.0772423092087116,0.2574138422194458,0.13497325744067995,0.2864694895000718,0.35282194635902486,0.435845109682125,4.461239476622745
0.07765402402699527,2.0560069757911625,0.2665411416826361,0.16505652887715322,0.37189402521163967,0.4103072717005598,0.5247252437096044,4.479868604446438
0.07376105620291257,2.1501176280266536,0.2516902733003765,0.1674155471587716,0.3134866582804632,0.3971596183312044,0.45926384122885255,4.489619117304451
0.06001128259362228,2.112089741171546,0.21857881553972947,0.1221794404953844,0.2683636986551319,0.28208306819399115,0.35050880590880545,4.345846706491118
0.08506041547823633,2.081952836891477,0.2585500873957588,0.1735991224388764,0.3691189564621414,0.4215796859715898,0.5537811060421121,4.56388032760686
0.0807973556265918,2.1096284963260934,0.26018953899768876,0.17340349987090284,0.3276640800052937,0.3802162922861252,0.4793284092241068,4.578717257948025
0.08025590881225461,2.0935584118538846,0.23989091217313513,0.16128513129023775,0.25243659793620177,0.33233228228270995,0.394618440546198,4.511982513460776
0.08289641411457183,2.1240199298038838,0.25948265237451207,0.1689570338087064,0.34665174915151403,0.3914171926129558,0.4933260469538102,4.361940619895596
0.11803618524302076,2.119006496399742,0.2931155441153078,0.2223480538137276,0.36776984272778895,0.4155383713366626,0.5205339465112897,4.477417322462586
0.08145921296481877,2.0963144849480413,0.2986114564518304,0.19240236579554434,0.3060025944250003,0.3837183507511567,0.40328303957161205,4.399430523350458
0.07985892443355318,2.068283596471911,0.26162702017402306,0.14338260241723003,0.22205337394786606,0.2872225050711472,0.34468381042546514,4.434368437911803
0.09361571018188394,2.055281217954399,0.2657497515666062,0.17560361324402482,0.2707394218608574,0.39782995891802525,0.43742118479773584,4.504993459261313
0.08296302655305185,2.0920580703087985,0.23984028195264354,0.16738124694658868,0.25010061091191516,0.34191791625949897,0.3844613119182178,4.488217006920848
0.07447738777966535,2.0744958147426935,0.21256319820196382,0.13389703628442667,0.18557157585234263,0.2611302128004998,0.36911675932536914,4.360560169589718
0.07398242378165547,2.0972599988775693,0.23968736379330965,0.18006772498238327,0.24874599658564162,0.32861673866875735,0.3456120610386331,4.5220880972862645
0.06819196573975013,2.0849568013409887,0.22580131080782995,0.1477051971230791,0.2476805261813207,0.31254414527996144,0.38202535747747324,4.36717082082427
0.058549109028772674,2.0710342297547126,0.17824605777950558,0.11138357057010573,0.20962201898213886,0.24345675552245655,0.3599637372269778,4.5071587761229015
0.04856852071041158,2.0789558284168237,0.19349180802544858,0.0969750639084403,0.17307840716138118,0.24264987271954896,0.3013246254214256,4.456207225345941
0.0565057234438712,2.0708523611201546,0.19761474073304106,0.11119988589654287,0.22533947611621075,0.2932455211314932,0.35686119341959105,4.398957787931153
0.04171209812357381,2.150820894901319,0.19373142651588798,0.10275995057453359,0.19208935735784516,0.2582149078823963,0.3216304109303732,4.373748856800831
0.04033455841782653,2.0911383665534373,0.16804542383497217,0.05927716053493012,0.14035806726330308,0.1747534073082811,0.26300848904088653,4.325883822116528
0.043167018071872294,2.0825158131516854,0.18653086099221222,0.126456051213388,0.21813220243497244,0.31134870733457976,0.374813133821547,4.3367027606480555
0.019202781979196965,2.0600328744197522,0.171744737510764,0.08308972577936412,0.1662729987074305,0.302482928208339,0.3375213011562833,4.505829646885088
0.012778879644558927,2.113910726337267,0.16681720349623197,0.06125481536988092,0.1276971373002323,0.211968959508357,0.2329434388768974,4.412200447211803
0.041737603894333085,2.0915262003921504,0.19949499521755296,0.10359977860751644,0.26974961252874485,0.3172297837185253,0.40968127107215546,4.33186130151166
0.04631406712134195,2.078513758104979,0.20135103925228023,0.10437169487922357,0.21762042823062389,0.2694247892278973,0.345973969654537,4.569043721213311
0.024858882637744058,2.1416205282880636,0.14856769168763562,0.10383668875423373,0.1413542606691798,0.2540512756337457,0.3198912094848637,4.527107279729134
0.04613583364436966,2.1536492749058374,0.1868586661137296,0.14290384150612676,0.25785163663680744,0.30303640452264025,0.3843778279770862,4.480554234452458
0.05303183495589357,2.115379802253277,0.20987964043722226,0.14838227208471338,0.28681002508772135,0.3603303484749165,0.4775689500604427,4.374749230554554
0.0451379534490033,2.064377859207693,0.2011951666979162,0.1145184170942876,0.21482364579920823,0.30118301198732855,0.3642545098186612,4.438338503770176
0.04716443077776943,2.102327571159751,0.18321103827781182,0.1273357134000232,0.22230534705318272,0.31632094918691767,0.3863405762380741,4.449614777553914
0.06897241116918118,2.1215107479214073,0.2148466249610664,0.1692042093706659,0.3165487852419007,0.41717121424179116,0.4585153770189203,4.388826055819565
0.0729985920737681,2.0886388389623125,0.20642259029141996,0.15908823757304152,0.2541086280767797,0.35542159386109023,0.44423933807556437,4.445115023614909
0.04516104615142276,2.1493231338105687,0.19400116345282253,0.1412754185233489,0.23746525795146606,0.28870310879309197,0.4097368462426113,4.594279011191045
0.08883648329046173,2.0070976213745815,0.2532666980710524,0.20684530110128677,0.3670269592794349,0.45746519161822796,0.5395933144555233,4.502083842079836
0.08211766021112159,2.075584482296075,0.2618173653943493,0.19508703335068855,0.2809039779947323,0.3994606169166031,0.4818953833551831,4.436912396450902
0.06858484841727891,2.1376748483761245,0.22917662739857533,0.13811642069575766,0.23903871835620655,0.34445329103197264,0.42472700653731216,4.63811907015196
0.08471928824889483,2.112676108191723,0.2410713395654244,0.1669074538025631,0.2831716246369651,0.38814487795629005,0.434958904228141,4.297085027537623
0.10180774243788779,2.1179552400796333,0.27009253701105207,0.21350976377225037,0.3357109841116781,0.4406257320508077,0.5293247144411949,4.5617603725631835
0.08122731343720535,2.0980126616932013,0.2397488814641654,0.17759925315523614,0.2773597782331667,0.40785068628871657,0.46118862365757374,4.474052603673638
0.05695710051201512,2.1052882045706514,0.2131422040230371,0.13292347361449233,0.19782572521098388,0.2975428720766967,0.3969992584559174,4.451541025057734
0.0724216382442898,2.0688068900613654,0.2546465027012572,0.17282534654900703,0.30849412147262145,0.4264678975095342,0.449974480711118,4.639631947890136
0.08751115240476218,2.1113623647525337,0.24844777412562633,0.1825248633359927,0.2591969709709353,0.3657955696850844,0.47181781443792375,4.506706469438897
0.06348389499363744,2.0871135648845573,0.2342123907754519,0.15202984571028638,0.2535719020626724,0.34287959919984584,0.3825226695164303,4.577170781482171
0.07085108903201731,2.099552522298781,0.2289529570960595,0.1416121272053638,0.22333567234861088,0.34324234164909667,0.3680154883528439,4.389545879630834
0.07074759809361927,2.0702586938188174,0.25750620798852797,0.1372870020401494,0.318346556693058,0.4029439358162452,0.45265769534526124,4.602584550975768
0.0640691582278137,2.1407796340970378,0.22222874256228567,0.14824093351619833,0.2587921865573024,0.33618104690467365,0.38070099281971204,4.390182258728737
0.04503348372273293,2.09890504428576,0.22576268755993462,0.08644640556800977,0.1885940006696111,0.269483398813827,0.31537562564988697,4.615609914591622
0.07455149764854019,2.141972031766896,0.23332078714194146,0.1430527671949844,0.27333987209371824,0.4096915866350276,0.4332071966836387,4.499753609517032
0.0636054352193521,2.097124764829603,0.2258877006028347,0.13805332023953876,0.2942653581646547,0.3738902569424608,0.3961766714611606,4.354061238313378
0.04311166482190413,2.1704182830963146,0.2125463930954969,0.0892795413232422,0.19116647854118007,0.28118539141016974,0.3455613984671061,4.573219832746375
0.03147531137919273,2.0833606587320057,0.1983191043279345,0.09079189242192261,0.23156556582213367,0.3167805407338768,0.354889231956224,4.472712707057528
0.07244392037081937,2.101865680086645,0.2306475454205746,0.1315491032583629,0.3053868355322431,0.3688277724152107,0.4418650562292243,4.543647506672543
0.056581513163421346,2.0639921386763467,0.2109997105322625,0.10172766952990285,0.26249345979248323,0.3226023055803349,0.38657848635673125,4.36319696710794
0.022474056819150254,2.109019841989456,0.18122714113332822,0.05749215750440548,0.15883320851139507,0.24448451115095027,0.29820338870418484,4.395080918667841
0.06072843941735466,2.163652332910572,0.20288560848081252,0.09717877684369043,0.30022607880949626,0.3841817819979669,0.4540037908722353,4.517448680902618
0.048685877130747214,2.1270326268698234,0.20767793272678178,0.08396384245091315,0.26029710323101585,0.34228468059981665,0.4015436880646011,4.632661486282636
0.04199876225612727,2.1282407362170725,0.17039853514784903,0.07109425813280507,0.21408105243634162,0.28593527399140617,0.3351824333537255,4.437884281451373
0.017241097407689965,2.0891281110332116,0.17878442684769053,0.07022974591852593,0.17769929942260965,0.24510861483771512,0.3197676062258168,4.313498743132229
0.04578360938417012,2.108265307844821,0.19850129453492443,0.10079265094166748,0.30708201689920367,0.3540410311300184,0.4217208235492323,4.3907928782790275
0.03580326107379194,2.151186181107188,0.1902573857193296,0.08766863891437157,0.23999889552774728,0.30972973609286647,0.39717040025634215,4.4713334975274925
0.019932192702416956,2.166754772658221,0.1487639550982396,0.022402876483500533,0.1419310318639076,0.24486515638048917,0.298668200734474,4.524890733972098
0.02558615144755371,2.1118243899836964,0.1573596739115311,0.041378439972365205,0.21543455200923156,0.26180724262018434,0.3685287732377357,4.481182555700576
0.028923530306070207,2.1306348244283266,0.1453524394805139,0.06087861680052847,0.24472436318505478,0.30399319143867065,0.3592689692613254,4.392787656910283
0.013383412829298749,2.1248157627569455,0.15254509308039932,0.05616547959370047,0.17951499257509396,0.2536897548110073,0.29881805377038867,4.441854259878167
0.005018809614829379,2.095528211011401,0.11790196341069525,0.026788365482901227,0.11178743899191189,0.18282928497337073,0.20029897564872398,4.466598729672141
0.0190777261855874,2.125268476801822,0.16403155752053133,0.06554842743213243,0.1891374420003404,0.24251198545769292,0.377689317163551,4.387446910698931
0.015726895200561232,2.10124637754378,0.1502953471613428,0.02386344764320028,0.17698591552470544,0.22086398481304967,0.27644651133108666,4.508496308729137
-0.009087128338116562,2.067032198951736,0.10518091485374997,0.01702672104562708,0.08970925842996187,0.16749277826933312,0.1824048269302716,4.563952292475384
0.013394304538582,2.1109491588106173,0.13934315596828095,0.00975184653897418,0.13894900964118723,0.24809990111693828,0.28456305851558816,4.395004313649625
0.011913400510926635,2.1320921946877647,0.14885713779929632,0.02900727175260151,0.1426412380833539,0.21978838243720256,0.22025987514121026,4.378912564303204
-0.014467017642394987,2.1099969137071115,0.12292899647094935,0.03453333664483449,0.08521369148943927,0.17780748169125182,0.2295265421763438,4.3843198958843885
0.0018080639401556464,2.1039915748164186,0.11910728051462516,0.010839115789946618,0.0875768843169529,0.16162150164334316,0.19499589851428717,4.549444381187154
0.019891316060540835,2.0772206223003202,0.15181111165103067,0.05521537639778573,0.19443515035210282,0.23235762992470826,0.2540585093706941,4.4139455033594235
0.012026403789058034,2.132878948414256,0.1542543396658369,0.033434029824124856,0.13174809060751735,0.20199498471495927,0.2632568460193896,4.4043084946300315
0.01812049012213427,2.100323216553466,0.14473786155096952,-0.008198980356219965,0.1027154582137953,0.1477809579543778,0.2129051134336275,4.4731354704574
0.03136517628784321,2.1201752649189785,0.19768476502034013,0.07544249364347458,0.21739959091914846,0.31309644418523086,0.3663135908465958,4.378322115934902
0.028412697655708474,2.1118894274209574,0.151737587325189,0.07266330179056997,0.18339078480660664,0.3189809310199705,0.3201472725694424,4.511430108741318
0.01229861384658864,2.099973211461619,0.13203520244606565,0.03368220290737539,0.08553585012627368,0.2093274272876887,0.2523582178153059,4.606350650304327
0.02522386752308841,2.136476267891851,0.21511307504647298,0.08796148090269382,0.19101503205404544,0.2870749615024574,0.3491772882700961,4.524184454053147
0.05709345475700845,2.1483196358287273,0.20750255724617547,0.09443539007555721,0.25265684033711533,0.3161426669813784,0.40924630965538294,4.556301596104006
0.04441844222173734,2.1359075493362907,0.18800838475757886,0.10028408262420155,0.21028186418568917,0.2692190248593675,0.312544877970219,4.526445141426968
0.029909692013778157,2.1272579004586403,0.19437448534934898,0.06659920314328546,0.1524873860303311,0.27961158402274616,0.3101492619122773,4.607746570088833
0.07582718902179425,2.10156106760148,0.23434885720623216,0.12971132661255114,0.29604767532937454,0.39456456676294294,0.46414134821204966,4.423183875885728
0.06084099359554527,2.139475241055765,0.22958456001844993,0.1201316016509826,0.2753316229864284,0.3450765271719067,0.42489432845208075,4.514021874145451
0.05811934878344775,2.1425944960619083,0.1818481380313275,0.08049714620577977,0.16582489442898016,0.3136541903093427,0.34870881837299467,4.529255586389887
0.07199962853340611,2.116076968508128,0.233554826020317,0.13104529740190035,0.23128635648906656,0.32001353802626953,0.440042234280702,4.43008063874614
0.08672572934533457,2.154366552694624,0.27783345002115944,0.17019343986734783,0.2423263252671472,0.38275254774736267,0.46155556868069075,4.647463829159314
0.08060157203241489,2.1822668863597556,0.2480223563925079,0.13364155846899478,0.22345086996556637,0.3375168804861485,0.42537017415329303,4.646879935348564
0.04486402677033256,2.1267612905871762,0.2043895108652517,0.10966010666184102,0.14753145054350109,0.25777004073151755,0.3335061189173021,4.5215569358084915
0.0951398449066644,2.1436494482529156,0.27645273585779284,0.16506314500157948,0.3073363281328765,0.4203035403617688,0.46560137384839484,4.659326065357391
0.09417732181274929,2.182559334986561,0.2750898143608643,0.15090784139001026,0.275499628712002,0.4184662559179584,0.49007463246261657,4.711806081096864
0.07905076469096296,2.128610063298265,0.23771764483540495,0.12203565690684468,0.21879629776412962,0.328685328107708,0.4066002089547713,4.534330563677219
0.057106285868483084,2.1176896985816134,0.23176017003471064,0.11162455964092116,0.2208369149420975,0.26580000333564074,0.36063530627263374,4.448677662712684
0.08861880755371426,2.1904852816542038,0.28297867418971556,0.1655599326925718,0.3016955290228827,0.4159186513849011,0.4701055436049147,4.559291447047576
0.07472289003644708,2.0971723390030466,0.2546257782980703,0.12041764519887209,0.25533439562676125,0.35301391730790627,0.4397802404454376,4.539317680126713
0.04996620302976714,2.172917501712206,0.19325188695125192,0.06885953149859148,0.1610981953932077,0.27144273986399015,0.327964604003376,4.29940038832482
0.059974499323260086,2.1029693930889573,0.23667816151020948,0.09009005233132536,0.21191442835494684,0.2956966682874685,0.35452522551739635,4.356278191656639
0.06314947579207522,2.1141145758872595,0.22251433331615117,0.11432571684501523,0.2556710688269612,0.34382956064476633,0.4326789669302445,4.390891312578192
0.059405535929453024,2.108697570314203,0.21536148681493147,0.08222037584326308,0.17368889257490597,0.3054392363014494,0.3845284597155701,4.5318000191390855
0.02209482370261776,2.088110066258189,0.16935982962817503,0.03774817780435502,0.10410201599237534,0.16021927057091548,0.24244773977173767,4.454272725212075
0.040472151617977806,2.0983506570750814,0.19181511826717568,0.06544076976481623,0.1950848586341362,0.2886173251409664,0.35302788894232234,4.441705450009795
0.04483479744212911,2.1200520555442535,0.20482602091318808,0.0799972027218693,0.17591483199005453,0.2293620383192016,0.32640372643396487,4.44493564060598
0.0307110518765178,2.125094199610162,0.1603286579921233,0.027568740388263735,0.12606505150792582,0.21931181298386287,0.24964955819646448,4.6535795361688255
0.0055278222016724304,2.133212140787972,0.1433655590664118,-0.01964550388709499,0.06442687605883719,0.10601420459391019,0.17260577321685977,4.550121954990689
0.009301572190811746,2.1300989668664645,0.17675809005816007,0.018261241522946142,0.1793734359578254,0.20903238152802406,0.2771223654502668,4.428354813270602
-0.013801696908646535,2.1872397262782024,0.13282074093884572,-0.02265658789088984,0.08265953798182477,0.19442493973673577,0.21056346408763577,4.626551693729652
-0.01517751704798689,2.112925834021204,0.08709845540743516,-0.060206431616536604,5.652300496786951E-4,0.056584787316341215,0.10307321063301367,4.4148047257149265
-0.010313306783874522,2.133789049749797,0.12027978944791362,-0.01201815277562629,0.059037854876290506,0.12114181405109467,0.19102841390602637,4.530467205131703
-0.0011671267190726323,2.1584231272385166,0.10456872346133284,-0.02616979781585549,0.06262046363251188,0.14632340367572158,0.17828836610774804,4.606823869785151
-0.03396285344387332,2.101224533181468,0.100058389247967,-0.05764240266568338,0.023499847944418013,0.07876996844008269,0.13312283445096484,4.577947097464838
-0.044044325302255535,2.0598904674107645,0.06581941928293039,-0.09164758106233237,-0.015708796428996336,0.023421787948458478,0.11077546160397278,4.383259615669752
-0.01455757145024868,2.151757375504384,0.09427624286638459,-0.026994395874708033,0.09575050939071747,0.16119210583023397,0.19469173944142842,4.661593653387819
-0.028834312565250014,2.1121512278773706,0.10275243353079838,-0.04114157463450285,0.04647909844035454,0.04382881904750738,0.10401043959362133,4.528224888702441
-0.048857209079352266,2.127244143327305,0.055177787498431774,-0.09778274546748159,-0.04085433203187007,-0.007323330409074125,0.046050778491589506,4.490617572773472
-0.034678937284943895,2.029964379126311,0.09199061006267278,-0.059059969399046175,-0.0022498651205412543,0.08533532261688179,0.1522473890535317,4.3383453222307
-0.03717110035945773,2.0953581465117814,0.0924764083228361,-0.07658347885219183,0.07054135580235014,0.05066835912093565,0.12459840816940226,4.615081333232484
-0.04062672994906166,2.11779012025434,0.05245543372710648,-0.07721409114068481,0.0016264440727202026,-0.008485596673326157,0.06254112225788555,4.557326513216928
-0.06601542702226176,2.0893362200285903,0.04597042363735959,-0.1033447206056739,-0.06190261224073471,-0.014042062911396702,0.03637351575369491,4.2899803619219625
-0.023442041284925195,2.0814263828156223,0.06691653021675892,-0.06580189116872387,0.048353407118014585,0.09678940952069973,0.15403875532528227,4.431609238460383
-0.052771063923918574,2.0955286666275548,0.06542520568172439,-0.0728851352781073,-0.015306395674534665,0.021870709441557723,0.10001628563244996,4.481373044607206
-0.07823901241928954,2.0892876366785575,0.016291473356867314,-0.12024085664094958,-0.07592218713584657,-0.04643168655265936,-0.007073792347193408,4.375233379166774
-0.045342125150714986,2.1508552190231778,0.05647586243876468,-0.05732841889303919,0.04135216068219809,0.03221971168702212,0.08683431169007438,4.539642727849906
-0.04993164104363149,2.129752132233289,0.042466501876973706,-0.07772914272754014,-4.7422222685212026E-4,0.024685906945261155,0.09994740036887445,4.456136617555476
-0.0767596509768547,2.2000563312049546,0.03657070475128854,-0.086311223266585,-0.06806185092154797,-0.036035896095533315,0.014619544667911877,4.425171940189886
-0.05160185236263611,2.1257591926439705,0.04961497018854105,-0.09144373957658544,-0.0638240163803919,0.0037723241275604003,0.052874071774774656,4.430842526990378
-0.04748933212068476,2.1210092625934234,0.04977347319563907,-0.06556339289027555,-0.02424668001376975,0.026906132306385833,0.10782296114528922,4.510229999289725
-0.07055623715532819,2.046821793723658,0.029830456499476687,-0.08924975877128202,-0.0616672751096759,-0.04016587559539189,0.03107410000077976,4.473877318142425
-0.08936713958077445,2.0968852910789093,0.04515576620564132,-0.10659655142404362,-0.1375826655202872,-0.07987891242053613,-0.010339402976860534,4.489613443783537
-0.05100735783580041,2.1458778921664416,0.07614459949968644,-0.07361342805645893,2.740075845256845E-4,0.028913798850368044,0.09158948850180348,4.363793850239558
-0.07556806666867649,2.0892138415521284,0.05183602660003295,-0.08978168691010646,-0.057775079235004745,0.006208553791411858,0.054919473040452915,4.383097147995727
-0.06948292990899749,2.169221189380432,0.03568693263419742,-0.12315373409362387,-0.09070119318014849,-0.049017137873143934,-0.006610929165864365,4.38610576436627
-0.050062824241392,2.1136069497049843,0.09009461616129671,-0.05313716396547552,0.027368547299567288,0.056476762166233735,0.15688211892667708,4.51982362617522
-0.043665285027019385,2.1483796783302096,0.07442678066112324,-0.08795678747766908,-0.04337237583419921,0.029840403887920974,0.13037989465684297,4.567403919494783
-0.06362835717524022,2.1314588354154704,0.060446510178431,-0.09048056650078207,-0.11089481249828877,-0.03137322276752094,0.045701244946603214,4.535170917086534
-0.042362817001211014,2.2155867889971548,0.08503808791956802,-0.06212278267239171,-0.0020979347070067475,0.07995280688705225,0.1345776611127591,4.652790754648807
-0.03499690883638587,2.1255473773448674,0.08814851504778037,-0.031034449284625926,0.030551363211214565,0.06647105544715368,0.09582500792213411,4.399514583445127
-0.030118398869965674,2.153108891981972,0.06847670091210895,-0.057743934231563654,-0.02822293973377158,0.041528202729473024,0.0851486227097184,4.544317522112147
-0.02932634405256299,2.0780506936881915,0.08174742155672521,-0.06944644226384322,0.00674773106185457,0.0833425625638354,0.07835233750311504,4.520676507600841
-0.012542668290478003,2.1795065955834168,0.0881137026537766,-0.017925738208587894,0.09354559940921885,0.13994508040610149,0.2101435767594636,4.475175570316205
-0.005865391424358204,2.1524387283620916,0.1000026356047033,-0.04902705414583289,0.058745155889371375,0.09263281687948922,0.16909654107121264,4.656280593107061
-0.020610872693462384,2.197308285934836,0.0674563366228485,-0.06432022990704664,-0.0434094580571405,0.04554540092771875,0.11822509319603297,4.591627580547259
0.0025292488504670366,2.161040755910707,0.10955044404780773,-0.01215290810351538,0.09632678443410486,0.18812444623673125,0.22451315082598303,4.677993934777856
-0.012706330102789773,2.1681887195604688,0.10417754870159512,-0.024733099050104235,0.06802992945471636,0.13044274841142403,0.18516420956415397,4.486977275291791
-0.01628271230209683,2.1388718969358593,0.10012921504460798,-0.05155630915006584,-3.5237886245717553E-4,0.05496471492509092,0.10558930474948303,4.416061659109792
0.007462937978544694,2.1606987455373274,0.1261521198189819,-0.007273534402976789,0.0809505890000185,0.16922185895619932,0.2172102650083762,4.468795086221433
0.004412974291433811,2.1841321641882616,0.10858366705892564,0.0037972535411198716,0.06076653708681647,0.16237126753225062,0.20935496562054923,4.56665085453743
-0.01723855219184875,2.210721839996374,0.06602162969774433,-0.03282608917914781,0.036133114135660664,0.0791324155029549,0.18583888926798242,4.504369475926559
-0.0010855167044596103,2.119286212765256,0.09854559606696128,-0.0242058054547252,0.06460490589528173,0.1207663630974493,0.19828773362455765,4.539860750852715
0.0064685210235828966,2.1411233128377556,0.11094803514931151,-0.026340546618222688,0.12590275597866402,0.1747892475584332,0.2313813150215369,4.352752953165462
-0.06322820145688149,2.1848260784105302,0.04305175223559232,-0.05869420893968491,0.009024435218850147,0.13358787438588637,0.2105569205969336,4.566382772062072
-0.021343033622695975,2.1311071754084017,0.08509819200390295,-0.042371205296551195,0.06112329422468174,0.1225687397102857,0.1461324888145792,4.457438897322379
0.014567440185112902,2.122790034791703,0.09463046276279874,-0.0056932913386080475,0.12850204832329643,0.1861833260300165,0.2804611775179634,4.693794039996531
0.0059053960801414606,2.1634259104409206,0.08987206823215066,-0.05147023415590549,0.08696513018249923,0.090523344898421,0.2016641685036915,4.574804277504752
-0.011183094619949967,2.15289444530221,0.06348613527706953,-0.02755097116555419,0.07483680059023912,0.11273286754599884,0.16646790275596035,4.470426974464163
0.029472919683571172,2.1418432373140903,0.09388115055648893,6.412357018485415E-4,0.18885536968859135,0.22263799737976953,0.3029663702703583,4.449947673350341
0.01890639463896198,2.155259064154249,0.08663505142548045,-0.03714665414603016,0.13687435644810264,0.18280653525965432,0.29909679613419127,4.697527784664855
-0.017530213602035338,2.0650684932566308,0.06549121282924342,-0.06555620838613216,0.08260929796428196,0.10010037780058205,0.2067861439690398,4.544354258823374
0.02168333124221975,2.1186087630136745,0.1182166156311733,0.010453715443501738,0.22336868051335035,0.24963028087881473,0.38220132321128575,4.545698199016649
0.019760643091546973,2.174953079644982,0.11409508555198605,-0.035490825518798536,0.167355228350336,0.22512924519918776,0.295896906430975,4.499026133673284
0.003651809941281753,2.133261159094121,0.09505109849264148,-0.04460332793315552,0.12931290547009908,0.16672327921216407,0.24700999361555284,4.413903879613089
0.0318334171258642,2.1750612717743047,0.07855642916983324,-0.01639449796276171,0.15862316564099502,0.22309712639320417,0.29829137719344617,4.394311131298772
0.028629140178803865,2.1087649321303443,0.1130766437242885,0.01801236537902587,0.19709948176484582,0.2737576429501707,0.36373222787349496,4.460725099002655
0.015153576952588099,2.1624902920790756,0.11630359817477665,-0.018383506812517353,0.14212179158605082,0.2256075239109474,0.2841641242081156,4.541961942127965
-0.00643319269852098,2.203338745131115,0.08341757572999564,-0.022720064559079517,0.12472241093584263,0.17789788403800033,0.2871846761778557,4.510358211686949
0.035802036246048774,2.1345512551777452,0.1536394728826045,0.04072981815597551,0.21081496187493054,0.3174094158260733,0.3636665240123286,4.553270640651946
0.025731591855451028,2.138760920804757,0.13235342468595113,-0.00556982064592304,0.16410755200136848,0.24227278429320936,0.31714252260048936,4.634543867513388
0.007459219632823649,2.1576966078506485,0.09499285659899864,-0.0026222313957068866,0.11724727348854147,0.16143027264210613,0.2046743019182542,4.555876677714639
0.041233967317781256,2.174671930673942,0.14121096713219466,0.05295392997781656,0.23073182212501142,0.25905983666588295,0.3603851534402137,4.537738843793767
0.036724663783510886,2.1638739584783973,0.14292849097927224,0.04010956573029295,0.1698585054484376,0.21514460022629986,0.3216085841704652,4.557290363515094
0.01747802312442963,2.1756840422681982,0.11065945922794446,-0.011596697092574437,0.14627048073719529,0.18283914214750438,0.2523872100743821,4.554052716774136
0.028111698309898278,2.1955141546152457,0.14696192703188377,0.035593505513417584,0.22992255271246165,0.27515073057047984,0.3307055006673426,4.658308431032959
0.03295792799646011,2.176852340125472,0.17400628488245745,0.048267280829762366,0.1835753937640978,0.2536851341899084,0.3198535918626412,4.621543528916976
0.034980703791906355,2.1435409930827327,0.11994682621043268,0.04157133106733002,0.1218837638459539,0.19030650385370496,0.2600977750965181,4.652011655080653
0.03661575099496712,2.186941760876174,0.13109489376563643,0.05297290646206429,0.21478496742163605,0.22152491847882672,0.33674448782833094,4.504845760946143
0.08293872119544086,2.183016066019035,0.21281210421236568,0.09924447664397092,0.24522531646062107,0.33678545717885455,0.39310763538362975,4.544611188451417
0.07118763905306977,2.163129821085457,0.20789606557588813,0.09747517122497108,0.19528523763230315,0.24791249269957077,0.3393250846039796,4.773795349942151
0.07966962881541248,2.1721404039853485,0.21314889774398682,0.09114298502553768,0.16940327177222,0.22699489983515078,0.2727768474129427,4.761794683841487
0.10896063369999447,2.150516328217496,0.24143797811390716,0.11863188312113547,0.24638744336700744,0.3136405346910843,0.43931610044902847,4.6390922479346735
0.09677330791371853,2.1878253553589846,0.21989060461320895,0.09645673718866761,0.216774657237407,0.2664163079527465,0.3697471848126722,4.629715687020229
0.06556173926063054,2.1857470749153047,0.17077952698993787,0.053202991728724724,0.11940698615241765,0.20105779156607037,0.2134674070340454,4.516781012559206
0.09792148153645072,2.2062052456741137,0.22212611928103135,0.09446023142775631,0.20314614253574126,0.3298804035588065,0.3725647710345529,4.698253622151068
0.09328238957793034,2.2754205807562013,0.2255821808377031,0.11443391243212965,0.23182906538372552,0.26882493775559346,0.34182211160497117,4.638493917778001
0.07820803193788707,2.193174332640534,0.19020913176968895,0.07142858075550292,0.16284284718348993,0.2378340974447306,0.2883711961100045,4.52187348778637
0.06827806317308582,2.1491814341359476,0.22811696474969284,0.08966585980829674,0.21088233038635315,0.2842774413744209,0.34967912946823365,4.2889635518796485
0.06454199287966042,2.2171538983156465,0.21827575346317235,0.12261054623874204,0.2319016747425186,0.29979901651614727,0.39622448027045765,4.695087160415996
0.09599318905180809,2.1657602352077037,0.2053974794090176,0.05548430053240963,0.16043042695837445,0.23086725678147324,0.3088401511997797,4.584209704796097
0.06040494938385754,2.1660842573977783,0.2067210487233426,0.07607679818797583,0.16323032193185286,0.22464154441618955,0.31718683669307624,4.545775796908229
0.08443578060733763,2.1860464202972962,0.215956528867298,0.10972137229221336,0.29041791078065493,0.3104624691956961,0.41698284085039944,4.361462472217686
0.06977004269719851,2.18729846642842,0.18701898545507295,0.05313017689492429,0.21135912103336013,0.26314814769786987,0.34669914026832294,4.405081460454763
0.054063945843595716,2.1920405439778157,0.16964268438859448,0.03966715502232632,0.17192159435009025,0.20639642663748553,0.27514564515258666,4.638345091029905
0.07674070019447612,2.177310682476569,0.18268998802533742,0.08279649798288916,0.2817293166684371,0.3122722129214097,0.3816488841027104,4.646346689909891
0.06709943829690476,2.174203205577366,0.18666273261049665,0.03349595720171547,0.19951068529610214,0.23232380704268474,0.3349241598713636,4.483766045548231
0.03817679002659009,2.144830721129641,0.14720993505908708,0.011044846635766492,0.1392102863443002,0.16389599708069888,0.26591550244138396,4.471899960336252
0.06627147857591295,2.23775494479557,0.19445476102766196,0.05223476974365224,0.23331448933117202,0.3231546604532059,0.3814883308800096,4.702710770888272
0.0440933091593829,2.2068728336362105,0.18450030912870446,0.023698263995744595,0.20835119224073362,0.26666965958957184,0.30706695706350795,4.601049525986688
0.03215008407493485,2.1447475758410923,0.161982187760232,-0.014044078143232608,0.137555121168437,0.14963720871075856,0.20482405024659173,4.596055620101587
0.05777881804178467,2.178115816825495,0.1716563232289896,0.04089084534452994,0.232831267254244,0.2882667111923629,0.38856191805968693,4.690795089559253
0.05501521876768797,2.2301830061868255,0.18010255768258088,0.033924256669238484,0.222508902600925,0.2848163387038037,0.3298331065757515,4.630476353215767
0.02810608261429309,2.1949181748205917,0.12467858128975423,0.014751920500455179,0.15617699668750187,0.19100263567634976,0.25584686198760254,4.53815512315921
0.03972000329509347,2.201632129140579,0.15782238510668917,0.03871963658523567,0.21629249560105784,0.2814122411689879,0.3379584581992128,4.648926385809802
0.04798794584390047,2.215668089260759,0.16378986341173896,0.05315879669789578,0.25892888652886514,0.29669394402550475,0.3825915362206615,4.7752506017708996
0.033479621467786526,2.232911045467364,0.15387789583149403,0.02386514613528576,0.20638229902604244,0.2311848385872184,0.3188889059918717,4.554725829944636
0.043996969533690256,2.2029438014003486,0.1400737859048532,0.009318322222959668,0.2008439749663907,0.2691917095031184,0.3016152282365373,4.496513086467038
0.061314645571588375,2.162472391541831,0.16265477135562195,0.04977177600852342,0.29500306692251865,0.33260922830646805,0.42467503684197194,4.4611027829664165
0.06568689726756759,2.1555487720617883,0.15944208792305914,0.038729803918344935,0.22259510251025252,0.3211498070784121,0.34903972242549147,4.727933956780466
0.03965900702178745,2.173730523867757,0.14923593918600364,-0.0071915967442161555,0.1895819300517731,0.21077120982143005,0.28632771239599586,4.505276088611415
0.0669856490633911,2.1624791213066175,0.17503630182925634,0.047129742532307645,0.2929617991735717,0.3546369594645788,0.3949491736540795,4.775226702837444
0.04608314641402064,2.196754554956262,0.16366415365900916,0.042170382833900066,0.26413771418972243,0.3094564985057403,0.36827772356945243,4.571721492831838
0.044032060615151,2.135940952790003,0.14302567314935533,0.008873048985669485,0.1695919575524154,0.2240512370218482,0.3042246437827406,4.652491051978166
0.06955298448746917,2.187938411076352,0.15955517369107297,0.03204289842716129,0.2972431316902892,0.31760152191994734,0.40700007447911835,4.588315628998061
0.07321683027483418,2.1973930826710952,0.16832652570097895,0.038205552637478574,0.2446694611216629,0.3131776784208134,0.40058598535303214,4.628060219229025
0.0396975239696395,2.166297064597982,0.12790418844356127,0.015542793112313519,0.14946447962732984,0.2352704911594911,0.32083374448327473,4.5108112991831355
0.052130919677020195,2.1671267439008144,0.15655457435319264,0.023089567335281697,0.1969737993118242,0.2277950559950042,0.3328081319175865,4.56564789513257
0.06583757939284703,2.166917519001904,0.1664772263322135,0.03204909954481949,0.1860697498976152,0.28527765519139087,0.3650017661251505,4.764023657032825
0.047173003980777145,2.2278181677215056,0.15313159389595365,0.02443732025498202,0.18522952089619818,0.2013409487479266,0.3067440119164994,4.706008245231637
0.029702921716372423,2.2330679735185517,0.1423043506100488,-0.01003584352992809,0.17620370446718683,0.23185694506694493,0.3249668903664996,4.5557563567285575
0.07224069766534696,2.151209657227089,0.18009709339999025,0.051714848914735795,0.261473233969991,0.2771735261539532,0.38264204454664597,4.5577188697403
0.05459550790214065,2.152543306229691,0.1438768400648232,0.01916158282142333,0.19596359669300467,0.24571070774389123,0.31605472962895764,4.783179326860246
0.02941770535327868,2.2184779108671697,0.15942101815298249,-0.006667676835048514,0.1324022147272768,0.20458619311544507,0.22683400249253755,4.638395145178697
0.07093350354783871,2.151085421527686,0.1647811740207229,0.028606462636819346,0.30069684385025935,0.32985512551232526,0.44295672741400505,4.689229001549595
0.055381346902696596,2.1503441238541745,0.17939589388969668,0.05801218968338277,0.2265875798719132,0.283905470833561,0.35161161561359894,4.6766210223060725
0.059840522605181634,2.218225854054949,0.15388471416104055,-0.007658272579480679,0.1543861377123255,0.19819692083570395,0.2638972452259396,4.895856141295118
0.06816816092032328,2.22648896824502,0.19826623817856548,0.06110408876938647,0.29164229109199546,0.3433420706153754,0.4233477464571147,4.614010617735183
0.058674582909645,2.200059435977322,0.1891574405213865,0.07531325591876362,0.25719345740563915,0.3621319168075286,0.38322411834523484,4.840526052408118
0.06259393382790603,2.2302223762253326,0.1806990044215459,0.023520757916571072,0.20237635126813436,0.2871502272520787,0.347562706412592,4.633469308913923
0.06502071648058157,2.1755006180253282,0.1990279466809423,0.061487227060274235,0.21611916712777035,0.2955497861552447,0.3615683413594019,4.547334468033917
0.08825570877390701,2.2304922097792557,0.2206048023515504,0.09165187806847433,0.3088469663567965,0.39110305117408006,0.4434892178012163,4.527464251257496
0.07456337763441973,2.151426274731906,0.20303772236273654,0.06237037331173956,0.23237405243590648,0.3276154645521665,0.3835851811973906,4.632924339320102
0.07217145368241956,2.150418633190672,0.17330836503372044,0.04249475633700625,0.21024872960082708,0.3018779239022066,0.31196011980381066,4.623038096950227
0.08974855435662094,2.1807395029233962,0.2116353218690706,0.10598864904664196,0.3391629240594465,0.39664310674916436,0.5135907425984116,4.687858952170598
0.0848320591916514,2.186595472280014,0.23807987843727504,0.11667914266358342,0.31446287958242736,0.36282225768919607,0.4078245799144055,4.811572240964809
0.09232656983081253,2.2271609951972313,0.21702439476385188,0.06008405064917581,0.19006392617321732,0.26793995786631947,0.31770898951676696,4.574332989513849
0.11097544124666253,2.2106398494158475,0.24942244459519977,0.1452643753942602,0.31802552036446957,0.3378561025052018,0.46532147744113317,4.81528446494109
0.10058145609124097,2.2091941335405387,0.23989987304741714,0.11463342944597132,0.28723909168593276,0.3771461253374211,0.4074894088480489,4.6275314752388255
0.07738873260703284,2.1904618841085015,0.2229203977620665,0.06892037431898788,0.22106986845994026,0.30270060443423,0.3635336910014756,4.637742998385415
0.09775592627888821,2.1863280234912263,0.23603104227380664,0.10491225827650792,0.2787710651995393,0.33306087822707947,0.3998557515148075,4.564469078374375
0.11879141773715499,2.1929820108268796,0.22793772792135478,0.10649088088487145,0.31517456693857615,0.3720970135183243,0.4624141857632318,4.6372571425828815
0.0924395727309492,2.260067369578909,0.21383950595399037,0.07330718975810979,0.2533053312993332,0.3458389277241629,0.39566941693169694,4.522538781230556
0.09743748879807694,2.2057069785051753,0.2373690314810305,0.06872864680572212,0.27349989739415137,0.3037687146315909,0.40168141882205155,4.729386924564212
0.10534769654556712,2.1780861985339075,0.23475052125500062,0.12718322724722272,0.3467155174566864,0.4429273897696784,0.5244056421972364,4.705896972391592
0.09856339883028033,2.2324100317809705,0.25322064890776413,0.11271486980175968,0.33897064611967237,0.4070180028733532,0.4602492751688843,4.662076074193754
0.0945472458744886,2.174585433082873,0.22197221079631532,0.07923104246992803,0.25265766222655917,0.3240119578148208,0.3886989203870097,4.724565358906065
0.11233923944133806,2.219639277349351,0.26768606178381044,0.1301044364741495,0.38089629906364614,0.46654538911399224,0.5309242204487499,4.640968924260413
0.12526585652844516,2.193023457756037,0.27164764508899775,0.12499358279965934,0.3780921750504412,0.39498752431411915,0.49573505195823303,4.638733405645187
0.1001863942177387,2.2263440851482112,0.24966417261483198,0.09010736388223174,0.3104257567292875,0.36056237086585874,0.41669916644800764,4.536335020143872
0.10529001714726752,2.2179001137363485,0.21471671381786103,0.11663042009619262,0.32473841056096164,0.4016667580634382,0.45742701263069846,4.562406627869194
0.12208942940120981,2.2442214786764794,0.2534807675598679,0.13769712491474925,0.37787202312541884,0.4369906399626986,0.5212728033136415,4.601285445872526
0.11404703288212403,2.187975649484817,0.22705432263130043,0.11187536735254677,0.3444186389379018,0.40512149329215924,0.47139299436851234,4.748147800886223
0.09153332250231594,2.229288909038446,0.22121348789030748,0.06949104798163103,0.2654461235849285,0.2819621823968841,0.38344982318345733,4.7388116278522885
0.11186627843057499,2.1851949572672256,0.24989153743494585,0.1405614493038494,0.36347493609772963,0.47389087111142864,0.5241507149775895,4.831695285503654
0.09728946686061085,2.2069319628779263,0.2338044780162978,0.140806479372176,0.31915518332617504,0.4154266517082925,0.459271113806582,4.670345676754568
0.09518493048506609,2.173279166844297,0.18530654327280544,0.08769234610922903,0.27878078554290064,0.3132563573274631,0.3635192258029002,4.620641360296966
0.0833854321685914,2.181279727612147,0.2197737359741202,0.12954526751367829,0.33395949031149164,0.39748390539686784,0.47516290000642597,4.6936894985826605
0.1002465986621808,2.199378776086398,0.2241473334807748,0.12887124111184092,0.33504308588268883,0.39336997243189886,0.47615210891153414,4.507072853336067
0.07346450957661309,2.167060008277815,0.19081943992846678,0.08694645791939803,0.2977757132423148,0.3638356523458103,0.44251554084167505,4.602660230745926
0.061877435657306454,2.19716236294882,0.1844802669803315,0.0768838565204977,0.2593624763590186,0.33973626857064687,0.3848388953248282,4.681232969006874
0.09238947961995574,2.1899098433541417,0.2043485860515301,0.12634592561046354,0.3394742012708541,0.4139994993095044,0.47008330098202644,4.689505169584734
0.07771766711679895,2.2206217883150923,0.19875978030360605,0.08406651990310404,0.3217396053082094,0.39787648685804494,0.46143956746620884,4.691678398514976
0.04679608531477729,2.204746847972608,0.17994592312535065,0.044618783894575326,0.27349889084797,0.3006709109683123,0.348807102236975,4.461805513693016
0.07007175973357763,2.2427142594915512,0.21566460667675405,0.12207472004591323,0.39164135236688025,0.4572880421130258,0.456412416996265,4.848925823995129
0.08964106861673685,2.1329634657860232,0.2311283920376787,0.11463042480229635,0.40238721094744234,0.4117993933219474,0.4872679310018401,4.879662708587061
0.06390403611567326,2.1865621385884486,0.2076681668720452,0.07483096992316589,0.2863525334610737,0.3359812287833399,0.4204319324990991,4.707096968100105
0.04788437226611324,2.2415692072223425,0.1876934657813537,0.0634351268091055,0.3034429927089328,0.3358589831789628,0.4209440194164014,4.7307463455008625
0.09427728638737429,2.179451809539433,0.24902379736566782,0.10854094520401147,0.384204134482107,0.43493955543790697,0.5055677889537528,4.737661657994074
0.08435392951748676,2.1532452291746758,0.1762323214764824,0.0999157721246241,0.32549817984278123,0.40575691600484465,0.48365484339186354,4.713926578851735
0.05598949031075022,2.1857311252469547,0.18018930387077525,0.054199936549202646,0.2751074562764605,0.33086381809659626,0.36605195801111334,4.634764427075488
0.07370734463536122,2.190488792524638,0.22671502367679,0.10606162599971172,0.3733367770893273,0.459045692107393,0.5418027448596231,4.738338782396282
0.08508410216318281,2.2143686272573273,0.24094489864537216,0.11608565922505634,0.34969557580462074,0.43281444983485845,0.47307739683309025,4.793104019947274
0.05881008500956094,2.113572548001658,0.19497841685808914,0.10518762048851932,0.29051673674973155,0.3952760298275464,0.4557448784567901,4.641380421016946
0.060391956508872094,2.229612227623802,0.1919929095685581,0.0988281567823908,0.3313964812350212,0.3875692699579717,0.41073588615598344,4.659926440042498
0.080295227660453,2.16681443721932,0.24662756713682643,0.1478183648891953,0.33516709667857786,0.4367161577120623,0.46624858902200533,4.596899874768857
0.0771413947161779,2.1366630867736136,0.22067013218494252,0.14569564502189952,0.305517038660425,0.40231662086591213,0.45729105910525836,4.740186072325095
0.06443945756054106,2.192229687539559,0.1969806759811793,0.08676958371192339,0.25587270185265226,0.3523956400117228,0.3864397185046357,4.697121501912938
0.09528371970763305,2.2122671489051977,0.2566843659971031,0.14323380618045545,0.38585811654410435,0.4603910351203683,0.5396059755856761,4.71733064468799
0.08886268928739015,2.1919535057545905,0.2518187445158853,0.11670435209803989,0.3317113822051945,0.44037742682774883,0.543305853779191,4.593467811810572
0.05827928048498309,2.179176753704197,0.21453218935181326,0.09178140434655568,0.25377834351489814,0.38392948023198836,0.4238302335168162,4.64888616843012
0.08194486970764264,2.1816244789581307,0.24616014165675748,0.13369881415036516,0.32127915896953907,0.41467996816009983,0.5007926919835576,4.396469866942118
0.1117608799822013,2.219693214886337,0.2657898954186349,0.15670523205342485,0.4083258235338186,0.4811185514636048,0.5481895972994596,4.825510994813737
0.09760219880986443,2.227052547394101,0.2449030106564486,0.1282003580248302,0.34435497520478453,0.43342202497009485,0.500163287299725,4.634561640010062
0.07000091488559364,2.166724919767887,0.2220292038096286,0.12485918910172522,0.29616233720794105,0.3437249825907559,0.41151619406317974,4.767227118135394
0.11433604811374094,2.2224816976608928,0.2770942342542231,0.15956458389119715,0.44534189385844825,0.5129297443310114,0.5792856626102059,4.7170071373996025
0.10468767011653525,2.2324441568067286,0.2508310257414246,0.15097942059043357,0.37413555135733956,0.4970427513542869,0.5541874132077711,4.650838745536864
0.07820851668794469,2.201230026524691,0.23958616255998746,0.13270318292724198,0.3210597230829868,0.406835627427443,0.4268014711081022,4.580548393510318
0.1136274047172602,2.183030507600781,0.263644790443335,0.13277084815286025,0.35322707981688806,0.448266043147012,0.5087881916527296,4.675033661619947
0.1281216114400605,2.1940482707184414,0.27660410249068756,0.17385869873924342,0.386737971641019,0.4761329009750801,0.5632524203936267,4.548437678996134
0.12680030908563994,2.228919302236741,0.2386102623803376,0.15325967385752423,0.3724871735944406,0.41718992467400384,0.506052293745203,4.764778019472686
0.0895207846026416,2.2719589337113666,0.23201150331890744,0.09667541579350927,0.28585975883230924,0.3666998990371048,0.43024997462714565,4.581335217397712
0.12522630997634848,2.1675106937253465,0.2839480173331035,0.16145708009865278,0.4133021422763417,0.48098942666659783,0.5543449408881912,4.762352093132376
0.11114147929391285,2.2684805132324843,0.25838028737372665,0.15777094546249568,0.38384517378285005,0.4348116039615755,0.4944103581198414,4.772452569761194
0.07868546434255241,2.2041912784604887,0.2366310255333379,0.1012847259619515,0.29031182783876475,0.36777227619575614,0.4303480376661016,4.752805011686681
0.09942092101815168,2.21404280118512,0.25731691593630335,0.13952741500332175,0.3704962375872869,0.4558164743780836,0.4995647410341043,4.8123994438365285
0.11763104551300041,2.2318050325981744,0.2505977429604872,0.13757745873702043,0.3815721962042728,0.4752780590936646,0.5549786825418224,4.713167357125364
0.07809778777320484,2.193562970845098,0.22369807508687953,0.11554429174655323,0.3250701819956895,0.41310919012803315,0.4531028936288623,4.75464937161567
0.0806586611408786,2.148585511424587,0.24173442325581782,0.07560232041695689,0.27797268786287105,0.3414953435958712,0.42703573743687795,4.466561118430878
0.10604107423516944,2.1997322429230657,0.24067825607434684,0.11416077232923927,0.41229309492561356,0.4981262487118958,0.5529320319653865,4.6531559859936555
0.09439827529655524,2.1944063971250976,0.23985068815125063,0.1271010833304993,0.3762549327365619,0.4446963138864659,0.499957099433541,4.77130743187785
0.07775574242855063,2.2380608552663426,0.21768236782761474,0.07874544236646369,0.29882800245957103,0.4125266045343746,0.43707505167765276,4.863320069651662
0.09597203184489937,2.2239823162578998,0.23237990176351633,0.10013336963169078,0.3916966540158606,0.4821893542309882,0.5232825352182511,4.902221259421884
0.10987377234305944,2.258390771643941,0.24079431907016277,0.1406323518325468,0.40361829482778244,0.4873906646185441,0.5592467972787298,4.726545678087789
0.0848534700788858,2.185780089875615,0.22213596839807648,0.12202391060879571,0.3453850811005376,0.3997796673319335,0.4821230773442075,4.831469238342371
0.09208967716520508,2.185272679337445,0.2015952328067607,0.07683647252927668,0.30409280296424956,0.41502664873752776,0.4193002363487358,4.620551297931907
0.12040016691813357,2.188174823662056,0.24858230389188316,0.13193550204315815,0.4437439553908343,0.4884916380183464,0.5478431656950477,4.705267560307241
0.08060996418008376,2.197691316027051,0.23055694418318157,0.12008553282626458,0.38009906266814836,0.4416086044734922,0.4911963862745438,4.87924005244808
0.07366394561574234,2.217523413403313,0.19081590236605922,0.08972153073280595,0.34742052634445075,0.36108217894124506,0.4122201061563536,4.697284412108437
0.0915100880391289,2.212546061617561,0.24518335787940254,0.11301688283460087,0.4189210372600926,0.4890509751595743,0.5655227513096245,4.615977544253948
0.0969821654902777,2.226650616302538,0.24574327760996587,0.1324186018197257,0.3617252209315721,0.44763325101698054,0.531409514853527,4.628408922418927
0.07072668586075691,2.2283497469514315,0.20760367593133125,0.1011265854996137,0.3340796528106035,0.4170383553965339,0.4401853912547123,4.730329624800091
0.0914257022635448,2.1280433788230724,0.20981852509541765,0.11689443233650859,0.37770506476783716,0.44724988417455724,0.492463909573766,4.639965016027075
0.10729246835780895,2.219277895260684,0.23853174583533104,0.14394156439116665,0.40479709054136415,0.5284691697173611,0.5575981821873042,4.5865395920291885
0.0969667557589931,2.1944274529187333,0.21660778289008,0.12938674010939272,0.3704943326323904,0.4424657673040861,0.5178986193118805,4.63953821008121
0.07624372973378414,2.231089733679047,0.18945302997708383,0.0794190165698357,0.33282587630304733,0.3739129443333039,0.4519729634156565,4.64893159010371
0.09665044705073378,2.19382653430007,0.2563587112728146,0.1375560494313822,0.4679551576018851,0.5759325490661824,0.572329639476471,4.676968909416955
0.10072428776641537,2.262001702402924,0.23179831129255574,0.1482639688559424,0.42143045293385045,0.4968191397338693,0.5521166524319097,4.67502617752395
0.07346124753231416,2.224544882244209,0.21814703908436295,0.0702896416493373,0.3780298219107086,0.39053265412221816,0.45007618481834805,4.620765227231959
0.09472716547983855,2.225799243004704,0.2469125565488015,0.14355686533709636,0.45640355318659165,0.5060095426945608,0.5109537247005763,4.697095330603576
0.10287783619971097,2.237214710762802,0.23214450181818713,0.13979089447454715,0.4280336896528523,0.5211904977844168,0.5644131105093932,4.674979842982742
0.0886496603093382,2.224162737685432,0.23357365146611295,0.1224685384441363,0.3606225618924306,0.4447286707037639,0.5216379551558057,4.526549130338638
0.07112167537564563,2.2915907687951043,0.22137705235602254,0.12284311708924313,0.3549100644745973,0.4466686520124344,0.46169123669723827,4.6346754152294904
0.11712255330353546,2.214724849481709,0.2502244269567184,0.14252360149568183,0.42118803128048643,0.5193672021887776,0.5265120639069937,4.805229298987063
0.09844382101691562,2.236846024449446,0.2468135043087424,0.14033448918913724,0.3839815617982544,0.3932526967928005,0.5174547162206942,4.528431264131065
0.08601637721573499,2.20528081574984,0.21737823921988253,0.11907882243757825,0.3177916359388366,0.38664464518369945,0.4176179877483286,4.760921421181173
0.0976231518459685,2.21077889840208,0.24489786167981667,0.15752720466593498,0.4398614273481011,0.4682871381994697,0.5442141896536349,4.886457300492326
0.08856701210382895,2.215212323459258,0.24721648541659247,0.13213268938725578,0.4088494953491022,0.48302593479178413,0.5071427851133493,4.739320493493135
0.09086579546943101,2.241257606417383,0.22849976388332038,0.12288331735991521,0.30696571530692707,0.39348764213650445,0.4564411132190008,4.7368236297258655
0.09371724354266808,2.195555963587015,0.25111858554833927,0.14686038516632705,0.3634706495215078,0.4667494756445971,0.4770346602446377,4.755415870979533
0.1070981511657917,2.254495597679543,0.27088107726427274,0.1491298280253662,0.45655227809985816,0.4867874664380756,0.5442621973320485,4.7396119022004495
0.07841452363231129,2.2162309731078955,0.26671616254125147,0.11062203499530489,0.3566576151310724,0.4400247460765649,0.5119178160368545,4.8158087749184215
0.08187186963669349,2.2273861485739372,0.22665219957201416,0.12428895864144959,0.3590599690738528,0.41024327557917073,0.4692428814421867,4.729131210477601
0.12114908820989835,2.242758976835911,0.25352885992058277,0.1729647170833043,0.49217527927487825,0.5255661202701554,0.5635153049700966,4.67579722048696
0.12098786816063553,2.228294497523566,0.22985158553547394,0.13263201752511727,0.4254842782545906,0.48879680987681495,0.5274724839627369,4.8226006372723065
0.08901097507307931,2.2344077102449043,0.2295535994182399,0.11256256064384242,0.33158272237428127,0.4391512044536048,0.4905790909773684,4.61309567901508
0.13053427904807174,2.2398590870084925,0.27286927495806307,0.14785688399855448,0.4355957457049191,0.5239683220220437,0.6016503310561094,4.773350774722961
0.11258690861937459,2.2331864772499874,0.26610909692093243,0.1375870484724243,0.43863487344447144,0.5528403335652043,0.5612411300490905,4.505931049576358
0.10655977567714105,2.24902097246987,0.23670263596571653,0.11785464383378799,0.4210445217112254,0.4639530589270974,0.45426763655930436,4.7774593631251925
0.11699537663710276,2.2451289468544737,0.24978928325479713,0.14573748484464644,0.40508678002492443,0.47335163974527295,0.5103050101284167,4.5899901496760105
0.1295650014843154,2.2124243975079607,0.27327507061132533,0.17474007627295304,0.46857336503602187,0.5315388827902396,0.5874373020890511,4.9684427549733545
0.11232015392368591,2.272811615863782,0.24245129326543627,0.13804254976566915,0.407702655102626,0.5046521541064549,0.5522938957294429,4.687535213220457
0.1035534270304356,2.1892909728980214,0.22072192698059423,0.11045326877140844,0.3581046877301315,0.4182505477312937,0.48103900186888426,4.675123356809744
0.13000315455845837,2.2322030471496745,0.2621735720108132,0.16039792198341124,0.4832343505783309,0.5340740773223435,0.5943167978541687,4.516579813986224
0.09776117949623532,2.185064807288394,0.262936272822483,0.14188235616131795,0.4085106689462428,0.5279150776714012,0.535382055772898,4.751548056886491
0.08647797633743172,2.1943603341940974,0.22650617464370496,0.11497425085967618,0.3626856206350609,0.4046342995555847,0.48136091175674905,4.676812357480237
0.11503782334316974,2.261310319421173,0.2640561646575028,0.12248372685090006,0.43876556716852144,0.4976285101230255,0.5207686447539825,4.803956107523469
0.11623600507601271,2.225253361292724,0.2345507918886943,0.14640256193351947,0.4645473906681374,0.5352563628413753,0.5689561178618368,4.634953152804939
0.10319611387339715,2.215928903546324,0.22055213292448708,0.10540632980815101,0.3949988757137934,0.4314967902151564,0.46352954959211423,4.655544492869478
0.09587114262179687,2.2038736459909183,0.20702540747833137,0.09419631645165663,0.37394295998440685,0.4465745570894372,0.49833686331300703,4.594655725905839
0.11358437057473136,2.2272250764494124,0.24321684970095636,0.1356149598039386,0.49365844373634304,0.555778831686037,0.6043520260453965,4.80357946228477
0.08647753043359564,2.3159069534394883,0.2398619373235813,0.10574691464370638,0.43704938800480597,0.46350643531123004,0.5340166352586803,4.719139164115186
0.07500047211971986,2.200521998006642,0.20116772936238428,0.05473484538062143,0.3598329916369346,0.3788879638107928,0.4160192207427652,4.871086138615586
0.09901292633955941,2.1696533001821323,0.21080881944892457,0.1265271707564113,0.47088062990786694,0.5553237243181701,0.5467528187317849,4.844228223836162
0.08258455354017329,2.2356078470825724,0.228072844117745,0.13464681477917823,0.48503657667553846,0.5147867416642723,0.5775784566337545,4.878183574529186
0.08699689593241688,2.208840358584238,0.19512576419209748,0.0882426437336854,0.3949244335162481,0.42945377474014534,0.4613986864627663,4.873552612088382
0.07380054784571685,2.2128400027743322,0.2053388637495996,0.0732594881920915,0.3982485193293856,0.42991547451040224,0.46530013879703525,4.762529772367623
0.08042996608765551,2.2680200846331355,0.22610404744327123,0.10423924131064874,0.4664088819809114,0.5288315873879148,0.5545039680500659,4.865609569910515
0.09281068947786408,2.1758447127056444,0.21347753432450567,0.0951715459160095,0.4222000893507691,0.46701732668143525,0.5062770845104365,4.8643348841971665
0.054384185532436125,2.218112100854113,0.1829347509786739,0.03884089288784119,0.31002918326521267,0.36948532277402535,0.414018455668966,4.660706919851704
0.07993083646226908,2.2222809554451723,0.23416183697608212,0.0906250303960125,0.45553816121305324,0.5137168969890926,0.5381427800146747,4.893897063046744
0.07384515996860251,2.214662324502087,0.2017733397659607,0.06144533388682523,0.4016745514255445,0.4731890223594436,0.48447376430829225,4.7962471407707445
0.06154917332823416,2.248497000868716,0.17367644002372573,0.040216068008061254,0.3475068549880834,0.386387558070341,0.38109960232519163,4.840902057767062
0.0656966140270307,2.1515002750956715,0.16094837033112352,0.0674217806531423,0.3605598438102264,0.47716923325157773,0.4737179299509771,4.72108940399319
0.07665781754499323,2.2545240583673825,0.18937852796871205,0.09511484202260384,0.4255890261516947,0.490651493430422,0.49786733569621944,4.841780857035626
0.07565046941239902,2.233262306077733,0.2023624183402237,0.07135696368671149,0.35193393670666,0.4236967196173712,0.4305739713953626,4.854047161214155
0.041179807027486304,2.199000169012194,0.1757464501268395,0.028850664598519316,0.3261145394425528,0.3402290900549443,0.36089651870434303,4.774092211237983
0.07584059285765937,2.2171638950844,0.2092839303744059,0.10143429226111016,0.4585053738863473,0.5040876128615268,0.4977284148957425,4.757129744425311
0.05561702129170749,2.195735261801268,0.22629901661032026,0.08045151649917216,0.3938949128236742,0.42727597893715,0.49908150634995163,4.658445111650957
0.02591484835047897,2.212999571947136,0.1568045135911539,0.06055639929289591,0.2741287851778792,0.3511880635998814,0.3799319004833806,4.8555985102266135
0.0646445063060719,2.197058126146928,0.21004993567153937,0.10382715506814705,0.35598966946206145,0.45338181545645906,0.45801958309038576,4.89666569196491
0.054524944441105186,2.2054329950418086,0.22144659538212227,0.11864212270725322,0.44507457051707117,0.48439273948195627,0.5190592532127328,4.755115679465608
0.048914703973804985,2.1983840381939452,0.17572349773237497,0.06994080234840659,0.3224345522117027,0.4293853389347889,0.4343912971188969,4.4070299457224715
0.014171832871560309,2.1973948978449247,0.13384947138841852,0.056971943883452156,0.2766257029251081,0.3114394317184511,0.3349630531735382,4.5722330637354185
0.057059831028418315,2.2600696964681832,0.18463920790253263,0.09369167538496465,0.42383212303346135,0.45763676187738567,0.5066274474443111,4.752037776597049
0.018440162719915762,2.266491655323915,0.1329528623061397,0.0538458054784408,0.31450607537247915,0.38968623395761137,0.40744386502528424,4.714728721082584
0.023718673310613267,2.2397467497736443,0.13117067154463885,0.0380340778126356,0.25930466460584706,0.26985519703151906,0.3168071825586568,4.677062889759601
0.03031510735646878,2.2749837336155596,0.138950668893885,0.05626606743079747,0.2741693144818158,0.3493437994408136,0.3872675111664389,4.635664173437537
0.05600954456325653,2.2233900703685476,0.18089591635288665,0.06978189807571948,0.3373840029206726,0.3911990578878839,0.40524477638729217,4.747862575008231
0.011688906534041869,2.219135900254094,0.15845256355789167,0.06135017101777696,0.2834903367748181,0.35908993134625317,0.3773477022317642,4.803802700958492
0.01329589702438647,2.1772617979072044,0.1018536556993343,0.024879246115644363,0.18960740209434368,0.29196734067280306,0.2815240332591503,4.603959382311629
0.046460282360869395,2.1549891426349617,0.17064305004020458,0.07627072261349369,0.36178485888842765,0.41725021361520154,0.4458781871616928,4.646661782925419
0.044379680088928286,2.2770820434521433,0.15401561135980843,0.04492874544903369,0.29306235110607537,0.3552205837009933,0.34731072523226647,4.603197088425993
0.016942194833155892,2.24640602296808,0.12058216444231379,0.01214669661168194,0.18383742685739815,0.22970036380516246,0.261595070849533,4.773349607531971
0.03583267099281377,2.2561384026808833,0.14130223120760438,0.054600033921324474,0.26146191384260387,0.31814144045443,0.35892225188164356,4.696065165554325
0.03113688086103248,2.207515917376652,0.1362133075685752,0.023774262080478253,0.3020461248955979,0.367775544150884,0.4133427045073465,4.761341336265055
0.035714318350959874,2.1896082459670505,0.14070652040190706,0.02007657344964263,0.1865869200190661,0.2727716209440153,0.30335900849392483,4.5280057636396425
0.018491447386643187,2.231802832089135,0.11766972874797196,0.001817157352967752,0.15599836407245646,0.21489251134214848,0.24695236900874762,4.69554334635333
0.05838257496629671,2.226170879162691,0.14923654374084408,0.04526797604376204,0.31820625239810296,0.3839989242323244,0.3960063920203317,4.658728843150209
0.037631481904435236,2.211323040002081,0.14744242319164752,0.03451561385000089,0.23771275456643187,0.30339393029246475,0.3576403267226325,4.846154591189821
-0.002590860972734303,2.1703300307790006,0.10619533098485817,-0.026302500123181943,0.14934518262015206,0.18806675697314162,0.22353729948316708,4.754020994685302
0.03054840988771535,2.1834899388539597,0.13864940913032536,0.013323486776585333,0.21778646404820282,0.3007369601976553,0.3566217964580656,4.711423212927641
0.02996259588277224,2.186979916318256,0.15312848844304333,0.01928058298034334,0.28265575940386717,0.36049830481881107,0.36995284936923434,4.523630000225218
0.02003205727860643,2.2233522042009444,0.12619447406864012,-0.004535256363658688,0.18438239501130832,0.28229708506607376,0.28286312823039894,4.7840969221862455
-0.00882490271815626,2.199186641818846,0.10814722893021755,-0.02017731624825647,0.13969034765195062,0.19159042739089627,0.24424140262478308,4.515274815748556
0.04760401032623397,2.162903273159885,0.12416436345511928,0.03643719038972147,0.23903923531395432,0.3407246082489682,0.3592036458497168,4.777085161744041
0.010005897947861782,2.210518001900709,0.11591771936064393,-0.01827333865106684,0.21771167765251276,0.2472790137328614,0.3046225252239975,4.6747637218511295
-0.011565617767177853,2.1955242872052296,0.09850970868454478,-0.06736758460907005,0.11032720048275918,0.2294017726219308,0.18737350543122053,4.589600177829757
0.012516889781088614,2.270986759152428,0.11791802024193754,0.009759165300450831,0.21869228196462548,0.29980848616916217,0.3377529588131522,4.800163249275329
0.019827271488367722,2.2107254434890713,0.11273851063607682,-0.0069441761376638905,0.24043806331594816,0.26184440922224705,0.3661061839897003,4.889642231156095
-0.008033520754625649,2.222670767786031,0.10241641568459608,-0.03462019709833024,0.11962044024511909,0.24762486319851212,0.22731088396924226,4.77944267835749
-0.02024291007580787,2.2050303423831163,0.11183195670018486,-0.03994729583231671,0.15625137169786354,0.26014352555056847,0.23612806499313427,4.704665744753398
0.009857058435604416,2.1827542947972316,0.13014473661601494,0.008495774902174597,0.22203333084226387,0.32476475309930436,0.3317363885106951,4.754461606367294
-0.0063594073826627115,2.274355543123721,0.10179976584979011,-0.019084091573434145,0.20205964280328684,0.2818079278910474,0.27793998521239993,4.693387524501455
-0.021886323423380292,2.2676207179268224,0.07061398890096243,-0.030938046633303476,0.13495481297058773,0.17979055129882565,0.20952983833018773,4.866205465038053
0.013167091413054471,2.1806597437708364,0.12264650806499133,0.02141960123084166,0.2823337748907594,0.36227223163759303,0.4234496853218305,4.767494595603135
-0.0028505209201943604,2.199308707628016,0.11720197322138642,0.007504905628557143,0.22125626176867144,0.25805159290702895,0.2955885448374448,4.600781495672798
-0.011463029395172485,2.1763974598092286,0.07703995234898581,-0.036718733402859735,0.12483930367673943,0.20075136928497211,0.18568376922655289,4.673422150396113
-0.005051957698275988,2.2217678877868665,0.08493419457235629,-0.015357856105314163,0.22146622015895856,0.2718935826618126,0.32726384864329844,4.66873915475106
0.004137775445907654,2.2111126880422844,0.14900585465210964,0.01866204523280579,0.26262072894274285,0.34164737997112116,0.3568352386849409,4.626589160098582
-0.01734121144402491,2.2200541150645945,0.0845990672190094,-0.0338581116049234,0.17700603087718758,0.23837381547757394,0.2827968794483185,4.773352169002535
-0.01821542151586068,2.196767784110578,0.06995711339571364,-0.05792518519114226,0.13163559606368677,0.18260419359373958,0.1998739656119185,4.626557471486116
0.018157237189950902,2.212360908380389,0.11384741637774981,0.008115968307250018,0.22333387478990402,0.29667917760846607,0.3344951257493932,4.718285147431402
-0.014435549354322497,2.1493436342440457,0.09834895819624478,-0.03030376515146191,0.18796672972482653,0.2233035245503165,0.2839589570457927,4.857972533229274
-0.019387641851542292,2.1738869826968372,0.08270295863054217,-0.0480113828188895,0.11538430617158751,0.17118927615483606,0.2252198247300609,4.767149999703857
-0.0013093841502576503,2.2380830338303017,0.1303003661869339,-0.018860257676556302,0.19559699572266967,0.25229996765685586,0.2261032511716961,4.7830097519346735
-0.003983792213412378,2.247479719395172,0.10208542308147911,-0.011206726369179743,0.1738079196767127,0.25057778547107595,0.28594843231566425,4.920763467747153
-0.026551579619110928,2.2623233474959514,0.07271847704148587,-0.034212871263011854,0.14873805991926076,0.19575605506443072,0.235626604209796,4.570836744783408
-0.03445507123701981,2.1981135560704845,0.06582181525129238,-0.06349084540228273,0.09005118925577771,0.16592152771412322,0.18261526501030004,4.681398721157116
0.0064543002036016525,2.202603748142143,0.11893798589021448,-0.015851981574349472,0.2287075692938382,0.2889337209647433,0.2974549334349134,4.725960819538889
-0.007375732067784371,2.237310379512338,0.11229160349180245,-0.009519307329796278,0.17956626002815343,0.22245489812304967,0.2580878516556713,4.754040114225714
-0.013775908751811925,2.205206232423901,0.09458942545159643,-0.04026090003667705,0.11498968914187604,0.1680665566774706,0.17552585016364783,4.463512031695386
0.012758035912805929,2.2092351644121955,0.10664364349317068,0.006100052498491923,0.2897071400785151,0.32652783991936396,0.3327751454445065,4.8013170984091875
0.009892746584380038,2.220352329695903,0.10499587236290564,0.0029912779512945575,0.22382102197639736,0.27199255514033804,0.2732748979184084,4.691160897113884
0.0027728619699852117,2.1557784127135964,0.10852623126875777,-0.03355584658587378,0.16684857906715325,0.21638038052100125,0.2706523268307703,4.667070381508015
0.005975364955498046,2.234063701717274,0.09672634492927829,-0.009755396651321302,0.15376350938834618,0.2464329563783335,0.24762057181026145,4.6302358004283235
0.019777215682407548,2.248896007104368,0.13905323462426739,0.032090111729932785,0.2507096399971391,0.27314244456926606,0.3194264608552245,4.820129109696885
0.019834785091695662,2.2769963238091666,0.13517709816086146,-0.0019638667060098425,0.1722816484569145,0.21601176631149577,0.30056730231161455,4.911654415478239
1.0335929951203401E-4,2.2074929354242405,0.08398583265528858,-0.011110383098525356,0.09127411458375649,0.16933574690981032,0.17576184993480728,4.5693842327312995
0.029273426040870285,2.204148824378447,0.14286915289240687,0.03703196832375917,0.205296817300053,0.31728826014236144,0.3364690057948209,4.841317987591488
0.023881498121726005,2.275457612921991,0.13780424032067284,0.03007242470057145,0.1749704817250797,0.2274353000293423,0.2828743847427032,4.799110286353291
0.0014119611287881674,2.2273631260408826,0.08561156915442486,-0.029696077655434028,0.06455946795842143,0.19352746749616173,0.21481149395345692,4.641655342713193
0.03691159604637928,2.2167692045608716,0.14373221576717293,0.009168172006331049,0.19117246930636092,0.26245000058896023,0.31759887336435294,4.582497385340599
0.0028561307759332397,2.1512528219497393,0.12779927540814373,0.01447321006899964,0.1809063060508581,0.3035560348358203,0.3393943921822263,4.563181845223474
0.012266862298325541,2.1882369584655033,0.046711924230439184,-0.02288094206036395,0.13175921545515745,0.2135861994190562,0.21538477420228788,4.521359585618854
0.005908691986223742,2.2299726623317375,0.08963945189870515,-0.03241601604883193,0.14671285073267734,0.21608748499194616,0.24844912044430145,4.726181548653186
0.03856932398199196,2.2425361854002577,0.11553554652805231,0.02370050197404605,0.23530694915247108,0.26627486452211224,0.3520114274223352,4.6139923880301
0.022552914772098,2.2313024647285844,0.11499766623651864,-0.013955562477387273,0.17365575053373997,0.24609496622350535,0.26779509197815354,4.718987297267204
-0.00340954340656497,2.2647171192107773,0.09178956196362109,-0.04703181939252675,0.10657304575290474,0.17338089706563764,0.20670896450429,4.687596175614685
0.035106385467507877,2.193819774923689,0.14503326710189426,0.005143433141658188,0.25858637555094216,0.3119367282599143,0.36776427785611715,4.7756570183954885
0.05557776836822367,2.2232877828719633,0.12047141860103772,0.010102261364478018,0.18947506435291014,0.2586644578219669,0.2900522514919435,4.747185522598986
0.009796269480050093,2.257012428130555,0.09141126568123997,-0.02615611188889652,0.11649293380138953,0.1702109693988843,0.21738220942827569,4.70741040112775
0.05060088071268702,2.225890530983781,0.13680026697392506,0.0020974253266386744,0.1941552398182383,0.2579205836622523,0.2743346793207173,4.818472225386422
0.051834700357706716,2.2467179129331156,0.14427308079261428,0.025986544147460017,0.20637791526257465,0.2914497451729565,0.3237278755650115,4.979983922875382
0.029674133315186948,2.242348676857422,0.12546660916073538,8.357326232943385E-4,0.16233420002514967,0.24394624292225875,0.27395734666029564,4.85981131783429
0.010915128991984636,2.2501288720452566,0.09432440410355503,-0.019074859548606854,0.0998537187783395,0.17966601745520389,0.21101755908604433,4.678808534325137
0.05899481653708675,2.2628507345398363,0.1397829999372613,0.01701008670644652,0.23449569073981094,0.28577321119890303,0.3263925724561691,4.869411971157449
0.0399384316608466,2.2245854952959587,0.13469010027953798,0.0033462794802895657,0.17540502464346805,0.2261660172465807,0.2588613285194889,4.751838457786882
0.020336191596493795,2.1617023171368626,0.1115837509672038,-0.04046266447486699,0.10689192300504136,0.14719816139768221,0.19035766692842865,4.633370652549021
0.042755858673225636,2.212341304432207,0.10575056447639436,-0.0029112514104842613,0.17933856758525935,0.24167556360870673,0.2653436402765962,4.833014825569986
0.04362205359099045,2.2099645034477122,0.132540463345394,-0.010654351468701972,0.16707678525167785,0.23065454650198125,0.23758170083385308,4.8415741529624015
0.004443464932955034,2.257879004148366,0.12845538542188933,-0.04423505725771537,0.11049776410850592,0.17515480952804696,0.1929135727082173,4.805554630744471
0.015028952378195796,2.301250609847285,0.10299918841411154,-0.03471640676664557,0.06964781966881466,0.10506755628631353,0.17909728110318723,4.7067142613343576
0.0410754588352296,2.1915538940108577,0.12707278289798146,-0.011478862606342843,0.1669402862556869,0.23869176213408405,0.26485299822778974,4.75828945626417
0.03711745807835686,2.212987137769201,0.1079900882373952,-0.028727314601618453,0.1517455393137404,0.19159678637172853,0.20289987420717323,4.762201100992757
1.5668722937542748E-4,2.261766280992846,0.0794837807918985,-0.05940738950758845,0.023102566832823544,0.11646303652296108,0.10556504515646128,4.7987020520430415
0.03242353167552613,2.2860639063760506,0.13099019996322825,-0.02203332351735801,0.1695159604710431,0.19187783512290027,0.2576674933070502,4.72213147271845
0.024553850983117114,2.2207405619862803,0.12732306511575603,-0.03900654971611239,0.15671457343869308,0.20572148830844122,0.25546112691208167,4.596208993980036
0.018039029552100856,2.194941335882827,0.07880656350648035,-0.05866422162062396,0.07138082457551752,0.11271046605484492,0.1446205640221966,4.74955387846061
2.658070427156885E-4,2.2154573520553686,0.1176417541818377,-0.04781708329444692,0.07854863286641128,0.11651446031812096,0.17417948056386368,4.668899039582096
0.0475913127562928,2.1974873915109043,0.14856148789097023,-0.005113348378818328,0.1671364805119672,0.2522005235674736,0.2691363859306814,4.814527437059297
0.005609991947958373,2.2013398456567517,0.13057484630676974,-0.011541758309265931,0.15502034825075872,0.19251605245216064,0.19756368742860847,4.813574541573395
0.004763554657707957,2.180327228023873,0.10750673199544142,-0.05499564337232182,0.0234887416975642,0.0907827226119503,0.13372314215529083,4.711479825572068
0.0405347292955512,2.257188088924886,0.13664365213513235,-4.8403871812915944E-4,0.1830403156075396,0.26340493618064537,0.27995490490858493,4.727685860102227
0.039916363323132226,2.20483108999234,0.1302563807518753,-0.008694713170620899,0.13510787061254662,0.23151478160307315,0.22230505143083903,4.911613131371844
0.004607443449292658,2.2298219876297747,0.10694301462567357,-0.03792262183667516,0.08469711202491052,0.14779039944936842,0.20547660161718437,4.711537616425078
0.024386326601399336,2.291551100390877,0.10787765448239894,-0.02136460709595328,0.08424113575930636,0.15288407708903598,0.17181640166267337,4.8776691037418995
0.04267805815341489,2.2225506191980955,0.15896965939395577,0.012377491077012276,0.1724455425208626,0.26963273063251597,0.3101846582239867,4.6298958550290354
0.044124496630636334,2.189303964601141,0.13396733960012136,0.0029203894389891183,0.13774349082289783,0.18975271719659303,0.20732711514777852,4.770639425331444
0.016823377951034103,2.244668672853229,0.11653158019343102,-0.033798759639566106,0.03980347776518968,0.08516459653510944,0.11784120704951911,4.503288661215607
0.06063970054034003,2.2537732776489334,0.15619987664459928,-0.009417980676533239,0.16104279948829875,0.25208064618345133,0.2579039145297811,4.868996710739807
0.06055316922756163,2.275825805912431,0.14762407337542455,0.003993692099515306,0.1484369922053904,0.1946956119840963,0.26926777276031055,4.7273603946496205
0.047052401003858976,2.2059800551668767,0.12498682908137315,-0.02419659127591639,0.13436361964159285,0.12477674150494447,0.2136416989134743,4.760236662147813
0.043817743234924295,2.215847562499225,0.09595147191606512,-0.05478395109605949,0.03217627306878324,0.12942938434287732,0.12262427200043408,4.681798220895017
0.050479379839932864,2.2063830216032256,0.1702197886433742,0.004066717725277058,0.17736521569803793,0.25840221725233825,0.20558423741886664,4.755245140327531
0.0584427968240306,2.1997909949990406,0.15456878033639465,-0.004568901393996017,0.1417866512191406,0.16055956729726611,0.23317424306455148,4.585806871447544
0.030448018484510245,2.2221856766965087,0.12847453860173003,-0.04981558957678933,0.051985532941176416,0.07621560017536616,0.12851127397056736,4.738913195455931
0.05303133200292798,2.2068328833564625,0.1423523076731232,-0.024377781051243885,0.07974176043648795,0.16635412702425745,0.2125011467943189,4.79602647437149
0.04909397855317878,2.247245998212292,0.1327762459601775,-0.027397072050782928,0.10030080347393587,0.1655914506963374,0.19782032685541764,4.666141761114191
0.03515179679398461,2.237575014774035,0.13188321137153186,-0.04339501496685988,0.060099656035471315,0.11714939745767108,0.1689073921283641,4.768003169017949
0.0199366827092439,2.2410487723028925,0.08670757882965313,-0.05145629799756937,0.030767727384908294,0.11278729156185395,0.08786997212355313,4.684034904518096
0.06530539080022471,2.236794246912937,0.14091503460799804,-0.005655361956803467,0.17665699612989624,0.1787186875832789,0.23686034935057187,4.741459522050204
0.04309105856864323,2.2612556579285457,0.1502784503804979,-0.029095489384935308,0.11872491995277162,0.1434731882768135,0.18746633744799882,4.8112141193936955
0.03363849592612221,2.191470294995803,0.12146137942622415,-0.04869279369586435,0.02861368175955263,0.05484395302712937,0.11526760507624917,4.617040573689152
0.08599965038744575,2.2083997217549296,0.15809282255497864,0.001801210382776447,0.13559080215285052,0.21087885261894357,0.22989332691801645,4.8199664293618225
0.06891341917172593,2.278349855905609,0.15525168738053516,0.010762955462057217,0.17589953166713893,0.2138188513587965,0.22425853112193986,4.649177439314906
0.05325719848690441,2.2473229227543676,0.12936846673990315,-0.02442591263472968,0.09664257513602137,0.14145322390999646,0.20285985979056853,4.805886974501976
0.053390148797428975,2.3078565025035047,0.1094407574471502,-0.021503196965707738,0.04506382750067871,0.15574967988577282,0.18932029809516343,4.704645822074045
0.08700415760495,2.2068642886427874,0.19267233782933518,0.03845438940911647,0.19655165253731338,0.29412168700534624,0.34654902816410704,4.7212305952844105
0.09545424235445545,2.2628349445699576,0.16518691074662933,0.02127193655251211,0.20600949366015261,0.20969142794597598,0.29435546586132066,4.784333126615012
0.06964681285764353,2.267535320102861,0.1438741471196133,-0.017780071680161685,0.09043354798430507,0.19259076912354928,0.23323931867438377,4.804521340675604
0.11053249619805239,2.216034750074382,0.17333806047836633,0.040662835345622164,0.2053585702255527,0.2668892293166505,0.30884746895580045,4.734107100199184
0.10407231559981121,2.2616859204427353,0.19192449031769984,0.043885777992561936,0.21317670687488896,0.3159015839238306,0.30748417146501583,4.750287448972772
0.0885214205979667,2.294989310510239,0.18073062968043027,0.029868921674963314,0.16686566893257873,0.20822489948448164,0.2538687520611288,4.6984114975362
0.07136673399674916,2.182499942351487,0.14028044627434139,0.0015191649136378493,0.09676511837577931,0.1926871743198192,0.19954784184601762,4.90623549427975
0.12368386467680513,2.2715104743168215,0.23608484851637895,0.08534555624571773,0.21534247822122005,0.329013212007642,0.3354147601069694,4.787266352879826
0.11288525257403122,2.308511909376144,0.2231193337330654,0.04396787545553514,0.21285475092836242,0.2800253746758663,0.2968787998058452,5.015510643344706
0.07593092369761736,2.278099577002898,0.19520091131501055,0.023273635061952763,0.10214094458230083,0.1788961330265002,0.21313417502943652,4.676324281361138
0.12595728296303224,2.2900546435222426,0.19240669687292772,0.06449168456067532,0.19713301831316307,0.2490669465186145,0.3164825660578017,4.803980098136513
0.11928001117833187,2.2670658934571257,0.2147068574939638,0.05621343900323934,0.2102563235592233,0.29530811904108056,0.3076485033036863,4.79941216081947
0.11644121631060493,2.199943521113554,0.20568915680485758,0.03543266848366056,0.15135837176799782,0.26248278152858456,0.252159999355771,4.941656531704837
0.1029140782812961,2.228380574689461,0.19461526457807563,0.011936621442347445,0.0920457827821705,0.20313957572141617,0.19628767075097991,4.744367939471072
0.12881525373291716,2.227189296528922,0.2394667924958182,0.0722927219562235,0.23187433309907027,0.32789038164605133,0.3490049960618234,4.868527335016094
0.13199255456852954,2.301103588115642,0.23204554440674235,0.048345294468691555,0.21167793886189218,0.262968237054804,0.28136292927843165,4.786506078449781
0.11141022788502472,2.257949269695407,0.18393515615612574,0.036652445882083315,0.10015710364043535,0.18650869353626975,0.2052262340714449,4.851228884183303
0.12024027991024507,2.2940655950186692,0.22058827360156769,0.07418296540492691,0.1711564168699493,0.2736468081573938,0.28910667857880273,4.839942137849389
0.1337927313894499,2.230535837726266,0.2253456604031723,0.07478688821977338,0.23551153588513435,0.3144620726930392,0.37153741336361185,4.811129936963837
0.1305047337434826,2.2541426838833463,0.23879085292213872,0.05348289757762348,0.19487162762559304,0.2542363645036174,0.3033231579269828,4.958118261796573
0.09237577489667834,2.2996787213005074,0.20635623147951618,0.030350591644307146,0.12464953201836007,0.17122341554061846,0.2282463076524384,4.786460260813781
0.15028094776284226,2.21054536980466,0.2431516539941484,0.09668613114838495,0.26932419029879656,0.3746570958190176,0.3998579899513317,4.989157931909132
0.13828494950090758,2.2803717764934044,0.234735302714996,0.0928643521589115,0.2380552689871092,0.31621440590635114,0.3631165380442134,4.859465966225033
0.13238863238008375,2.27983914608455,0.19350706156524947,0.05093746352774191,0.14233036513175115,0.25330115648222884,0.2568339691936782,4.8251230266377165
0.11417775063993471,2.293445697745547,0.21942525303997595,0.05706224144767878,0.17345918647154873,0.28922564128236583,0.33031227695225246,4.757781908178968
0.1437418494317383,2.274841814699913,0.23780861496597194,0.08505924314135742,0.2675665369872045,0.3745141974400972,0.42092345992630653,4.695035900321905
0.14467422342460637,2.2823041310215744,0.2262354231796159,0.05063852279777985,0.2108720621339263,0.3199483133094049,0.3340072485640052,4.679770295401199
0.09758230185187033,2.2222132785342628,0.18447049226088627,0.04708887351788417,0.10771882971654904,0.19999543213934592,0.23420747776015383,4.8385190760581995
0.1308244449538942,2.263903571039708,0.2534283790296323,0.08709611805676924,0.25267849735896847,0.3139834763962083,0.4213950475017275,4.888338655118856
0.1469713285056706,2.2366772931325736,0.2452307426071234,0.08117252864962542,0.23507478160397616,0.34999645298930293,0.38160426549032833,4.919991802327028
0.1254861654860574,2.3104309270299996,0.23568121546717466,0.0675638849876683,0.20591747979943928,0.2969731309862196,0.33843511174407054,4.91819893088264
0.10215038183280525,2.2486722379716193,0.21542061218932734,0.026709158975793262,0.10843573442529927,0.24900799168127524,0.2968498256077724,4.805738694611653
0.15042968775447405,2.2692294295871824,0.26688165353956916,0.07824417979098847,0.2670740099813968,0.35501196354350684,0.4134700918533707,4.627337586237742
0.1097595628453327,2.258909963876984,0.24712774320600825,0.08216231124823542,0.2189992629807591,0.31327046169347195,0.38338725904433496,4.930832248656808
0.12092774759916636,2.3170846113202757,0.21937957080318,0.026667412961106307,0.18342517731286376,0.22802752406850296,0.26316406802057035,4.85706273616501
0.13062761619050445,2.294975568603342,0.2365843760463729,0.06568949480048027,0.19506855192119113,0.29797315148881265,0.33326897801408295,4.686210486191296
0.12194372428691055,2.2365157721726217,0.24840373924219566,0.10563866709178016,0.27147449635675347,0.38863265416189385,0.4107718328566368,4.944758307880628
0.12266365407918488,2.2435047268118073,0.2312932175187675,0.09252899285925381,0.2186598700659674,0.3153491006894852,0.33046871216130236,4.741640658373724
0.11782190768539234,2.249185450272436,0.19987582634564527,0.0379305497710464,0.11636808123778578,0.23879215347431,0.26839664154492954,4.941955821382478
0.138688963261191,2.2830863131487114,0.2579770768345724,0.11190931303651441,0.2733450148416787,0.40835650741081175,0.4167295317108534,4.7709466012444635
0.12024971706241594,2.2649615150031654,0.2557607557085848,0.09343944729882732,0.26923546396811154,0.3681746736668111,0.4553587716330563,4.790031538372324
0.11479173639132861,2.2655427504937644,0.2216323668184919,0.06505029433458762,0.17383377888041077,0.27812224705303873,0.35829508518092995,4.9220325245266245
0.11094786999428395,2.288210741332709,0.2223400439062315,0.07452387198036763,0.197008533515622,0.2981967593356408,0.3455411096172504,4.614539027665605
0.15731509402259866,2.3036357994278593,0.2570763590673516,0.12677653098257083,0.2788976532691085,0.41600620676802313,0.47281051054189815,4.83321036757173
0.12838577691953865,2.274775395445309,0.24215098658079787,0.11091125307404529,0.24712909644489375,0.37280903197473125,0.39832613340124584,4.87509394938457
0.13744189701253762,2.2861527607568823,0.21487579668560372,0.06096767568373572,0.1416125380490052,0.27436364703715377,0.3191426301145963,5.023544730685024
0.12465348801191882,2.334092560187209,0.22993709507543822,0.09124978718721379,0.22863866302071412,0.28072279492668906,0.361310369535003,4.979541909646691
0.15622201696926738,2.2671306504550084,0.27803155848926747,0.1058966076001869,0.2549089781032358,0.4126367839420647,0.4255802300831494,4.741509569374568
0.13171875394422866,2.297928317301594,0.23515910535929557,0.06970963521244447,0.23016781080050658,0.33674699190451557,0.3895476001346878,4.927348013641454
0.1165965144205681,2.2930341928609472,0.2171762249823212,0.053853720461138926,0.10618633250751389,0.24621444470882753,0.32074692592132675,4.846309613095539
0.15584233360766442,2.298207416725971,0.2646989054937222,0.13421828213752798,0.25930040018652595,0.3759636989281161,0.4107196592279546,4.923753810003086
0.1444786832870705,2.238567716239409,0.25705981651401233,0.10637635153375517,0.2259560222938156,0.3471116793511592,0.3993973433907779,5.002008682124622
0.12468927667242785,2.2569257772259985,0.23816787739359271,0.08943700157910045,0.190597018727614,0.29062192684150234,0.3425103627199114,4.957941411191728
0.11434215575523228,2.2906058310644153,0.22287257900578347,0.050252281072012045,0.18080842538393824,0.2971628134668755,0.34950257250138883,4.858217417891227
0.15830172758716984,2.23717629413791,0.28294464708908795,0.12912808769872347,0.27788662982764856,0.4163288635263944,0.42545602926339193,4.8232048289947596
0.14569695657600362,2.2876360752976392,0.2579747076527064,0.08688870168391678,0.23777628889647678,0.33815919300757713,0.4079257578844743,5.023409165209811
0.12675286674631245,2.256379107741115,0.2204973453637595,0.06496554848719692,0.17768050458139903,0.2780362028027866,0.31092241821508787,4.925408218394743
0.1568696780754488,2.356092736588156,0.2731120968907444,0.13258826792520684,0.2533497312872519,0.33922151241075393,0.44914998878601475,4.9671861716259285
0.165732295203938,2.2754284533478653,0.277020912926595,0.13219368872864382,0.3396559050499897,0.4252117894905198,0.46258221919402537,4.968971071818863
0.14285018516825662,2.28073366037198,0.26774435054661155,0.10458571328891428,0.2556726235398943,0.3871396993538979,0.39701798069991423,4.8381807398883945
0.12446324932274658,2.3073451532178986,0.26340157490111704,0.09846967825640755,0.17328589020597507,0.30990645138030415,0.31208947167667295,4.8266139957744585
0.1766433317293594,2.2845436994980024,0.30680955343690663,0.15314594647721308,0.3327698589835702,0.4301347176656542,0.5236487550329492,5.066307894445838
0.18639720913840208,2.258076022454445,0.2957055141672416,0.1437392145858505,0.33076430348219543,0.4176072469567803,0.4699697908416757,4.856467449087593
0.1776429655164288,2.280584961518681,0.2839312834158538,0.12453101734521081,0.2750492452418154,0.35307119161782574,0.397189754222588,4.906652677640157
0.1516115109872098,2.2694028976083453,0.28530935932448553,0.11674437023532491,0.22046555682975844,0.3422789776662569,0.36367872661873407,4.876451585468613
0.19184975637197976,2.306792177040249,0.3377260452873842,0.18802927191721552,0.33953643136977457,0.4857014444704876,0.5170712652113688,5.028129922707368
0.1800176509727189,2.258233111336763,0.34773346615808876,0.18465626268508184,0.31972654646302306,0.4561603454163251,0.4668541948363196,4.950475081198944
0.15987943726636036,2.280195079863348,0.3071956335453309,0.1406896189094216,0.2620779284112316,0.3508158250688249,0.4049230978075485,4.702511921421406
0.18245917295949363,2.3096633067216756,0.3179499200357817,0.14346415776453275,0.2734252748457881,0.43225703028708373,0.42519471784238827,4.942679909089121
0.18485393634726094,2.2923433685786496,0.35439558192456877,0.17934906763968267,0.35890143472516667,0.47573754137092716,0.48684399339816653,4.963778690142624
0.18226229432358132,2.256009771303455,0.331603835373216,0.15257757994973392,0.32221808817624553,0.47076651788709756,0.42555952756751947,4.931925272105335
0.16114798251295145,2.3019599489865947,0.3120597068794915,0.14532873068527852,0.1955506970070735,0.3446423210502114,0.3600947995257987,4.773998799393855
0.17603381548335778,2.2854974489226936,0.3612980118570954,0.16056860266649514,0.32348258626624626,0.46316550265680834,0.45168358952581766,4.874425739781197
0.18388965652629177,2.237677644299567,0.34076524503698835,0.19368477115925375,0.3139287825404231,0.4333628509418999,0.4687219615684136,4.94454141734385
0.1707045587631023,2.2930885031841433,0.342804020614407,0.16173001515967064,0.2658767082339684,0.3900623865575776,0.4059593540371434,4.787008948689071
0.15223852545648103,2.2977139494145646,0.3140237533438924,0.1365157476495047,0.2403966365953148,0.2925114544602412,0.3311523998568515,4.893529481039028
0.18849581132237284,2.2773165215550453,0.3608568901353566,0.17859623719743686,0.3578847195187124,0.49269080562542505,0.515196615930599,4.929500638199488
0.1781842866895641,2.3374325339112536,0.35594454649558066,0.18439852444406926,0.3286917372488672,0.4438699323383697,0.510373625374342,4.900459042939023
0.15287326158646358,2.272876765838813,0.34052515648720943,0.17444534544138696,0.23104362477230464,0.35854436065057194,0.3919240311793983,4.876352211517649
0.16795337139045097,2.298620411423615,0.331760198074543,0.15404633873692422,0.27030538053805053,0.38639735434546896,0.4424818297700348,4.826289506144869
0.20045967355775396,2.2749378285265562,0.35966325340278305,0.19401308372186313,0.3386180328881795,0.5253158912343234,0.5129500102494181,4.925603429237873
0.19139091599737285,2.2647483773692145,0.34002842530409083,0.20667121534222332,0.29801286495884505,0.4690385474475621,0.4863865615516897,4.984089016312951
0.1512213912427071,2.1970031479149412,0.3065562384835987,0.13781958163630087,0.20771260384354107,0.3648812477862626,0.46294081776625773,4.983286612687735
0.17842917070540928,2.2967053268843993,0.359605373862049,0.19056241198477358,0.32990169591043933,0.4756815968124594,0.5041014867167202,4.8992283939525105
0.19734521951006634,2.3204813384279865,0.3786770026205289,0.2184605544418961,0.3390414439948002,0.5325091233175576,0.5406683055607738,4.994672132612035
0.18582333904210485,2.3144705932826044,0.33964476499229185,0.18435197588339397,0.2888416268163705,0.47293943129391597,0.5208737979203937,4.881336438601945
0.16592822856708878,2.2774692028113837,0.3289016150775413,0.1308703969877166,0.19097474810978302,0.345469493761008,0.35935825860663795,4.87293626563407
0.19875369587200775,2.2454338027543796,0.363563702809785,0.2213261118620403,0.31030997987718334,0.46823850296037206,0.5424980873708452,4.924283865661123
0.19174424319218702,2.296183009160667,0.3500795301191193,0.2299156554152586,0.3380515391300029,0.45658479665483065,0.5408981503991217,4.919657852308178
0.16095460175661486,2.3126338757275153,0.29927259374770554,0.18137225565862636,0.2718525113345873,0.3746959977958403,0.42908931340588774,4.929947919494131
0.1253203050494463,2.315246891256206,0.30660570982904695,0.14703761449129524,0.1722911634215426,0.3538127943055437,0.4014533741400874,4.781282148213554
0.18251940683685464,2.291306788824822,0.3376588987768588,0.1905807672742316,0.32595552647654,0.4878738895494728,0.5259841191058843,4.82669741011213
0.16045056923887163,2.274387254774342,0.3323350417207229,0.19944559950149393,0.2798027568888324,0.445428159602589,0.4799367828009013,4.809363385704991
0.16435145633021786,2.258936424937791,0.30116997750040675,0.16743972616971406,0.23526843329545252,0.38272454792112504,0.43276573831128085,4.78856819788295
0.16609392437811407,2.283843790074606,0.323224418107464,0.14970356501996646,0.19565830487160196,0.35298098048150395,0.38850909809441536,4.9072738290217055
0.18248690359722222,2.309524541900802,0.34287569428937303,0.18678361300584462,0.34007754199279167,0.48561300215607006,0.5518320346937602,4.943556417234334
0.17112398385495767,2.324480708235909,0.32939057114668924,0.1802415511777949,0.31156495399205203,0.40912347086816014,0.4598784211709953,4.832725401358855
0.1466512121266862,2.240407643495647,0.29830335432661137,0.1287914629203837,0.19665871262349224,0.2972782565571762,0.34281617898725525,4.808905427874228
0.17325030301363886,2.2986516947837847,0.3270030205754281,0.17148411393331683,0.264369443468906,0.3699819847049704,0.4435369144482411,4.858740107151165
0.1934244889900691,2.344583763240066,0.365609464422794,0.18248012530863253,0.3377384680013567,0.4084694973651236,0.4666779592135019,5.014864331824454
0.1727984755526659,2.3468431208820806,0.34584016514935234,0.17976850696379598,0.28981310003009864,0.393514757180785,0.44730701126946865,4.818060587839405
0.1513927990861465,2.2318788581912195,0.32763641938988713,0.13884987481349692,0.15843388609868858,0.28941104112410737,0.3357901646553611,4.913771368987003
0.17452425766177612,2.273586418163203,0.3891729911002898,0.19768134306681204,0.3375624717344098,0.41778264173744933,0.5018531041353439,4.821862719045504
0.18032287274304767,2.2513806253381237,0.3471104118767448,0.19015667688691415,0.30893342641626437,0.44336687922564644,0.4646007451920776,4.70616615444745
0.17112288577101695,2.2939851115526215,0.34603820297550586,0.17116519620629786,0.28532857090446023,0.35956755506331983,0.45145402517702743,4.832583478077689
0.14884253544847634,2.3326800054390304,0.3300701290122046,0.14865668614386698,0.17747466797109065,0.2826948357045965,0.3439737905926307,4.763561181452339
0.20168942197207954,2.2995808814146845,0.3820952955835252,0.20970480596081403,0.31222637300003225,0.4830569904941458,0.5231906776417347,5.064336346412018
0.1935735284361552,2.2923149361657003,0.39118397287315315,0.20503043441219726,0.27722559091713483,0.4085683533277461,0.4559808192681924,5.049710544111883
0.17930486723515532,2.301808463514487,0.35536763322705633,0.18672550458913018,0.19261782244830294,0.320662688279889,0.3774708869248779,4.953978445223335
0.17150889019705412,2.3584602049937686,0.3627333603004129,0.1608965782444601,0.1671288302846364,0.34031553538918696,0.4026492441069767,4.862502385549091
0.1946446187497667,2.280418244937436,0.3896685595726056,0.22733923927651803,0.3341170585809573,0.46769457621706373,0.5340153316658647,4.803262170903157
0.21244869813937137,2.2614571785593847,0.42364646415045837,0.21703767082513942,0.25388997143405934,0.44155556597714246,0.42115263178288376,4.683846641095814
0.1616354915275597,2.325732361013416,0.380633035977756,0.20544545140614678,0.1962040325207266,0.3262183301464104,0.39290532229107455,4.9219838827363205
0.19148257956274106,2.2623181381153756,0.3992091470756313,0.21003810619796748,0.2573262916054712,0.4184749514238175,0.4088012191392093,4.8477841390762695
0.20331343673466326,2.293230781193271,0.43805362222599414,0.2512828567543769,0.29296346090336606,0.4041101621281994,0.48855988753034035,4.8801813279156905
0.19739795212105707,2.3350286475406294,0.41487979318896,0.20757824589555543,0.19596948154086724,0.40035337406085697,0.41305621558217154,4.992366341978045
0.1893127076727889,2.3489495554017195,0.41501060292432745,0.20639590409815278,0.13693123433661478,0.2887546375777032,0.35969017455979263,5.015216913018112
0.23447169826714642,2.2912439512936933,0.4528387491202319,0.27580838002561875,0.2855559682408837,0.4581536752670125,0.5127262351554875,4.771169500872129
0.23498682066651996,2.2504082630715265,0.46201947750338596,0.2583180079092763,0.2703626745571855,0.49108601773498384,0.505555575136023,4.7908779873239995
0.20832665792632454,2.325005447680305,0.43078965250352913,0.2316565346831771,0.23571930080052167,0.3699620216159023,0.42589347722836074,4.946646645345847
0.21509585519445873,2.3505944621847745,0.4114044375100176,0.2189621100338444,0.22592140466224456,0.3882002224504266,0.4465484016026804,4.925923068976683
0.25227532161824456,2.3583473446836987,0.4565331929092011,0.28821663776112766,0.3538303072710912,0.5132368538542039,0.5843113241132117,4.944436157815548
0.2538724521059288,2.2781624600452677,0.4733804002828119,0.28359421266042684,0.31345454311604504,0.4612420756223598,0.49371183891690734,4.884975980502253
0.21400337902538777,2.3033878293684538,0.43231885684529064,0.23390077376242968,0.20261999071415632,0.3847887261010747,0.4251801502810962,4.918954855596966
0.2535950972058384,2.259169810063857,0.4755412255271429,0.29891162671135674,0.32434432003557867,0.4877094290626367,0.523134827571442,5.009336682092979
0.2587108325545078,2.3246743218919503,0.5098103473269577,0.32542890792366674,0.33458820258752237,0.5213731827971358,0.5531627029915546,4.797157662984397
0.23545250029246095,2.3260735122700447,0.45559941033471946,0.298069058605095,0.29492621121279544,0.4689608620241581,0.5471635591968527,5.003628189726267
0.22000475327906682,2.3061244799006335,0.4527068004777424,0.23218281869780494,0.18545007551229115,0.3810862299707268,0.44780755720966714,4.682913548505315
0.2563516385083598,2.35643031719843,0.5068132101627051,0.3248674668784168,0.3700857672854582,0.5266070846723031,0.5965962559231811,4.7774071343569116
0.2653612884308609,2.3115495470547667,0.49812105030381704,0.32849152612735555,0.30703761268649665,0.5039662429146692,0.5517909357390641,4.9362211274191425
0.23853507066523172,2.297984885645368,0.47631876975204,0.30927036031692173,0.24948861299931963,0.4325851806204023,0.4832542881612273,4.952144065927177
0.23663719565760197,2.2685454554569167,0.4495551192358216,0.2753848000311373,0.24836748684066864,0.42043676970881555,0.43136425451653926,4.724449813349155
0.24815379293532008,2.320892500385807,0.4634277884190897,0.33249570771223214,0.33434067838812653,0.5313475630086556,0.48694730872758746,4.898673334226764
0.24075804719315444,2.297054978641447,0.45255797488756644,0.29731421518495843,0.2914779583920203,0.43641547248011725,0.5192637940469744,4.8264761238494716
0.21664881622040535,2.258792704524824,0.4411158857898194,0.28162774478918906,0.22346030162262712,0.41305401369827643,0.43001209023593057,4.827655629465008
0.22989461102347594,2.229752588322823,0.46984558346067595,0.3145211849057928,0.28586945006686376,0.45324936712881353,0.515117328401888,4.782579079395018
0.23087323422721073,2.244861434108685,0.4599821184393854,0.30615126949709404,0.3020088072699489,0.4593432226360706,0.510055279191953,4.965859802931175
0.2142536764318921,2.3196566919085124,0.46038453902217913,0.26592746167493786,0.22446703636950763,0.409244637408981,0.49556387667275315,4.981052625587884
0.20145568540054454,2.2630116778639744,0.4359602174945272,0.26770500038473577,0.22063283719988933,0.3722936443596368,0.39821050067892017,4.811795775714346
0.24532355009346765,2.3318004790306124,0.47832517463950874,0.32579885906718214,0.3285352333715178,0.5264314719699402,0.5597742283615927,4.950685044474491
0.24072141964393737,2.3671087548186076,0.43621758510531633,0.2887894543401706,0.2697145322835669,0.4797170356628005,0.4840195725020522,4.7945125187358535
0.2288551331917444,2.3605923731236977,0.41642155724463586,0.2449537244760548,0.21333285090058732,0.35132164879344474,0.4209958484219374,4.839134997230537
0.21910060696624303,2.3272107458432707,0.44942988905760134,0.2939872243132112,0.28694390455282914,0.46635537464923327,0.5352812159471336,5.005856437891623
0.22757431426703062,2.305959911364532,0.45147816677306635,0.3146545603500214,0.3399825371272437,0.4818580812254437,0.5412617471837726,4.751587024671419
0.2220857331603579,2.2867450556088853,0.469992964704601,0.2739008923008832,0.2821886024405985,0.4297955288727045,0.5288363080701812,4.988304014032379
0.19492610776864194,2.2585783820193543,0.39763623835998846,0.22292005376237392,0.21353061647828345,0.3679137195728461,0.42782081163408575,4.974020310598153
0.22571000871653504,2.311903625470869,0.4608444747394747,0.30679411937108086,0.3416544371154002,0.5569207584095109,0.5709606554522211,4.917846543169535
0.24141988272787612,2.340907228838469,0.45881330594627934,0.2990696035394407,0.3656387108567175,0.5031142950298066,0.5512287072128692,4.811926288218892
0.21558876249418762,2.354502936831179,0.44580826605915125,0.27429972510069545,0.29221613037968464,0.45133777453692514,0.46804867615342094,4.895844759714784
0.21611731320734295,2.295502455088695,0.4346507314175123,0.25912841284794824,0.23516478803901358,0.41583446187817197,0.43460276790363433,4.931956114970981
0.25815208811970725,2.293936660747515,0.46302864874885336,0.3167949797213906,0.38662678680058427,0.5215655366262872,0.5452442120249008,4.844131732435142
0.23188424835135507,2.292188389873523,0.440014314619284,0.31512255880677853,0.34741655868078103,0.505959172959244,0.5038439170651798,4.87690119517454
0.19861758800836135,2.3120914565230675,0.41370728558661973,0.2594514570519761,0.2498539819342224,0.43952121990750154,0.4723476565484406,4.945459888982599
0.21330941762546224,2.3260747308981595,0.43528297987154135,0.2773296136112773,0.2982290217688845,0.4194214266012512,0.4658934582156729,4.900316336258763
0.22790547496349822,2.3298005421758017,0.44861543037651014,0.3011354285257496,0.36296285931710626,0.5293653253574827,0.532202567880292,4.928591313563303
0.2182650033829317,2.270923759932883,0.4425973455104333,0.27334457872147094,0.2908616551438611,0.46165668344943844,0.47779011403464355,5.003017292208143
0.20678561582690944,2.3104986162344816,0.4222415243214025,0.25992462943397915,0.21752370313178088,0.36903164394002436,0.41777210820729205,4.9543915183055685
0.22564567730503723,2.304798000788776,0.4759471504693925,0.2754723365028353,0.30977855890710043,0.4693513590076318,0.5185844300180948,4.8169220313811545
0.22780274603446227,2.321255107892748,0.46657455253256674,0.3174292687983598,0.3526328252843206,0.5213515165625519,0.5597473842205589,4.783928796040199
0.232673912628172,2.3148816163053674,0.4812506295869914,0.2893875819470238,0.2733961347397063,0.4768141964361599,0.5131745841129257,5.144238257010238
