0.1026830066544855,0.4333177167375696,0.11562232111366995,0.11573199444036805,0.09226857878077417,0.08801355227833878,0.0969827386925461,1.1546190844162068
0.09160715930967545,0.43764784992490824,0.10688097994801919,0.10306352051334325,0.09425597062598888,0.09388923068759178,0.0873536406760982,1.1721929726065459
0.03976581273555567,0.4045872805859756,0.07091009511356963,0.048613687473706486,0.07518504292488584,0.05598144606620229,0.05697258360171343,1.1521932530784464
0.0496190632486217,0.389003865924326,0.0675743792431735,0.04937140964987358,0.06798197234764551,0.05670490291643606,0.028241308164493294,1.1263784990041419
0.10747555591499214,0.45495300063457633,0.14004078666520398,0.1310057561745246,0.10107094106267787,0.09340607588209028,0.0961496152778822,1.1950366663324195
0.09506827667447068,0.4084649688022792,0.12149832982500018,0.10343918579118225,0.09160988698955946,0.09077002856487902,0.09749047322426693,1.1801809022530074
0.04692227093273039,0.42306477373843304,0.07610131702707393,0.07864198053996153,0.07367012386563875,0.07203556307620392,0.06596907743153982,1.1508783399817681
0.06282617662191196,0.4660878104238705,0.08358862635291209,0.08719573825682257,0.07595755073873961,0.07044709587770857,0.07230989888391923,1.14945937640435
0.11213242371847675,0.4459027573483878,0.14950308757988198,0.13546576209797273,0.10301869707549798,0.1086071104493874,0.11566201386323154,1.130965909370675
0.09527068534195594,0.4360060604030219,0.12556356970791632,0.12270525599259344,0.10515513759747615,0.0893432419373433,0.10945341827740018,1.1845730006497541
0.05422392339935238,0.39472981214143676,0.08559566969799753,0.07473589196040027,0.07552793596092751,0.06601625603377875,0.07702192890135598,1.1499568833521008
0.06410455724532056,0.4499626004166842,0.10790973760394214,0.09137685550073543,0.07334558309388477,0.06963848276731789,0.06332047093378564,1.1744601289748222
0.11283220557004678,0.4347753376966365,0.170919684313011,0.16473303718738927,0.11313994150898983,0.12196662293015781,0.14414942425758315,1.149482453622697
0.11105062089858045,0.44324799764787415,0.15108809704115933,0.1513804533861291,0.10797947574379366,0.116023554917737,0.1265617186147519,1.1658673608991807
0.0692625822378707,0.4344467008000771,0.09456361466924953,0.10536276524744077,0.0974201962404769,0.08480820139759213,0.09565015299083683,1.1016391875090739
0.0705279786681286,0.441936120249949,0.08952605169911368,0.09856517772746307,0.08963051333141077,0.09301716282824099,0.0874353266737071,1.1535418584501156
0.13650244803279382,0.4787690037160227,0.17769883168542355,0.18257474185993125,0.11160999880135977,0.12630266302851598,0.14573714339691402,1.2022077876829045
0.10261630444413553,0.4371542068125187,0.14454916622211383,0.16363988672535035,0.11085118239195868,0.13028957670970703,0.13652753930061265,1.1840005616526081
0.07871601393135974,0.4607214840394569,0.10103895647257984,0.11257759784042133,0.10014302376389571,0.1028667478317253,0.10918977587534454,1.1882463064863715
0.05026637108423493,0.44402291571997715,0.08141178868629051,0.09187467782802933,0.08261326322671628,0.07001607948687782,0.0810305882605267,1.1350148852108966
0.12385493051772538,0.47812292593027395,0.15541019005031692,0.1796525093971691,0.11441407930378913,0.1357071531324061,0.14541850226158462,1.1811340710937088
0.11106299379095705,0.4415083844667602,0.1534023678459487,0.15035847863668053,0.12451229985209203,0.12328023928601675,0.12636460201073305,1.1554845638648013
0.0777403937057167,0.42340834350493783,0.09980649988721436,0.10596893748012748,0.09598847922621974,0.0884678725216533,0.1119955253706805,1.1871502352300052
0.05529632329977538,0.42489892086029674,0.08713120269593558,0.10565623762787398,0.07789079240900508,0.09790607641652588,0.10879501451183402,1.1519341001816292
0.12218779814363996,0.4814316574686031,0.166791962021468,0.18778199856101552,0.11229575679058657,0.1263574239609737,0.14731996575205564,1.1705526031055267
0.09311052831838962,0.45148972367382295,0.13671562808378518,0.15597115247939503,0.10825135514731149,0.11502965406703172,0.13746270515271392,1.1397024027348541
0.06436680321500154,0.5001373518991915,0.09603466790369278,0.0892566679470038,0.08389430579323756,0.09541794965124492,0.09834841217987847,1.1554811385020194
0.054205032086862885,0.4147828136351499,0.0847685762083594,0.10150529501995173,0.07914041369986538,0.08186282816801346,0.09601627471528743,1.1177402431127978
0.12770644960335747,0.4606914957283791,0.17223401629145962,0.18926876917526742,0.11382459538337523,0.1211002512237434,0.13735391208654252,1.157993227183033
0.10182963847818687,0.4530226985629957,0.1506320735908176,0.15842363598821907,0.10226014407500308,0.12064994172736421,0.13141012974258529,1.1742247146082747
0.057474735832397,0.4440423371110398,0.09696685830874568,0.10069495650431981,0.08007283542093,0.08465461797531963,0.0979933439306688,1.1628980397100037
0.06328445014789416,0.43722054224359896,0.08542716533034052,0.12259413970662131,0.08033536749310434,0.08777657817914722,0.09263446011215283,1.134892544353161
0.11883766864005721,0.4315429655759192,0.16328535108657757,0.18956758179408106,0.11230504215908116,0.12034122410249648,0.13730151015746445,1.1642450335941805
0.09067769976582019,0.4697748076300874,0.1457491277542981,0.15736502310221115,0.09685737957618841,0.11856816897672923,0.1232254276498427,1.1218123625438636
0.041371131866657494,0.4104081326087696,0.08734674030906765,0.09649682035135682,0.08447186914304144,0.08391981079435631,0.09393039837400013,1.154474840114562
0.055637485883723144,0.4523458460253471,0.09465982162094211,0.10114816330214924,0.07087988654956207,0.06683975172187734,0.07637460215213415,1.141468094003751
0.10644577695000934,0.44336048323600963,0.16276749278497454,0.1776157396884272,0.108852887457972,0.10362787692558179,0.12173111390400268,1.1640611477143896
0.09764220935675054,0.4573513546532781,0.12575006729469196,0.15935428091525675,0.07571706258160593,0.10395422435601777,0.1086161605337197,1.1675626938152899
0.053181220991941294,0.4418501198843251,0.08684877097832773,0.10538057994439062,0.07031463276504821,0.07935616033347014,0.0776647564844861,1.059638486409357
0.08808972996745339,0.4286151369092551,0.13282678706581658,0.14568151927018042,0.07631105670321578,0.0923817009525373,0.10634824591537986,1.1066044587780077
0.12221198221856922,0.46350438941482763,0.16293478626486296,0.1716348461089821,0.09853651284029302,0.1158726769881929,0.1324282012985242,1.1611113620435143
0.10143995363682703,0.4065989698833603,0.14921608812175402,0.15365263911486665,0.07816929300302679,0.11043643830397545,0.09645312689948661,1.0948595927384572
0.03639431101223234,0.4197417948108354,0.0810308630347,0.09755791562592271,0.06558708918494392,0.07067232358226033,0.06203258726274252,1.0781551793314494
0.1196703329243158,0.443893433173907,0.15451831682852374,0.1851838035208425,0.10786468731125569,0.10584313568542264,0.1281876035420179,1.1547496621057038
0.12513702969004636,0.4197290630726347,0.1746565480213879,0.18248779239934224,0.10101988067403256,0.13233060364422458,0.13014411456103384,1.123592778114633
0.11440283590872355,0.4050032656582416,0.1566011519684243,0.18001608741253367,0.11192862354582858,0.12581279976065562,0.1414026370251226,1.0825225725387746
0.06879403538972576,0.454387514632807,0.09973564376239227,0.11311626676813832,0.08838770657296365,0.08646282618491671,0.0996030456837542,1.1277857185352818
0.1382296955093056,0.4420038339256157,0.17893403153942739,0.2078025870314881,0.10647711825076926,0.12499699863774338,0.13527576048009132,1.1608281678253425
0.12965434760535546,0.4473643608274907,0.17146408065589527,0.19597146626951076,0.11520750379974107,0.13935284534245976,0.14222402465157294,1.1130598570720398
0.11308266882951992,0.46600141485452873,0.15666075157455547,0.16712179189850002,0.10860223711512035,0.11622545917272026,0.13901555357778012,1.1896526628305217
0.06077814866858828,0.4545196481183767,0.08781108266989998,0.10890623521145222,0.08249001507269563,0.07438802106936557,0.10125100395099287,1.1765570925972615
0.1283267924350587,0.46873311693558584,0.17927243043263233,0.1989761444545619,0.10783893573421155,0.12920407510625354,0.14440136369449105,1.164710159062114
0.12398275799791103,0.4626919685610931,0.16775615853963827,0.19243006325869194,0.1074277702759932,0.13475815723225476,0.14201904907990978,1.1128530170797022
0.10528122084694203,0.4893633234066982,0.13601770009752298,0.1577232115979634,0.08818872594667626,0.10349344798933731,0.11353711194942533,1.1864670174467342
0.05923173871922885,0.4339320709753314,0.0950320072781383,0.12139400196923525,0.07669149419708782,0.07977682066411222,0.08198986375355069,1.1132897171668885
0.1424946607841272,0.4518207115136556,0.19248639852086105,0.20932160616792242,0.10921985008816297,0.1288503707627776,0.13413404323582673,1.1400615349495835
0.12478599299512538,0.44073055146266416,0.17070958687662777,0.19001980464980564,0.10770402922188924,0.1295537616381206,0.14665619192433602,1.1604293317830834
0.08410687515232049,0.4237480195770457,0.13061821964494816,0.14733854380547035,0.10265298527402889,0.10684233777369656,0.1170588965798959,1.1499297732405347
0.05297945628397391,0.46760720737642547,0.11040077528930539,0.11786277052296965,0.07579714913686472,0.0743916109324093,0.07334955745436031,1.0989565636530596
0.14764911706350642,0.46175972677067967,0.18593212317775307,0.1997852992517834,0.10395432525473072,0.13072598861981882,0.14623440050045775,1.1210951697359424
0.11068335895314504,0.4700076403978148,0.16222780444050622,0.1887709469104389,0.09717131528170671,0.1184922426241379,0.1169155137068257,1.1841579023498352
0.07555359917602576,0.43744693444701677,0.1298569785529421,0.11922343664666435,0.0786481243269464,0.08844724023856139,0.08482532227908948,1.160372620571497
0.0474498573946385,0.46695052845315094,0.0847258364743805,0.09185108006545392,0.062178730940493004,0.07400928038501794,0.05540551802192134,1.1628732685623313
0.11792993827318801,0.45275350018171656,0.16540132988344475,0.18238315815351983,0.10176848171371368,0.10098009167561897,0.1066963666930178,1.1693320250845325
0.09070693124953615,0.4483716332222001,0.13285342203134526,0.14669585083815143,0.09318840759658599,0.09633281450790984,0.09269851540129916,1.1251806395215707
0.05686018765368105,0.45615955893885207,0.1065909323996715,0.0980521671876347,0.06333330198076491,0.06165764330470455,0.06207875514291357,1.113983130145523
0.045875921118937804,0.452600584175503,0.09685880689641711,0.08902326379601334,0.055442415587964235,0.06177647752781553,0.04401800199263479,1.114130978813626
0.10272200218870695,0.4580896396044162,0.158543195694134,0.15281368641222565,0.08091702120213896,0.08802815082792358,0.09757154563805663,1.1204890004232753
0.08637808796077975,0.4316061043082352,0.13367253722349706,0.13462044757427552,0.06844526563009022,0.06821154298898856,0.07225784121705071,1.1295933640287819
0.03630667735439604,0.46949509132054035,0.06586736318364056,0.08650951909788572,0.04789970942097515,0.03943963622879067,0.042084745800751854,1.1482558643356886
0.06648081300341921,0.4431660391417179,0.10643174773018861,0.12954057930107166,0.05534447478512143,0.06514107539716248,0.06526034664234227,1.0840401162423792
0.11066807336072497,0.4762999040269994,0.13193673216417637,0.16839611025298176,0.06426357090757753,0.08843663581857886,0.07999764874574264,1.10939332664947
0.08366907819296596,0.4299069132660248,0.116720555974369,0.14541703153193394,0.0611090796384798,0.08676093561086445,0.07019263049340313,1.1541890551274867
0.037376285707761095,0.4592091851853155,0.0652465887589938,0.07637425767522013,0.027491865656854478,0.030859335377761088,0.03290508583287132,1.1009864396223417
0.10497674471076218,0.4222138757865354,0.14324960261065528,0.1688079543847889,0.05246443745060878,0.08346489834075885,0.062240508169558735,1.0958608064301378
0.11481072006582273,0.467130242418242,0.1450199899580903,0.1808128702452973,0.07060456003335742,0.09241674121903304,0.08751905902131837,1.0726409156804033
0.08746362432156798,0.4445831819463967,0.12640545801475195,0.14144570156078587,0.04784197573718871,0.07310127711458925,0.07442341685724849,1.135611839161746
0.04046926015148358,0.4239937774200485,0.08230194796288247,0.09158957579527484,0.0394852929342103,0.04211041263556197,0.032664739039771434,1.1520028467568966
0.11332106313840476,0.4412707215542616,0.15094736675913606,0.18206000553621451,0.06132238318946861,0.08076984866823293,0.0831397208957647,1.065470926083421
0.11318945838952027,0.4696181701385974,0.15557934137144397,0.17293999021033565,0.08118737902754966,0.08011332507445365,0.09178501243738882,1.1694260037518145
0.0826621710179365,0.45038050232975463,0.11028053920265365,0.13799954704396558,0.054329677743333235,0.07358380503731839,0.06958709764172796,1.0931214913989358
0.035127720658018904,0.4251621452734049,0.07022524118706201,0.07463705621513135,0.030973067570177867,0.02857400712656624,0.03397626556014043,1.0992659788662598
0.09610735250793713,0.4569944222575677,0.1465863779504859,0.16602970230090044,0.05546716751926509,0.06998442803527478,0.06628509982449933,1.1228279482603913
0.09718326364594705,0.43385832699599075,0.13578068640417928,0.15657008379876972,0.05387057365951294,0.0703656262435454,0.05820027359057449,1.1098239339023581
0.06458711631429484,0.43031354747295475,0.10110184505424331,0.12479590649389075,0.053916494160833564,0.04686880229631174,0.055291514731976986,1.086556482249144
0.03451425231242289,0.4273384895744169,0.050814811500266094,0.06875523648884795,0.02332363950954333,0.03843763025368655,0.016617021603050026,1.115377957319638
0.1009924008268616,0.4386574349036902,0.14369494622156878,0.16428974096185736,0.0606831679175586,0.07345062916175363,0.06751022918161426,1.086844151855997
0.08740878676605982,0.4553896757491941,0.12511129433021823,0.14536243964115755,0.05730634534207054,0.06738311471113273,0.06387750493269491,1.1026415303476202
0.06898098934572691,0.4275924570778819,0.0796400473802246,0.09533033956525888,0.032890986752875495,0.047488723916132076,0.024832791532434614,1.0720282563838217
0.02696672605079318,0.44799293041992083,0.04448805995735941,0.049971145162036615,0.020683438985859275,0.01720552901119371,-0.0015781803122678073,1.1170005829642586
0.0982879156588024,0.4268615423437292,0.13042462128439866,0.1382357387610298,0.051396546812399586,0.06298564322301438,0.06193815785804989,1.1407260737033251
0.08252290770301285,0.441156823150963,0.11702457011739387,0.11635104846726506,0.051202825784557114,0.055456737802860534,0.04789521294944894,1.1378074331198622
0.05803034148669432,0.4255413629137648,0.07442546329286125,0.06451586774239072,0.035436560829062866,0.038201205970638454,0.031512700863381995,1.0920243856314744
-0.0019907124968446994,0.409642580017781,0.02883506220656773,0.03009333743510835,0.018826932551261236,0.010238190121111192,-0.006698905122134589,1.0526181619036932
0.08767459753966854,0.42535714741272546,0.11403286965513137,0.11344217145538224,0.04618833496968437,0.06794672959318922,0.04322887502355929,1.1300002547124173
0.06811510493530235,0.43430712756273926,0.10789542518955837,0.10401320610129937,0.060392446741564264,0.05350322418841361,0.033740013503905195,1.1288928641526124
0.04939673886984857,0.4322568643871205,0.0652767131391829,0.060208131519680456,0.05195749530902121,0.02692208863568528,0.03667685961547559,1.1106504113475621
-6.748132907801996E-4,0.4255126968576597,0.011652776517115982,0.014128099814704026,0.01630303193827816,0.009591409668821077,-0.004297900937956768,1.0542005424806744
0.0591530809140601,0.4370530281164828,0.08605959143839553,0.1087008287606537,0.043420084260599984,0.04673079575844016,0.04823195188635754,1.1276264575269717
0.06761010925052041,0.41764542494586243,0.0799806929619794,0.08298597721106465,0.055212819548908165,0.045360677585911134,0.05132034548517731,1.071476735939681
0.05193141104246393,0.4267721415030093,0.06400890120564075,0.04305658849906769,0.04100668607037404,0.03779833468833819,0.01335694689152348,1.0665784200329846
0.0013257671329556008,0.4329607100270818,0.012206467832123986,-0.005983309254588778,0.012663005316499287,0.005986411145076252,-0.008114520556294073,1.1232958316488018
0.07049985897785667,0.42234779843157466,0.0948786067157995,0.08719457342268248,0.060419195694718805,0.04594194700742668,0.04653640544051813,1.0373902910999175
0.0595427910317027,0.4033297841074275,0.07570576721564665,0.052677653798732835,0.05840232619745658,0.03753657228881473,0.04172229833622696,1.0946924061607313
0.033093676922372695,0.40349948582601847,0.04115013505448277,0.027336585796110535,0.039168274668537624,0.03105883932320486,0.008130965345514884,1.0991943113460172
-0.006074254986832886,0.4086388718780907,-0.002396976139701565,-0.024953774528312586,0.018103186010254554,0.0010777749234427928,-0.018939100021644024,1.0936973075266514
0.08294994010801972,0.430090994108126,0.0931394202858871,0.08279338623864602,0.04506678203011237,0.06408800047909892,0.04297507586432037,1.145456944234089
0.06961919684145171,0.40797366687486747,0.08642877048894086,0.08237833079099566,0.07685684555494772,0.06854559012514516,0.04688619764020426,1.153937306690806
0.051868754235137045,0.45143265042242414,0.05755819895550224,0.05804037403763883,0.04600751479304613,0.046036632277319724,0.027450464929638103,1.1285463169704533
-2.3636833401629274E-4,0.4022285751662127,0.01853734513955167,-0.002611623381692626,0.011017472985777809,-8.468293069805702E-4,-0.0077820014610151715,1.1145952000828465
0.07212307032848442,0.45937238467544134,0.10085831928660763,0.07367494919489255,0.05789467818452417,0.060745152263424855,0.0485173717979692,1.144120044438626
0.0708051807008227,0.4255764429381787,0.0772650110098703,0.07061164441416937,0.07307153891637516,0.05965867629306397,0.03994743892849171,1.0652873796998137
0.05367412456487096,0.44590597098696827,0.0685131134779986,0.04291953043086966,0.058176088328649386,0.04278506015010581,0.034206291583534096,1.0996318008843777
0.012249163178196607,0.437525247378226,0.030134032217914233,7.514295613244362E-4,0.04114474626298201,0.021121831456853216,0.006627175835890646,1.0862842604805247
0.08660247603520625,0.43287719057898844,0.1059984558241865,0.09028604692118723,0.06489210552638369,0.053950495080230566,0.05221414661295613,1.1142599890377993
0.07566895613372854,0.45497941849086354,0.0865024871179801,0.0654871602154932,0.0856426160623758,0.05554095672059377,0.03772821547466386,1.0926958331944772
0.051513836603516217,0.4511505117967022,0.06144020652306906,0.060293041541035236,0.06300157671657401,0.052219925592870954,0.03526418807644991,1.0566342546880603
0.028650454954721905,0.40824757815404633,0.039874710794038246,0.019806093385223916,0.03488783762596329,0.033517004158962846,0.017807749566158604,1.087647898728639
0.08867184852815356,0.45068470502686553,0.11026677692719536,0.11532335942870842,0.08861973077263602,0.07181169337772411,0.07138590917458634,1.1133428624771924
0.08536943939889695,0.44265767050925486,0.10365285952185554,0.10920760048030322,0.07476369678033917,0.07601899531724994,0.05837270684434129,1.1168638392151238
0.06162207557577279,0.41894550336375064,0.07390868043415566,0.06611200596565417,0.06244114247279755,0.056026251533543,0.031039377906708368,1.1467855226383024
0.055460462659541056,0.4376063888689671,0.05237917217908518,0.049929829608030496,0.04006464638796232,0.0482044907788346,0.01804439457744471,1.098401143073668
0.11129197698218514,0.4443877889009615,0.1328497441145685,0.13164914983879092,0.08435993915603858,0.08414447460822051,0.08519498117363,1.1353759428496422
0.10406076324761987,0.4215092206847558,0.12253126697866437,0.12664289104759724,0.09003631674740813,0.08570810166576534,0.07972597916998417,1.09606620981451
0.06153091305322424,0.44973677243372245,0.0830235375895988,0.08776492827350393,0.07477942993543116,0.06142887366251994,0.05046142122818302,1.1205327646412946
0.03469356491241323,0.4347149293119692,0.06067777133625561,0.06695307399719144,0.0615144975243106,0.04871771066980099,0.020450478010071844,1.1136197430566723
0.10056627525020014,0.49590872322260876,0.1442719158357512,0.13461220851943384,0.08893331001007894,0.1107274184160751,0.07332873358372222,1.1064099878141727
0.09022189803917936,0.4241799629729589,0.10015355671615987,0.12335634633752204,0.08273549943182693,0.08510128409799224,0.07753812267244592,1.139826555534616
0.06019508101502026,0.4506108765391222,0.06374973743462803,0.08199056694459378,0.05873102738254343,0.06084678600899225,0.03972782810407151,1.1204208024419111
0.023944062192774947,0.4404756404331381,0.0547778760911639,0.049806259562819824,0.03977550971136806,0.04549498014026267,0.011526920569743051,1.1284302091192693
0.08721931359388047,0.479800997935266,0.11704458430237918,0.12790086839180811,0.08296727555390086,0.0774864524522059,0.06872213247323512,1.1596704332748629
0.0670394457952204,0.4254717260178752,0.0974869289249877,0.1072961718932663,0.0704053032415187,0.07897124235245306,0.054926611117542774,1.1236767091272342
0.044437435002912674,0.42738062075277977,0.06326215439151647,0.0683474666410949,0.04667976101945769,0.050912752292499,0.04573069243291107,1.145405912295282
0.021255076804719546,0.4191481756733558,0.03298347342510552,0.025752624213571527,0.03852804851066079,0.015125919530688833,0.005132476128870564,1.1219001360433383
0.08684240354540705,0.41949683734628385,0.10028669800874157,0.11542515515633597,0.05719354404137269,0.07822883826348626,0.049250689340397044,1.1473308450596233
0.07118212428325273,0.41110365249021735,0.08482563643121784,0.09288614894504688,0.04696376636853797,0.06197724749853482,0.03683029912029272,1.1310419556789808
0.03448529214782264,0.40857666743323473,0.05295662289887162,0.04467699785558679,0.04546431810946497,0.04758972334207672,0.016535338761190913,1.1832043301298458
0.010586439374527938,0.39784751846401045,0.020059812666471496,0.022991100252839274,0.022781582156987706,0.021709081787336167,-0.015145061904190876,1.036022352213895
0.08099109735188276,0.4157407233305637,0.10320358410907017,0.09700467997356549,0.0603917552219201,0.06280806257152226,0.03966628545368618,1.1024807631185904
0.0554911463756294,0.4216643375502538,0.0896552324893643,0.09005742892934329,0.04993451007474852,0.04566156945698112,0.020731624705734034,1.1017735661363575
0.03431256506862258,0.4229119426906185,0.045022577908474956,0.018200330565972284,0.04344050539747919,0.029344296492248113,0.005464101390650518,1.1742598034747
-0.002013429449231811,0.4196675352449816,0.00691395259159279,-0.0024897495105974596,0.009996324609898495,-0.012672492815973303,-0.031650341469445405,1.1003865596882894
0.06121048231918323,0.4665164012468489,0.0688793678608678,0.07798094227540416,0.04394426732899655,0.03186028326553706,0.011027087890749535,1.1400956312425206
0.04684714019115724,0.40421484522625545,0.05641428325443359,0.059221253950519095,0.03401944783206697,0.026660636579353074,0.0015850469896362962,1.1168868758232686
0.027885555011334134,0.4035320419742378,0.019406600462540755,0.020610738999197277,0.01661618776466318,0.0027624490469062048,-0.019576544568492345,1.0524646064671992
-2.139054453601779E-4,0.38820071171065385,-0.0020541504115960257,0.013775107558811627,0.007693329463758634,-0.013134324600671779,-0.04301507172887263,1.0923217184798935
0.06547938804720199,0.42502434157472513,0.07528362400640404,0.06366442411622175,0.04673017788277266,0.0341107789525269,0.011429206969117131,1.1425345444765762
0.04654943711727318,0.3864463176486666,0.04757366023908332,0.05378222528440981,0.02980044246431668,0.005221601097670506,-0.007994665535544357,1.1191011803318272
0.014909773393736173,0.395046626481609,0.018642431758232717,0.006819031227132969,0.011913919156107178,-0.001055530958969389,-0.034621894626559575,1.0992343377766685
0.017134270856886475,0.4102911046393376,0.025980817078560692,0.013439214575482101,-3.3827721124992174E-4,-0.009167289172476136,-0.04723904637768656,1.098923104431326
0.07090021002153289,0.4468177061827976,0.07887607665413225,0.06941025970886114,0.04507037365496337,0.027375028724501288,-0.0019790878629402098,1.1055743948517571
0.05640592353214499,0.43923985823173584,0.055143696712862525,0.042614892977153374,0.03352408352764176,0.018096902994837648,-0.006215401274573783,1.1006795009040564
0.02679613284409082,0.39016589828863685,0.012988833549477602,0.01737850638518624,0.025976145283825865,-0.0032423690675810746,-0.037779349596519234,1.1198209693281653
0.03341530853597213,0.38531948624921986,0.04503517889478273,0.0369546417479593,0.02541619139473552,0.00821608030660912,-0.026022177566613507,1.0506986041494206
0.0753408124620453,0.41224895978122456,0.0838446878634801,0.08793009741762559,0.05761021038972841,0.04118985721195883,0.015374909095043313,1.1225542004857083
0.0583534782701646,0.43718445511544834,0.06222979316359284,0.05956132179061028,0.05009889880578382,0.030016390914315204,-0.0047095013735348745,1.0669554333024944
0.02050252833811325,0.4002449567672521,0.03798714810231392,0.004677314415530631,0.03355488099689124,0.013792096426158609,-0.014054479501142747,1.115711253391972
0.04271985380944629,0.406926457635322,0.04172574855119973,0.04274471837523449,0.03148514100145122,0.02493249266792525,-0.010783630915650946,1.0999025510125495
0.07630312171835678,0.44199460391428735,0.07720885171760403,0.08598912296860463,0.054727890436576825,0.039042486386876366,0.01637440373111006,1.1667068463637265
0.04386962827646626,0.4345411063649223,0.07391786482708958,0.06962779645728873,0.05573063404567091,0.044079912015780674,0.012421845634769155,1.081532672765816
0.03490520712299859,0.4301619138250221,0.027812217582083718,0.02474898465745333,0.027565108053774337,0.024875984573558933,-0.012677972361353602,1.122632380366866
0.04971493945146266,0.4158993216526833,0.06356790581512178,0.0706324006534218,0.055585151341649666,0.03590324409656881,0.011185804257769036,1.1121167204504896
0.08491046521371602,0.4274516185235582,0.08741188865016196,0.08911195876611061,0.07047374723379518,0.05856482853820633,0.028962222289844432,1.1343762967488114
0.06125155106961948,0.4133156057432059,0.05709859850504305,0.06140113959951642,0.07073560337942833,0.060334223481467116,0.027749258955734282,1.1418744226434026
0.037472712691060395,0.38272477472363625,0.022074096707045278,0.02874591978839394,0.053588213320122355,0.022209140104937422,0.006528736421724933,1.114042813323657
0.04720219417893594,0.41517580496884054,0.07113013167533007,0.07702703165096053,0.05409880079022183,0.04400622744391615,0.02851203918747692,1.0653396671670878
0.0747206274866736,0.4324029621582891,0.09743920370033568,0.09629161707639704,0.06807196386453682,0.07068497062513095,0.05116644655757535,1.0772656148340718
0.07227659598878725,0.42918384077352034,0.08578462523035103,0.07870816853482374,0.0878517418964452,0.06089130437171353,0.032752172297166565,1.09872830097596
0.03147728228304444,0.4408476383843758,0.027320718579777265,0.019945747776292662,0.04642430117706642,0.028573159527095198,0.004270116191115753,1.0988062755073442
0.04232273410902593,0.4152543982380894,0.047753711232307886,0.0592587088673301,0.05123404365898378,0.033826357629013065,0.00848845772937614,1.1425911856831137
0.0803384670298155,0.42471555974707587,0.07732971324312976,0.0803011549395958,0.06810179656835935,0.05908321806145871,0.04364604740744792,1.0849227454137402
0.06123637060622314,0.4196141800885972,0.06654787907701151,0.0684497107551666,0.0541242887910303,0.05146668917026598,0.041061606860644376,1.1525699371947575
0.021326981030331666,0.40065232588983946,0.021981292495452665,0.020066033235549435,0.042845362601668574,0.0185074215159712,-0.0058704692603977,1.0859367674753362
0.051598622356038015,0.4006481457668491,0.06432070645340815,0.06263780531215887,0.055534517658859896,0.04451430785547558,0.029137380617285737,1.104676959011258
0.060174912478376016,0.4138873732381391,0.07782260860171133,0.08018330154706232,0.06972609857348902,0.05559985657580868,0.039898018629786064,1.133419460687977
0.03484125623175004,0.43711276536453103,0.05518144999262301,0.045280642483904336,0.059813643492053994,0.054142362458208346,0.026887633357282295,1.0878813004838883
0.01181803999064734,0.41732972421609077,-2.4858251477688845E-4,-0.0027380540441132627,0.029880599889610872,0.00963776003687691,-0.018536367087133153,1.1118583533388557
0.044656244278088106,0.4365008994408032,0.056250946750533826,0.053090093346404875,0.046822200244730966,0.04923681395953694,0.028983756331949856,1.1384227861165308
0.0651571140147722,0.4150641015349534,0.06962514782753941,0.0638094176271119,0.0527283622951258,0.05206608674159045,0.04300460729036534,1.149354113177854
0.04482193381613324,0.4213533066421463,0.04914544453214443,0.03675751319594079,0.05307970105027667,0.037590314816823595,0.008879264019606422,1.0846320514841943
0.010023053079670732,0.3987556760390911,-7.695871714748954E-4,-0.014366412435423902,0.02539156462644578,0.007432923847283727,-0.011042621381644031,1.0911582034283258
0.03956141348905023,0.4147536495445331,0.05899561140554853,0.057122424824525814,0.05198068393483929,0.039063185183349954,0.014459400831353435,1.1453536092667402
0.04637497873558036,0.4431937208249017,0.05830163195213077,0.05880873320079734,0.04898468135566535,0.04593547149934534,0.025766429522844202,1.1467292314230648
0.03605412137550007,0.4406682835941169,0.035331336216641265,0.04436169859938808,0.037862107858743846,0.031148258051459078,0.008065765890134746,1.114828877936911
-0.018360702014918927,0.3914188088355314,-0.0127963577682032,-0.02361946351314267,0.026840386199936846,-0.008380438047724474,-0.028482876544571108,1.1088399361585448
0.037596564595308524,0.43997701018605645,0.03806008391068631,0.03749756971251775,0.0326197397867129,0.024872637800231454,-0.007469933851522358,1.1426661141482841
0.04598366443955184,0.40003995364814116,0.04365858445583888,0.0373788682886684,0.030515536940530025,0.028148948723410165,4.590634427197454E-4,1.1712485793302372
0.01806540264813128,0.36867072023659286,0.025551813896098063,0.012322707701925884,0.03324024069753515,0.012125254221406468,-0.017090567664966083,1.112316338691808
-0.020072195292920175,0.4061940698302394,-0.022668328496636643,-0.04573187979997092,0.006733932969106342,-0.025059301619621825,-0.04741387599914365,1.1303187427111179
0.04013896796954674,0.40514155839357224,0.04920672437863159,0.042294587447272484,0.0316913733528992,0.02596266470297623,1.9161289213340954E-4,1.1264714388623542
0.033293755529541245,0.3815528574290698,0.03480907534372098,0.010237666633797125,0.027208332076586208,0.01585273265815792,-0.013743012765768156,1.0814632852663464
-0.002552989318034063,0.39426916871388823,0.014560498311600322,-0.017171630664062208,0.02131174945543377,-0.003520872389538063,-0.01690961385686319,1.0999856185972419
-0.02940925628151515,0.37934753769544605,-0.03483366499643285,-0.03873188247727161,-3.8256742456705545E-4,-0.03689434294608523,-0.05422197731819541,1.1097046659083847
0.045771809447840144,0.3993179595825366,0.04691946340218156,0.038569716293683,0.029960349267166984,0.017669809439047474,-0.001073659532425969,1.1048699153251995
0.03920039327033341,0.42382334471545446,0.03272827857805449,0.025253342369057068,0.028740968609579434,0.010591339709221138,-0.028833752765144507,1.1265384206497917
0.003332663696373665,0.4145201779852126,-0.004942362137619571,-0.020376535471518263,0.015670584707167236,-0.007497484332627084,-0.03272223089236478,1.1914270680732812
-0.01098298589377163,0.4172247472582597,-0.014341914239407193,-0.047611509180037793,0.003677760890379418,-0.009936806750016229,-0.04710785042816775,1.0796863818106608
0.03859671775501784,0.43673407614308046,0.05582745204312244,0.03255661689144451,0.0378083137857012,0.011531105505964333,0.011590081423087102,1.1678374996283674
0.022590857061927358,0.4092749297840848,0.03764544746141216,0.002670766180838849,0.03448580033172405,0.01229605354970744,-0.017635680957154738,1.1229673810725376
0.012094200800457486,0.3665813014629411,-0.009333030778003702,-0.030497444749094865,0.017015891531229094,-0.0016845271478007802,-0.03456056426943521,1.1074281985413081
0.027452276466172827,0.41204728660162476,0.014675497905934642,-9.578728062623401E-5,0.016214783807703144,-0.01614820998114392,-0.036743351821979325,1.136034816245391
0.040144544848957596,0.44442825804268804,0.04663527880591965,0.029118869459388352,0.0374032532715904,0.025042262000027092,0.008394381540847401,1.138862896005853
0.031821576828713456,0.3738394507229075,0.02724893936618985,0.01068813409051246,0.03251393766769746,0.00788569985548207,0.0066260069429312715,1.1538677132380724
5.962661075157097E-5,0.39084348125693463,-0.021091328223708048,-0.037717037030470496,0.01932128732437989,-0.005756041305045548,-0.04110802078953597,1.1198947358763895
0.05713177727639912,0.4199018211852617,0.055805589200423375,0.0473674754739702,0.04198827849473371,0.03895398283889204,0.014736928430693505,1.1600200158194731
0.06012510246961704,0.434216010042432,0.05370647026373869,0.042835971592639355,0.05891620766759677,0.05440074088559288,0.025589134466346856,1.1131195647402718
0.04200723928877454,0.4465963567962315,0.034492650136554635,0.0025104996623980316,0.04581363926359291,0.03382269699497697,0.026117333103394532,1.162832507803181
0.025432709648312464,0.4158496904409885,0.009913038151843797,-0.016425432166642415,0.035253003913079554,0.029939396374385602,-0.009578186567124149,1.1366687660788284
0.06928088317353673,0.4701870383123757,0.0715502613616665,0.061939666261772455,0.07495219991796907,0.061851841141650626,0.045755428900651575,1.17984848408243
0.06725312209618887,0.43869903170655594,0.06990577580097283,0.045194787700864464,0.08138691410634641,0.06817482325120872,0.055318948175190286,1.1579663462234544
0.03971008904118838,0.4427445714542494,0.043251782900380516,0.02598498640639424,0.06667044964125937,0.05083150525644489,0.0317164545796042,1.1429397581419618
0.015033005697821317,0.4164137905599826,0.02321713982904507,0.015628623692929965,0.0495457483356274,0.04054980897782717,0.027587327463505635,1.1372663145462234
0.07568894624760256,0.4250700604999333,0.08990220827911427,0.07855322975728375,0.07081005542376723,0.0920810452584562,0.0666919374296258,1.1778570768621563
0.06084686461710369,0.40910721104673475,0.056091941818694896,0.05790179481180689,0.08242020260430823,0.07250816470977398,0.05451332369282851,1.1278577540465724
0.03923847390896946,0.3753817044608173,0.029404507236866474,0.007498605727251282,0.05472705570597228,0.06502349925480473,0.0559317205492972,1.1109729864194118
0.022030690266191682,0.38451197194835685,0.02003860337610966,-2.679176067629102E-5,0.04289062868667182,0.05807429885068785,0.03965777931335556,1.151450988063387
0.06859547243134592,0.4073384169034363,0.08138882627881085,0.07035879858030478,0.10409994197398817,0.10129983476719555,0.095193438908957,1.1184125030879128
0.057846093516590105,0.39659806288515614,0.052876941732336515,0.04468712050871922,0.08808508459003303,0.0888157960802662,0.08193903858514948,1.1449138268272152
0.03663387030252081,0.40870190471370993,0.019951157158603825,0.007931462402964811,0.061655969589857036,0.07554772246685781,0.05444549565981671,1.1769847918158642
0.045920662843188985,0.4089143404314931,0.044540874163450817,0.030678146298647277,0.058617853199290415,0.06657047963486058,0.0441626160654835,1.1396357689289902
0.07065736987572155,0.39600819131672793,0.08254295620772531,0.07306600062752266,0.08220074234302925,0.1038416912485739,0.08828847019554048,1.1254523024511616
0.0540840594267787,0.41323812444056063,0.07018742409430809,0.05410613964913465,0.08574341646859235,0.08703425526352492,0.0759467334915472,1.1315375154284344
0.024900870952423357,0.4098724112044928,0.012921359669379706,0.019053368409349247,0.06317856327337536,0.06425934114355078,0.04571724060260965,1.0917007785564388
0.040119542251196884,0.35055775847690757,0.048946449900735184,0.050700525866381074,0.06397049046752823,0.08399814220620741,0.050684496752881524,1.1668084925575963
0.06957769831389506,0.36598365422506596,0.07610101008428544,0.07041639244249458,0.08776149703375767,0.10217961647586574,0.08374801426059858,1.0517376741555151
0.04448900510084214,0.3792021192079355,0.07402404961923695,0.051533769570811114,0.0843760217076117,0.09897986073165854,0.061588409586945614,1.1390170570953513
0.00982437684490223,0.38858139331728947,0.00964265647916402,-0.003833491558396485,0.057967755345349314,0.054266667703775855,0.016716019952722323,1.119118316511366
0.040054300220736826,0.4262978138423327,0.04835497050278961,0.04139830453162345,0.06169094261506719,0.06418948578128411,0.04266554247925499,1.149939264761943
0.06310284845744232,0.3924456185799009,0.0625096992437985,0.07290507966098828,0.08551984200853814,0.09173078784141137,0.04633386242950218,1.1341077317374553
0.050013665442023375,0.38058864896425365,0.05609443634826909,0.04592513498843604,0.07970559135309031,0.06713145218267604,0.049142710744035686,1.1044335764335047
0.004833651551315125,0.36353107884927993,-8.528689134597554E-4,-0.009816059995342376,0.05010807163393442,0.04852938125759004,0.00942395436602957,1.129390002252841
0.04393816063720296,0.35525244649524557,0.04552471595492697,0.056823348215650285,0.060335500980009504,0.06114901137255879,0.039315347716576673,1.1274470450407188
0.04767066813593418,0.3724150086574012,0.05613941643990215,0.04908897952819673,0.07455353175379426,0.06631582522081453,0.038150876611152386,1.099163462173172
0.023846625274125934,0.37574645798323003,0.030350882093155965,0.03803441081088037,0.05087952633374532,0.056870431080980687,0.019050803992054558,1.1252847087497135
-0.024952911523881457,0.37725089590905697,-0.01575328855911424,-0.02565515108451044,0.035925013090046067,0.009339902597072373,-0.013507518115066914,1.0780866472900115
0.05211526711282936,0.39071930680011346,0.06864953476671146,0.06729250984758844,0.06606044210835223,0.07032242410103062,0.024859405561438983,1.1357793615264087
0.05835398946114999,0.3578926528382656,0.06213451541458545,0.059579607882452354,0.05849139189753332,0.05358379871922474,0.023783419871228215,1.082458274264519
0.028154344366883906,0.3914547706592987,0.03826968522322876,0.023528951981262328,0.04244786063715003,0.03737754737788555,0.010640657579122777,1.053097803229676
-0.007146604933468456,0.33813085786196717,0.01249116718941714,-0.005997675664798044,0.02919175496004758,0.010703436530635537,-0.028485769386557485,1.0692200100877376
0.06900589705545737,0.3798265581311776,0.07872762315490035,0.07884119247206221,0.05898389055749279,0.06025253067144852,0.04123769513505133,1.1700901484103479
0.05866474161315941,0.3818852799528075,0.06858384439427925,0.0392993116848423,0.05990162148729936,0.055601518286493706,0.022909189271867372,1.1415171661182921
0.026187531520878722,0.35767183134763014,0.03499751003746707,0.011946977660729698,0.033282130998407385,0.03327228371884803,5.747117440827072E-5,1.0466170175599367
0.01176995367766236,0.3774747954500383,0.011373430409655683,-0.024023463178328826,0.0204787966027816,0.009394166742574702,-0.017011831952098214,1.118171226138575
0.0627218799451393,0.36942233405386504,0.07930046227500595,0.07425649627233555,0.0544433451703838,0.05914689947067972,0.027112824726606,1.1094030023360364
0.057554847374623554,0.35672856574519884,0.07386346258365907,0.03788094189484211,0.047237371083153346,0.04736538825508946,0.018512196186352192,1.1046534978066938
0.025831381357768295,0.34091321009728714,0.020183777500502757,-0.008186816269121615,0.03506143580433961,0.020051875912087704,-0.004585055379929322,1.0914430055669926
0.02013901685858821,0.3742032815183561,0.028457764717711026,0.010109480366838897,0.024280929553994947,0.015199889960748307,-0.007230187441657671,1.0774375493788386
0.06941879580280141,0.3571064193581358,0.07723792922395484,0.04609273344152595,0.0484461136196503,0.05111566659715973,0.03867544654171014,1.1001221622440955
0.06116800361687309,0.3877646010163627,0.05852626268957867,0.042486744926505365,0.0410595882329863,0.052343962279256986,0.028381039130200892,1.1168288071370973
0.021077040854195886,0.3750111880458922,0.02064168488227834,-0.00667912347078917,0.031698536035126984,0.014564296923308639,-0.002561847838293177,1.077244755239805
0.0489257906087811,0.3543381306198553,0.06780336465520256,0.03728382476402666,0.04445586146548479,0.02941744694400052,0.006910200585733762,1.076767102237161
0.08661574283191492,0.3535023858012124,0.07699665159238875,0.054087709357181164,0.04526941222711702,0.051814942998818114,0.04537833443605276,1.0266754784087369
0.06294347102389541,0.38528033513208637,0.05193658805336508,0.04773148573111965,0.05005865430078122,0.04680386435594967,0.03993057398307278,1.082317518653869
0.014558740228048239,0.3460395370764229,0.008160852415363986,-0.006219915805760994,0.02001716891196281,0.013311430049636494,-0.003627674628507221,1.104966472644879
0.05936813181604533,0.3496283525859325,0.0677756139924444,0.05006440081419687,0.055348668085360785,0.04099774616572617,0.03415414567756684,1.1383259177841842
0.0663949532364502,0.39163041836238127,0.07998920827521096,0.052260982831699665,0.05754117445988669,0.06900425791202651,0.04326744129149834,1.0918550721541895
0.05181022881187504,0.3745173695027173,0.049168296460104455,0.029340513914098906,0.04666305124249244,0.04892051337138683,0.03828398280287314,1.1511936302602477
0.0025289515313155556,0.3768114064840602,-0.004513850017333204,-0.027360782146270798,0.036110590744218414,0.023063213746163207,-0.0036938522807058553,1.1045133112438212
0.06823372295923606,0.3662781136784744,0.05853432097094489,0.04203778920086215,0.05510187365758373,0.05441168031889186,0.025823902101650878,1.1104152258342612
0.05376293513709768,0.3663220608401459,0.0629003003446961,0.04644672432007208,0.05530106192875478,0.049903467925924545,0.03630243122432633,1.121739528105305
0.04960147950445251,0.3331791906813206,0.04600987539539833,0.028083671414217706,0.046451815778126085,0.038918889894767654,0.02769564739239233,1.111539490956274
0.010449902231714572,0.33419707824026396,-0.0076137548508707145,-0.022649663092874365,0.0251359889845727,0.010231711497397208,-0.007717815190074077,1.1083595585273727
0.08878919813082355,0.33393821098824283,0.07149242957411778,0.059122030767534875,0.052868293186449276,0.050973873556281635,0.03675382605815931,1.1418552175491439
0.07036003980727389,0.382463987317027,0.06504488855348149,0.04747945413443433,0.054660791341439544,0.0661252211854393,0.04541444604204205,1.0899406981815256
0.035332528591214024,0.36776238620940194,0.03661903454034596,0.021742252929230356,0.04934044692393587,0.03841081818985911,0.019789781464104175,1.0523905983192838
0.0023824656262972123,0.3374510044661085,-0.013454575358004556,-0.04029017395385815,0.023734791276609064,0.006501690642435724,-0.019533877887515334,1.0969453277339254
0.06907305816277692,0.36407652995588663,0.0838918825220476,0.07398498537472961,0.06706880063265773,0.0628110891073033,0.04685708799875009,1.1034310753272127
0.07313615887192695,0.38410937316956584,0.07352650378268888,0.062143553612261766,0.06970924204332983,0.055674119228470674,0.0480705790876556,1.1306213109174679
0.04329541515647425,0.3943221784498066,0.03783893560807784,0.027866823817033433,0.059643619424829035,0.03997488236622109,0.025665385020907427,1.1286798088145906
2.3497701068135937E-4,0.34500270544355505,4.1461776434839615E-4,-0.03292443567786738,0.01025646025966692,0.009407589996194662,-0.01618077853532501,1.0920851401838862
0.07264850156607852,0.3370840140940104,0.08359972412326788,0.08385708160732712,0.06852421030794568,0.051675250222754605,0.02901348864308685,1.1558857035453265
0.06205115323086646,0.32806676645915994,0.05894705328133966,0.04508791491133897,0.06056515374991918,0.05687941220284612,0.03192216387255559,1.1360391697090155
0.03600652736751635,0.35270869912600117,0.031436882871201,0.014682172070115322,0.027287768222299353,0.04596640372781107,0.014912108032383988,1.1135882712963716
-0.01336889923543708,0.33394693913599394,-0.020941290098603675,-0.030114607399646415,0.021464904741921538,8.056392122464551E-4,-0.04053617995079184,1.1185019453464067
0.07485248014430589,0.3747495925604635,0.06989703472344992,0.06415253577150407,0.047953403161592266,0.056727063448849604,0.027631051546106362,1.123138201193481
0.040775246402355886,0.37048557935497595,0.04354344849536122,0.03743323800671371,0.04492163130763272,0.03324769665670575,0.011971297472244583,1.1339267962181292
0.022048718440391232,0.3464541332840491,0.012646464344839561,0.014806123269412354,0.028067596978605634,0.012036661243982845,-0.006981261768783095,1.1089889874664751
0.006453688274760512,0.34770124698993354,-0.002642562803050648,0.013265422450047979,0.008243576579940456,0.0028241302281693387,-0.03291564519877034,1.054701699777117
0.06817708581139603,0.3617149048607755,0.06354775882620942,0.06396544201705977,0.03322937214276451,0.02775933044904397,0.023499078278595875,1.1403283133992232
0.03456689191004319,0.379540278203126,0.05150185828305445,0.04185922984111865,0.03436343610748256,0.02197354666328071,-0.007154689940418898,1.0519683275566494
0.014608434690751612,0.3340150434027441,-0.006570823580784098,-0.022243894852550954,0.008496140647989961,9.93230411122311E-4,-0.032600400240826055,1.1033403619217517
0.010706894964948928,0.34980752805923143,0.005617319855000694,-0.013849042595562362,0.004789728594195984,-0.007871878882518207,-0.040486835548120825,1.0739420217667113
0.06765131382126977,0.36894344427101033,0.06080057382904813,0.05431476834079543,0.027697273647365524,0.03194132447066285,-0.008595460589417112,1.1475392721972688
0.047269710904996674,0.32985930246032275,0.0455643095855997,0.034113297040582476,0.025983252864258684,0.01973133699911708,-0.01130875245315812,1.107077543356415
0.013973506761381791,0.3090265778498584,-0.0010554362723659422,-0.017645803295919728,0.0021961614553038323,-0.008737217852312566,-0.04805057950399247,1.0896379861550463
0.04686829325599551,0.38458411790666874,0.048811239937207075,0.03735784461386753,0.013606421943290935,0.007416169957471281,-0.026289712581702436,1.089613511454859
0.07053671276143308,0.3483132312586241,0.06406283811389743,0.05862101886604514,0.015725198931437666,0.029251960249035393,0.001811855524743361,1.1369302747211987
0.06215230330313772,0.36346156150692277,0.048454486336807226,0.03969397065094399,0.024054829252618343,0.038256764974349336,-0.011206534586392362,1.126350049856856
0.009736590061267513,0.3362765826890889,0.004793115861154849,-0.01508913990152987,0.015382270521327273,-0.0023602105826913272,-0.06276665672226413,1.076722201110357
0.046983822058309435,0.3466433638977288,0.05620546786032975,0.03907777591124631,0.02004447192763386,0.01370051497735817,-0.012458181354745912,1.1229084805238532
0.0672931083654737,0.36076491531230376,0.0674259290389196,0.06710730540895868,0.015268225342641516,0.02686550662380483,-0.0011110226002412488,1.1135384432009139
0.04912507988331852,0.36427101822675656,0.04802457385069219,0.02328684788744171,0.01852756883585095,0.019549877585984445,-0.01269965480618216,1.1074963409805685
0.006948155947226271,0.2928013096342519,-0.0026235922789229135,-0.02226590796161328,-0.003658767906512983,-0.010332990896627167,-0.04990456438008926,1.010552378253226
0.06545282279204755,0.35606211424515155,0.07236336360535478,0.06534363464147272,0.02913216611871341,0.026478378705168736,-8.18166770989906E-4,1.0804462968160415
0.05529154696716283,0.33116151620942835,0.04642804952417385,0.039243400021824325,0.02485513595470594,0.02504435359730115,-0.021752608542539964,1.0734488386792815
0.03328025084801002,0.3515560426637593,0.020329724496596355,0.0065057781682986374,0.010029801944933123,0.009786405873743565,-0.020469985125869627,1.0660420539008557
0.02180726305879075,0.3814517349822947,0.015085381442053906,-0.007984084167777772,0.003918352689408254,-0.008508672920255648,-0.04018903871171565,1.054776708578638
0.07122612122236456,0.36047053148376185,0.06587456238566924,0.06337941391891512,0.037584898991497535,0.015665196295378808,-0.002469696404439982,1.0679457565074688
0.048163746660605085,0.3555655871097342,0.044144533792141144,0.03233069118326772,0.016143783132809758,0.0025440922297493822,-0.007046707192521692,1.040396581519418
0.007620931668556465,0.30219718552434816,-0.014763435096271437,-0.022762295319714992,-0.011702420341705773,-0.02363048760379618,-0.04246497915768049,0.9631018499890139
0.04571313026486357,0.3479738007217125,0.040382405591234974,0.029875919066436184,-0.010688816466005861,-0.008009119315751947,-0.0256415309944233,0.9350588662844852
0.04268196329503768,0.32967583934761624,0.045178553832857654,0.037906768888547535,-0.0032346430652205084,0.011669057481322511,-0.016998699488694854,0.9756804574649351
0.02582048021339024,0.34970498620823925,0.016284430257758276,0.011411862908837124,-0.015368599412488304,-0.003638718325931002,-0.041026156147718096,0.9474503457698842
-0.011867454666601978,0.31173249849980644,-0.024250873679077307,-0.011634125212452493,-0.026718649795027284,-0.04405610303143492,-0.07499983415672645,0.9639841794278975
0.044168719957061356,0.339686955618822,0.041538727942199496,0.035731145940208445,-0.009523915130982753,-0.004728636947194468,-0.019272073157679873,0.9717169774731742
0.029933293537535627,0.3277975991212879,0.01077474455852501,0.0018091834837067715,-0.010269056883692063,-0.024897168368100717,-0.03627339842552063,0.989355226094409
-0.01609550726076415,0.358053915906945,-0.03229305685077383,-0.03529977781929041,-0.025150190065852337,-0.04005480930062683,-0.06844964575693598,0.9602473150738532
0.013572941560834592,0.32402761008355585,0.020285451636454933,0.009245946902443384,-0.027485180016623926,-0.03678439263710932,-0.05681621279285973,0.9866958479665513
0.02715410652006088,0.3815545033531162,0.03545214231724705,0.013095180189308466,-0.01105955815574976,-0.01908634093818258,-0.048036668377422306,0.9822042266128912
0.022935847436896074,0.36751380028707564,0.016976303776406337,-0.012809605606722512,-0.010654030041039968,-0.029099481734880035,-0.061922663685041096,0.9413386458411663
-0.02779947953575962,0.35696415250378216,-0.04291912407263208,-0.0704351137544847,-0.038941715972405304,-0.06226892393205505,-0.09578911265507134,0.914555777062233
0.05348000292425571,0.3528121569482041,0.05182926361687133,0.038436518065671714,0.007091557597185589,-0.0186453395882743,-0.04738417485094955,0.963940030267036
0.044587782696195066,0.3480845138899209,0.027318537669588548,0.031403487058852285,0.002697656198340679,-0.02369882148188072,-0.04927559692356888,0.9758306523922857
0.01730936698699819,0.3717284065713014,-9.857962197263176E-4,-0.035078610817265835,-0.031898795656755,-0.04650666362044595,-0.06783260389896086,0.8889271923991954
-0.0029966242339988652,0.35454118215008146,-0.0065164045953053085,-0.02786015541915234,-0.031239977956063578,-0.04372886590342223,-0.08085398885180275,0.9039757872457787
0.0709149289782985,0.3668666643221593,0.06386590169537548,0.030991834571365784,0.0012660907885880986,-0.006230587185043084,-0.02978936032366819,0.9921656542261061
0.03569307673800237,0.38465125135922235,0.02325633172001352,0.006543442878559974,-0.00731520022717492,-0.030403143877108636,-0.04156805504461575,0.9684474379803112
-0.005205708287628542,0.33987670748832743,-0.02903410242206224,-0.06139486638371381,-0.031733230437824486,-0.05364022268797874,-0.07988296161139358,0.9748831197232438
0.01172541733280652,0.3770779297641894,0.0089206508738899,0.0012811352690662737,-0.024497120583776767,-0.049463118604611236,-0.06763473532275711,1.004376081829189
0.058321986484106136,0.34350103071356164,0.04053204338229656,0.015199837578967665,-0.005377949047904925,-0.018052841444097203,-0.03298650090405477,0.9461169443778138
0.04275015167164728,0.339959578312735,0.02119410969979266,-0.005312825426640055,-0.024988342666142294,-0.037469395310407695,-0.05791677095030071,1.0145053491670855
-0.024756863529615484,0.35339780845096647,-0.051944072292206794,-0.07248936946381147,-0.03261982457576001,-0.077010754352632,-0.10337147438229999,0.9560689942354756
0.016847444103339364,0.326880874899782,0.014216139666194307,-0.0033182735402296076,-0.026106577475042476,-0.052353341768235855,-0.07767363265198317,0.9763064206553012
0.04354029932608222,0.3564390685200856,0.027063726163927826,0.0027073593583018633,-0.017224794459817096,-0.04270502642511856,-0.05641057505925126,1.0194531194272645
0.02640020268684431,0.3436490240650586,0.0033176608491091893,-0.0236128281877628,-0.02243877111031059,-0.04332069494063908,-0.07417657709263699,0.9524429116271302
-0.014099745974720964,0.33324656806235564,-0.05331600393296811,-0.08404506104060086,-0.04848127904192724,-0.06882930712357932,-0.09452853434157779,0.9483711536991138
0.02394053797420441,0.34438868267206574,-0.0035328017328764005,-0.02846285602031389,-0.035799349021111364,-0.060863880852434694,-0.07094431309421592,0.953803493250444
0.037950890874546915,0.3715385533823416,0.014353873860766028,-0.023389305294113254,-0.022050012155175092,-0.04483713920601805,-0.05505533585794819,0.9438044078445716
0.024015862256717993,0.35171591369440824,-0.0018965956030494724,-0.03730981254914276,-0.027209694794004965,-0.04672260512180099,-0.0653550977652975,0.9355210875503064
-0.03434085511090443,0.3355218508291494,-0.06146227174439632,-0.09139832108207477,-0.052220541537719545,-0.08879845198398108,-0.10706878506207539,0.9823842048677804
0.010547172509447759,0.31411102259550694,0.007020990655885122,-0.02223357327459741,-0.024383466195208876,-0.06101890789482939,-0.06667701803266804,0.957291490535298
0.03159163056650317,0.36984886939468575,0.0065114754573140435,-0.017927453424819394,-0.020865753169481374,-0.04343857241324744,-0.05745894735221715,0.9431717058523579
0.017119714760581984,0.35149297023031456,-0.00256619130738462,-0.021524254552189488,-0.041081570444975485,-0.06268465339794452,-0.06616253366810375,1.043334701411792
-0.0281930248828648,0.3556248624616658,-0.05968969243280848,-0.086781580249498,-0.050230490985203345,-0.08566368308145887,-0.10353800892852827,0.9186768023743466
0.024092976929236704,0.3275451836718073,0.010366758499779437,-0.02523625072126282,-0.03423055225807841,-0.06297715595700068,-0.0903194265250533,0.964484424837523
0.02937437844984938,0.3598947885791787,0.011622407717098361,-0.021616631280080394,-0.021859642193551063,-0.051499612756719264,-0.06668163378059871,0.9586995717707602
0.022249126315025028,0.33294790682352016,0.0027073259451258387,-0.02602559592824541,-0.01717044650175737,-0.04786233898680227,-0.07771513817879597,0.892305178870491
-0.027135273956245248,0.33216322180653696,-0.0541367214869052,-0.09964899029252186,-0.05622762822123147,-0.08865093001037286,-0.12522377296865003,0.980241773933543
0.01857397623211747,0.3424737759435952,0.005131153751512817,-0.0093595489815394,-0.04226949948233258,-0.062230304918903336,-0.08106411296274772,1.0106341347074927
0.03480644970914389,0.3473924739690139,0.031652164834560584,-0.007794615248246381,-0.027438792947514973,-0.05111936573142844,-0.055813101042730566,0.9646719411301511
0.014932915547713702,0.3269501396519618,-0.0067060243999579675,-0.028256691598061417,-0.02311681127255367,-0.04955842636627823,-0.07374929919483102,0.980260689159504
-0.03350062737399985,0.2869732920671498,-0.058524423799302144,-0.09443973149383408,-0.04361283160892249,-0.09283883467524284,-0.12425153447779164,0.9508814619941162
0.026271043050498735,0.3378317183903115,0.023825088023940882,0.007795386818434686,-0.015512202070464694,-0.058370118384597366,-0.08556604437951443,1.0160620337627986
0.03416786814577377,0.3366189763217571,0.019393549160787508,0.01437966897393319,-0.011429713746920733,-0.04418705005060053,-0.06433256050240004,1.0217716622923676
0.02312033378737978,0.3793673474315208,1.4387725056670686E-4,-0.01660108038467705,-0.014038810049221103,-0.06070749515481371,-0.06689344503389354,1.0357426457809926
-0.02542585844691234,0.3422148167704603,-0.05227298191593147,-0.07891225383350131,-0.036801551210415055,-0.08691066651056907,-0.11482332669039232,0.9656910531698879
0.05706744890631442,0.3678035600054725,0.049447221672607594,0.023896521466429947,-0.008251702920413564,-0.04523132592778015,-0.07105358959121146,1.0414340393401833
0.051347059373465655,0.3690964685438213,0.04241397982363331,0.021942574009311388,-0.01300234499116451,-0.029101134404223905,-0.045895594756000066,0.9740012449884741
0.04616486193959148,0.33537846847277886,0.013638064779563006,0.006717313815956732,0.0032959689639919503,-0.037132131690725885,-0.05729243035466601,0.9731004332850843
-0.0105006073414457,0.29418249940675334,-0.032521049426426765,-0.04629414106785176,-0.01627704643440015,-0.07367947312226875,-0.10465630568316069,0.9948107521974727
0.07075825809771435,0.35135919026864804,0.07029816266551075,0.056521520305352305,0.007294783767893079,-0.031091845898631478,-0.055008588443474185,0.965804555848105
0.05228878585429168,0.321665469290786,0.05773268356865789,0.038101988328269186,0.023844722804117736,-0.022830191811686315,-0.04964028076136001,0.9767001279823158
0.035909048172500145,0.38282880549662457,0.03505717658852602,0.020056699061935544,0.01632074168005573,-0.03143288271888095,-0.057520761665386395,0.9738847379419722
0.006857138204612485,0.3484191833546809,2.4818379783149436E-4,-0.00984366230670309,-0.001968992376360626,-0.058605747493559776,-0.08846775404993504,1.0154117527404471
0.08720008450347502,0.32500094799403983,0.09583625909030347,0.0832360416929691,0.03282763944597272,-0.005480177382927429,-0.026874689226575682,1.0370644159138311
0.0697646223922539,0.3537997891851107,0.07164599183915624,0.08019335886285776,0.027053909194896062,-0.008370887302468273,-0.02516330124970822,0.9924284616250646
0.05201761352839551,0.3455032827068978,0.05241555869331774,0.04764294104807752,0.027648321638654036,-0.01940554670634621,-0.04368270321820011,1.0451066704595915
0.04073673384302048,0.3475433800756098,0.02372496370394388,0.028123715171872368,0.010123077903412676,-0.036272693955043775,-0.05535079970931483,1.0509711073954684
0.08889392625806614,0.3522481516245796,0.12605485123354293,0.11058695067810437,0.05821977583939711,0.024794841059678063,-0.0031304114894616375,1.0615137424127956
0.08940666564147742,0.34963192812069066,0.09204206326275388,0.09032378298309209,0.04268922544522272,0.014102705865437166,0.003742864578246907,0.9980201170119446
0.07044042589733514,0.3708841357974297,0.06427121678113834,0.0759003508835906,0.05046828287344452,0.015265716309422611,-0.02297696600773927,1.012752363473585
0.05133894601324063,0.3602006457473369,0.042900069417622186,0.04715270613555642,0.025142774482958506,-0.013950895503069091,-0.043899143198824,1.0106475929404917
0.11311113331897107,0.36769127530109824,0.1244569661107679,0.13135349049602973,0.06799671400167773,0.03959490530734629,0.01033776757988776,1.0600215619920788
0.1008037731805419,0.3826586661553907,0.10295854580669256,0.11651803623552404,0.052758662693768735,0.02339033174236977,0.00386995702975651,1.042580432692254
0.06904479755454127,0.3537415811369765,0.08361052676251107,0.08403412259739063,0.060141937024013215,0.02416084599458687,-0.014299545651455095,1.041976396704687
0.056666328117776735,0.3490744891583554,0.07010396489063925,0.06400381297786435,0.037193418391382224,-0.0010361349435967226,-0.039112875209921585,1.008375257788402
0.11412511689526877,0.41995214528375036,0.1292948529639856,0.13767612130923976,0.06905517522517197,0.038615868619446866,0.022106782949474955,1.0608351699815266
0.10936782068549067,0.36859296960510146,0.1086206248968521,0.10331194515344552,0.05942236432792927,0.030268357441405998,0.006122748841474568,1.0757242166917105
0.08414842356654506,0.38219662624869505,0.09121511791935813,0.08626037796047024,0.05226333423040713,0.018551890828158543,-0.02274418377171028,0.9817349672166191
0.04201723368351841,0.35428888856075375,0.05477879567262081,0.05934679395745673,0.026046011565412204,-0.013379070440327302,-0.047790002760114,0.9914349342629687
0.11801661430925817,0.39533435733973094,0.13659858709066977,0.1441109529527792,0.07151487323805453,0.045214446321516846,0.0084422821469224,1.0316243779545249
0.10528638105793692,0.37389586471936653,0.1082657388048286,0.12507964873951116,0.04846362020801022,0.0371128782990905,-0.018027553740481705,1.0079929650772228
0.0744812262635236,0.38007517550843184,0.08208799964094786,0.07387000681092765,0.04731005829503641,0.01262545776788293,-0.015320006181743576,1.0222152121063328
0.040676078817991464,0.3861896221409197,0.044606109848220866,0.03693058099102974,0.0201314392309478,-0.023198459095236497,-0.055214269004773664,1.0118986715647422
0.12107506222641065,0.37795899933215016,0.13668956253879677,0.13065233824419026,0.05471744521894523,0.03229983853781837,6.18012821829883E-4,1.0441205493009187
0.10677552366029838,0.35301005834592986,0.11490903497944344,0.11749956311724918,0.05598626509349909,0.020794971208861066,-0.004866489565607049,1.037579558095053
0.0707009142589342,0.3596855957671594,0.06926425856256856,0.07313940691177309,0.03284097503632937,0.008040131686286103,-0.03409829307754057,0.9887119308022495
0.02133458403875572,0.3489290185087782,0.031203255619207282,0.027461358741647356,0.0036412223393136045,-0.019941429897315503,-0.07318622473715065,1.0149403854425125
0.11304456999354513,0.38498028175051946,0.1268855345463412,0.1249627210936133,0.04472589814128673,0.018307731846636834,-0.01509665931461858,1.07229713355834
0.09949224205718057,0.35109204427759605,0.09919417398244665,0.09924470481029732,0.06304794942394773,-9.441639715108349E-4,-0.019053271562686727,1.0576274035035382
0.0656496756669025,0.38469005216368574,0.06411742975925622,0.06025690902670128,0.0323120903796821,-0.004408717161508792,-0.03996365145769211,1.0028364161572951
0.016190051232398663,0.3714509192873024,0.019090021517463085,-0.0093697298852801,0.002271218608938875,-0.05590907932661822,-0.08293214082558116,1.0049305215288482
0.11110815015592797,0.3660979449581089,0.12007473206076417,0.10632362836606651,0.0414699093744776,-8.132224881187908E-4,-0.02357751351736817,0.9755705041210534
0.08860322387504949,0.35433525638007335,0.08973338743636414,0.09514858927611662,0.03870657591176978,6.845509154643215E-5,-0.04934282841749939,1.0346751485370336
0.06598462220357104,0.3752646721527186,0.06067336360791267,0.05563213183575039,0.03282900477165168,-0.006931084343635888,-0.05200877961741382,1.0325902199206651
0.012827671062986726,0.3354800954840849,0.002562282798244886,-0.010376314649183246,-0.009879847088290799,-0.050032425891214566,-0.11141101383831922,0.9539022125385316
0.0961856796160081,0.3689084430480372,0.10898842126849494,0.09737667124673871,0.026486930159663875,-0.005448280909473899,-0.045433356983616266,1.008692240583069
0.09630111951321402,0.38462154471108634,0.10214045946877309,0.08606730367411193,0.02582045701407084,-0.0011614590279557385,-0.03725341596623653,0.9866519781541693
0.07443573662834978,0.3364878123247047,0.07859270555986417,0.06212836907831901,0.018895125529624995,-0.014128916808877984,-0.053367214709127,0.990854553260819
0.014311115639902942,0.3301549318528931,0.004251724272257611,-0.004109655026977084,-0.01596337985426826,-0.05081234848041102,-0.1006871118540786,1.0006574375062198
0.09738742161907399,0.38143320078018267,0.1272191317644319,0.10290326236731921,0.019507319016580583,-0.008536854756123868,-0.0535846089331575,0.9990557993285796
0.10122664270150931,0.41454676083323183,0.10700487220295733,0.1085252286403642,0.043023134087271216,8.91933218020842E-4,-0.040103674357142335,0.9939957998154327
0.10284876439855459,0.36739423263130333,0.08989204376149712,0.07867166211748902,0.020972683270039313,-0.009241435796599674,-0.04380036107543163,1.005095873897771
0.0467755211419798,0.33104619590446294,0.03671258137192086,0.024542831785794295,0.01729748971706964,-0.03521548147979115,-0.07927572669488792,0.9781336563830956
0.11269617767875861,0.38456008275718756,0.12276712440208247,0.1391338505362351,0.04898937972632336,0.002159264339961095,-0.01989996125689232,1.018474665103473
0.1377421352776041,0.3774163727633456,0.13594479431802595,0.1445292701177816,0.046671814603388616,0.018895864729673584,-0.0050263046262429695,0.9651050950924942
0.11936962813528593,0.37835882932776504,0.12943819384463368,0.1324540507540242,0.0463832513606029,0.016426088062769066,-0.009456119213139824,1.0583478249741471
0.07784966062505007,0.38074172059946404,0.07447223281114891,0.07880987691158886,0.02047304447142749,-0.018369978574873574,-0.04725147774792403,0.9656046265338972
0.14565503995301532,0.3947374606155354,0.1528001680085338,0.1572203222106796,0.059606849589491466,0.02892080405870808,-0.00634869187450085,1.0360352734553562
0.16106731161238333,0.4052949158029948,0.16851760049018755,0.1736039023379061,0.06465622024273758,0.04073380380583462,0.02200969928704244,1.0200770770790644
0.14702850262104825,0.40207740354762056,0.15846197920092525,0.16193641993192986,0.0550379198750693,0.05131947823926334,0.015035250325826172,1.0619867678597166
0.1027400178665871,0.37657290534613613,0.0998966327947514,0.09509762882369166,0.05122766824706193,0.015341709379145134,-0.034555428201794414,0.9989306507960878
0.14626765549477144,0.44204757788107685,0.16242950312825755,0.16142567065792934,0.07080268711634306,0.04216819758265115,0.002914033843473565,1.0258385759981379
0.1668296258337967,0.4064847579036053,0.1785789557511791,0.18442987545701015,0.08478194546037439,0.07108685682313591,0.036384619313293454,0.9792631613326366
0.16133870441322232,0.42255304712796216,0.17039421646679476,0.18678034098226826,0.08137824062648018,0.05830839233065713,0.027958575412699964,1.0551607774925202
0.10955142102648349,0.43360993244781154,0.1309923188885091,0.12284643180917251,0.047233974769221095,0.02451128660405557,-0.013851614357581504,1.012975741750884
0.13068618472527554,0.3848782662878163,0.13540301118365783,0.150752322577229,0.058027569803364674,0.03447979146237536,-0.005331799788569222,1.0563684674454663
0.16736538313167165,0.39797549375062796,0.17990711587015756,0.19656118818241936,0.07946290928910046,0.07063674870763961,0.052180051060598524,1.0530644476898303
0.1540681202215581,0.43903396679367224,0.17044175317104487,0.19724323382404207,0.07805562429677616,0.05879244283698622,0.029106437920681114,1.0378160462179014
0.11595809739418031,0.42065321316078647,0.12008880312773107,0.12753123034000105,0.0447872483909196,0.02361232123604678,-0.00578407211070367,1.0442697638998872
0.09831242800905723,0.4009545707508801,0.12273373405848628,0.12374226077149053,0.03010178125697118,0.029399615647071782,-0.010768963662774855,1.0382658393854036
0.17976351334994928,0.42206897241534286,0.18631228630006214,0.21825867691220324,0.0774502614630339,0.0766854910842105,0.04243457967336825,1.030022742927996
0.16503018183291424,0.43791704236958084,0.1840087253581771,0.20357917014170232,0.07328942108094388,0.0656013149269323,0.03261281647272871,1.0683149080024192
0.12024755809360024,0.39615381470923927,0.1273466494171209,0.14918732708014237,0.05344444496539699,0.03241409013058265,-0.008561190184969217,1.0645020662505724
0.09252605645415388,0.41696332746337444,0.11123727206619236,0.13279800941846992,0.030197162646853345,0.01707133897686634,-0.02334929883166499,1.064997989015539
0.18217323707460395,0.42571535278841455,0.21980838379320564,0.23549476592419283,0.07914126283677742,0.06551205751839734,0.04504664285255715,1.0304493581608012
0.1732967947942195,0.4023246215173548,0.17773605922966473,0.22119090381283898,0.06791700551214327,0.06009817758112363,0.04365883486816269,1.023919421263424
0.13101521148739415,0.41022889417526526,0.14221624625745616,0.16462330659869043,0.06442351752889017,0.05079380757767577,0.014104839306105142,1.0219668505823067
0.1034340787464522,0.39698374812689424,0.1084375028945487,0.12415116826535871,0.037608159560979584,0.02685031123085702,-0.03542449912780697,0.9905117139291606
0.18771756943774964,0.41871080227683755,0.19952676833789112,0.2358883471851705,0.07174154018086934,0.07252625331402407,0.04460384853947308,1.061128452320685
0.159155854067571,0.4161485978993218,0.1888894381937903,0.21235890762502907,0.05428303194308935,0.06976866390115743,0.039205176460507,1.0900315036086794
0.1347879864282712,0.3937439962884181,0.1524618735618038,0.17045712841127583,0.06563523820974682,0.04710583007321992,0.01727625993890782,1.0218862861515157
0.07542185795994533,0.33484911165107745,0.09350578556209062,0.11099037237765985,0.018456074278055453,0.014750648460973025,-0.024600112909727093,0.9913453209194263
0.1783714222869702,0.36476101992341203,0.19359103898155056,0.22659673843335787,0.059073601582388044,0.0710171848018272,0.03031495762396865,1.042673801670214
0.15688616740619282,0.3653715385079992,0.1751582063711957,0.21420728118187643,0.06387338051026374,0.04735913004713618,0.026726078111597745,0.9760181880546115
0.13781713036179188,0.33256594872575024,0.13925467297705424,0.17936812478658773,0.05467305161858424,0.04950695113817385,0.01827139328260196,1.0276937568404239
0.09334515470168835,0.34581206102342826,0.10670073328555718,0.11376199832965292,0.03497639822115122,0.009726145477600711,-0.016547571621801857,0.9969449494031075
0.18002819119432345,0.4289225745032703,0.21018066143375552,0.2257123074352766,0.06738616554513208,0.06645207568392525,0.028958611601601646,1.0158420986223642
0.16219315709903467,0.3918857577290549,0.1940788737661921,0.22017779538647625,0.07633678334164601,0.06748022864888392,0.025885394726024392,0.9810809987783629
0.1347252708974106,0.3765417115140296,0.16107648122360552,0.190972343762148,0.05362751921581868,0.045223539737876906,0.008999885203238099,1.0372855792171445
0.0928121094209509,0.4217328562388647,0.1044653817339688,0.1493424732203194,0.0423966840817515,0.02796684366378976,-0.017741219361877704,0.9880767877007529
0.20422202791040234,0.46171802378741233,0.23977562687651394,0.27878318232948307,0.07869830938900124,0.08645429858594517,0.05053201560773156,1.0512611824707667
0.1862555423674828,0.4268644532694634,0.21717597588452509,0.2590348409848912,0.08317288994597849,0.09340395291443171,0.049247149628868586,1.0086769063260441
0.16466577944521354,0.4145247681919394,0.19119359119727533,0.2182723164161973,0.08048116839818371,0.06888986206936587,0.03810249563486248,1.0831110012332197
0.1322684917816891,0.35532700736314593,0.15316194436022273,0.16166391791889478,0.058004995756746905,0.05056272337851957,0.006829631518125948,1.0092925805763482
0.21468371884313717,0.4071157634849977,0.2500089174656126,0.2679753666298178,0.11106608578088083,0.10882010790136852,0.08071600153884123,0.9993093262575519
0.19639604562155266,0.4243351506198821,0.23656505104362113,0.2447496139401813,0.11266052032627029,0.09634510929320858,0.06766413955836431,1.083523912006789
0.16989570926985154,0.4247066871462988,0.19438404206306348,0.20621170277272077,0.08689771471945013,0.08564584999710104,0.06724612770345739,1.0739788873763718
0.1204161421501936,0.3577773204992847,0.14821324939625957,0.16884760677632912,0.05522878645075145,0.04824571390274725,0.01905808470362884,1.0098098946215694
0.1968435403894567,0.42872107674977084,0.23872750130347442,0.2742312792365025,0.10408065535013189,0.10319554802382133,0.07914026452291001,1.0631191213078215
0.19185943873694758,0.4159563229113822,0.22636717740327744,0.26344290585228103,0.09446656165796129,0.10836290520823749,0.09324693319576816,1.0327696498856782
0.15791569752960802,0.41428656765656713,0.20032171402673227,0.2293403391880487,0.07759549054137341,0.08597804744470983,0.06271941541247782,1.0678559529148501
0.12195468901090042,0.40791449771718047,0.15633862206448282,0.1781831620596579,0.07416191593309661,0.05666637553542396,0.026165482392797215,1.085601359538744
0.2088127256265473,0.4127872083259258,0.2452387430425662,0.27575731996336295,0.11588292892263989,0.11779348330414052,0.08976318955835591,1.1386101957779502
0.19082753923519885,0.40312579692427447,0.24843532677331584,0.261053061889652,0.12213894561706574,0.10864892631108902,0.09889083396262323,1.1118885779353735
0.14185716611452281,0.3717637597500628,0.192912592126674,0.21165779297067755,0.09686789482860321,0.09412871033557069,0.06147653412675674,1.083616810332454
0.13929118377708483,0.38849457963229245,0.17721690834039455,0.19425066592542034,0.0902985186086055,0.06837155029751456,0.03925052774290584,1.0574074034901446
0.2109837924795478,0.481970179398439,0.26514082881113654,0.2869793312971005,0.13839153609551133,0.14095145897887207,0.11125771575221904,1.0977432709558794
0.18788005072463615,0.4528494636770236,0.22947864163503212,0.27122826907631803,0.12962311136310656,0.11862757825372736,0.0935320255996038,1.0608354114048726
0.1531307863229936,0.4731458739483072,0.1948152324073527,0.22408874868408807,0.09597768058794653,0.08541253863388937,0.07450240675484149,1.091309567649056
0.15265359704505133,0.4291078847207443,0.20379691721081145,0.24177415159569207,0.09190532127348718,0.08880329690474627,0.05982700544345641,1.0825301713212703
0.21021245501381472,0.47541480439206274,0.26518567905450585,0.30143714620974427,0.12622147427059352,0.12319246670206915,0.10680559509174695,1.0773004702079039
0.18051252304279,0.44451469013077116,0.238920691150817,0.27915457244694963,0.11112790124706451,0.11568155547515922,0.09892948054660061,1.0753670647237112
0.1396432434339538,0.4653893974054597,0.17806582950061609,0.21942523915274265,0.08433560592691747,0.0781635681561048,0.07652008974329413,1.107171254678051
0.14452809670796588,0.43392526799399506,0.18895206795276065,0.22285947322674055,0.0819638171473018,0.07105182747649917,0.048464427331283505,1.0349736485686762
0.19175908121269608,0.4761196738599354,0.24153306513718378,0.27449852104645633,0.11415285553127948,0.1011446775038275,0.10141808814671002,1.2005157099739634
0.18158365842724078,0.49842405839549686,0.21720985316743543,0.2649512977092338,0.09487157902952521,0.1022253435502643,0.07811334329622532,1.2017361199962164
0.11988161812279041,0.4446473713715057,0.16165279495593726,0.19246591295082083,0.09303439696594357,0.07600737400933158,0.0632278821147827,1.2098533099789515
0.15865002845410853,0.48250534107661197,0.21098068291406843,0.26032568259930056,0.0913152854405668,0.0931958730198688,0.07873100950759296,1.1723045397539051
0.16746549323335366,0.45705298338171063,0.22160789225428598,0.2525963350637622,0.11840614919535365,0.09524984595087972,0.09128001530329416,1.1317989668802124
0.1481137994334775,0.49001951864348553,0.18816576517521094,0.2334534818330055,0.0861907185440306,0.08259190642527135,0.07776091354675221,1.1787178463730845
0.09998698191783087,0.47795711403882984,0.1466119615247713,0.16864645822408725,0.05983152606164692,0.054340115333435954,0.029842799903593002,1.150633667940368
0.17973209141607988,0.5003298878473105,0.22780372582317948,0.27196509679653064,0.0913642734477052,0.08650380598687032,0.08200012997097508,1.178271307760706
0.16989872052601102,0.4981686151016418,0.22928556286244817,0.26075574832675946,0.11552385284599843,0.09753300871815307,0.08556695653766772,1.1724417316213656
0.15274297837766876,0.4604693990222559,0.20225080185825683,0.23009026045608233,0.09234997180323254,0.0811975849240717,0.07126099347657028,1.1726462162746158
0.10825249885543406,0.46083964148443557,0.14251767996177092,0.1846018193318224,0.07272639378298312,0.04878510229044382,0.029196781361299717,1.1652687060804205
0.1966262637169356,0.49328264407499955,0.24042104594630723,0.29102260816971876,0.11453536384787422,0.0993157737805849,0.10378724226108965,1.2272273576146437
0.17774080736110748,0.5204318136405327,0.23583044630619182,0.2730510864192666,0.11014221365744689,0.09973373835798759,0.08772557625735641,1.153239728729111
0.14764295940474104,0.45432630767802884,0.20758417979353325,0.22683394390871056,0.10623366185203496,0.0808230747235253,0.07074074933724045,1.175355879884609
0.12559320766320664,0.48299288877308266,0.17550411132026866,0.20576613919680067,0.07687821573348244,0.07077345897727468,0.04414289369927648,1.1796351723990173
0.19818556248827632,0.49743422160804796,0.25048786235009124,0.28637265314908983,0.10978470448427956,0.10868819862459035,0.10313533016294113,1.172961822549407
0.18900014306183718,0.5137771738205584,0.22229719329916398,0.2579906913281443,0.12219324794381464,0.10944291860147566,0.09796809602040818,1.214568276916674
0.1395337925538724,0.4821195337754145,0.1848057148415972,0.2108496627236899,0.10386965069603767,0.09490853448385647,0.07980432479702704,1.1352228855254514
0.13797243607971174,0.4730402151590563,0.18733453653421833,0.2173730584732778,0.09359395023094769,0.08336253566481583,0.0659835410667707,1.1888404801707966
0.18060438966263698,0.49156391961723217,0.24016336161934354,0.2820860853659968,0.1082514725621436,0.12001485601609913,0.11860562860084398,1.1540538744229436
0.1810015982335404,0.4814953533407545,0.22344739052803414,0.2517494118309622,0.12265708367459187,0.10571929362612598,0.09932884733474666,1.238787740210752
0.13747872959128785,0.5088826548673415,0.17320662808656515,0.19629326407753048,0.10062861765891379,0.08288803135436218,0.07264601738859637,1.1510552536167293
0.16621901315517282,0.5208403880897119,0.20835647517624675,0.24961324479766434,0.11145074253628057,0.109366188846171,0.08730683856164537,1.1576278913225686
0.19371383285566968,0.5132197920918358,0.2395605026750227,0.26372407733839354,0.13928668482257023,0.13409594485778367,0.11981781691488493,1.1597493360070579
0.17976411826779232,0.5109551206727533,0.21089235887356567,0.25409186235366865,0.11356102157759472,0.11955185757325808,0.10564380217347383,1.180763079720897
0.10373723477771182,0.4542667085822543,0.1573192682072398,0.17631760414242736,0.09856226403477157,0.09014047931617877,0.08236365763143855,1.178688523686929
0.17904937230183338,0.4903555882506173,0.23848715076364496,0.26930657274265224,0.1336674575401238,0.11468631957205505,0.11973358705944044,1.1951935912238576
0.1877625120211271,0.5271561622019705,0.25019565442751046,0.28514388648469446,0.13938222151949645,0.14308764399560797,0.15197769057736082,1.244948788314458
0.17443798003392902,0.5276838052105246,0.23266291597651814,0.2580348468785223,0.14666330576855005,0.14517514932350487,0.1294337099609887,1.2015184795172662
0.12694315238277765,0.49316138657627445,0.18727009392157448,0.20292130503802297,0.12947183891522088,0.11186613203360568,0.0854383452265671,1.1213705682125277
0.19680319741954655,0.4942899457678406,0.2634932329415644,0.2985331599795503,0.14128082211978474,0.15793116167519683,0.14550819265546153,1.1574672731287943
0.18817597117780827,0.5165948245129403,0.2554624810605499,0.293236740792456,0.1609780036816145,0.16508207431970798,0.1489891639051512,1.1789765781698858
0.16286903546881365,0.4654379957531273,0.22150840376896652,0.2580087627459414,0.15164877097467447,0.14150310283468212,0.13026735441914936,1.2678056367352746
0.11472936835493308,0.4724156760784294,0.1651877687953251,0.19885353822464663,0.12323437321501418,0.11426422544375701,0.10176652871498788,1.1813605826330444
0.19894662302128951,0.5161639611388894,0.27103529943071947,0.3118723794130326,0.1541056644691745,0.15100182381229507,0.15673008702882937,1.2208800806138516
0.17898741282338226,0.516589847889051,0.2502708417824393,0.2744741756333302,0.1550248500734202,0.16275033389267343,0.16425466065346647,1.1910730094468531
0.15250036501077174,0.5184793853279386,0.20636379407858424,0.2504432175591524,0.1468096033148009,0.15100637527735913,0.1375346769054673,1.2166392153709915
0.11479085568642197,0.4845470109516563,0.18101423470269473,0.2132349200351214,0.12004597240730615,0.11754137577363631,0.09776426382598208,1.1925893218566244
0.19212246838296604,0.53638630758532,0.26903573566083455,0.29169044450201664,0.1532052536739811,0.1593019290819248,0.16730287077270534,1.159234602533623
0.174623313349751,0.5142250654784706,0.2360195076501599,0.2659536678177993,0.14536841980897455,0.15150281280865668,0.1371897670072732,1.2154236477298024
0.129782538054374,0.48474461179839046,0.18589750784830888,0.2156881693899703,0.12207770863465353,0.13153819109425915,0.12469084961248904,1.1875205149192045
0.13420074272103547,0.4896129272300287,0.21159150873563948,0.22790302756364011,0.11761860417101772,0.11996342794276092,0.11222374664985173,1.1850281910000364
0.19192333625249602,0.5299072627671224,0.2635682677344365,0.28797969421637687,0.15802558853641652,0.17617808286316902,0.16749292341098007,1.1874611931155323
0.17180505083523445,0.4814007699549143,0.24037650271205052,0.2584672770700898,0.1383618064632275,0.15641188258105515,0.13698430078904625,1.2192981949753778
0.12563325098950306,0.4691818971154051,0.17710539318498958,0.19223765519443567,0.1187561788161617,0.1341970148690233,0.11843168858989682,1.1878965764073117
0.16530384660494507,0.49591988712120183,0.22439942055271325,0.265934541067687,0.13513626808468143,0.14215880668323227,0.13896456808054578,1.187263871630539
0.19315392617955868,0.5320769220421395,0.2591511625945581,0.28760877813582314,0.15145904575437114,0.1616832960866354,0.17540043798758392,1.1911606757173827
0.18918547311549797,0.5288650635036372,0.24936627613838502,0.2755482064128325,0.1454674709366397,0.16631405274458386,0.15521010036450675,1.131287217554917
0.12728323006980474,0.466355643629645,0.1841385748020311,0.2002067363149383,0.13102586803260066,0.12686315305600743,0.11706923498596497,1.2110559787400297
0.19983137956129782,0.5031149320421315,0.25148321083880715,0.28997680461107145,0.1487115478025211,0.15829603275050041,0.1649600925913103,1.1809436339246056
0.19402925774440383,0.505375034535391,0.26643268480160065,0.2960309827793741,0.1459590107831931,0.15900879646418326,0.1772573646258521,1.246987849810494
0.17646803291802332,0.4855291171999884,0.2487374087758089,0.26682453098575376,0.14160315245559557,0.16664095858460437,0.1626785183395333,1.2109139120319676
0.14010424357785228,0.4810813623897415,0.19919777504645036,0.20660156610221347,0.11320534323141777,0.12407335480131183,0.12585564357821166,1.2299685100500124
0.21175803626470865,0.5090910006032371,0.2794100888203227,0.3048293114681261,0.14923676861788385,0.16623986171492866,0.17617114197940567,1.156367574990206
0.20555315704449173,0.5278712053295174,0.261622821519907,0.2948577662773333,0.1488263318563477,0.16808552980705208,0.18338218239816528,1.2367850636369533
0.17877255968070555,0.5096859228164724,0.24709237699343925,0.2575215764950636,0.13646438735351682,0.1500836497159067,0.1603923906271401,1.1914285841294372
0.15452154079977387,0.4833135726905307,0.20305210932689205,0.22389267842831706,0.12153405183515173,0.13784426976499486,0.1323508631049374,1.1859260585465108
0.225568325833297,0.5227884913085707,0.27518422062445624,0.3179312309750556,0.16464082351597129,0.1688942695223691,0.1725750497871653,1.204878460367529
0.2043007730610314,0.5269824817238777,0.2730364690727809,0.29122850782878007,0.15900171018311307,0.1753930908108183,0.1597005241583275,1.1993723861058212
0.1942880091384679,0.4925216095049983,0.22572141394034972,0.25186331048221505,0.14232235957392853,0.15098104536819446,0.14932904131103325,1.1652537463987427
0.18017168058151892,0.4864610812435383,0.21860159177377753,0.2389205172193397,0.12355708556717106,0.13631468448214462,0.13345101249518362,1.1391294577633717
0.22464490834535528,0.5098449799013207,0.29396746350830294,0.31087581092821104,0.16712512908500754,0.17081182537264758,0.17628557529407143,1.220126114459642
0.21318660438371423,0.5218275676027442,0.2624567445171977,0.2790431792145896,0.13842695418425044,0.15819790649355872,0.1610944533284301,1.1812092455341263
0.17408333162988704,0.5454921554230736,0.22443755446822833,0.23265070090475048,0.11922435587313766,0.13031001173792728,0.14059302002233756,1.2362443323720376
0.1556711414953698,0.5026975093826554,0.23181992189659395,0.24075477987080657,0.12368511354016498,0.12811456708906002,0.12616239870845555,1.2067130976798648
0.21652900887632223,0.492630900489405,0.2785825326108537,0.3035461064011003,0.14766263728132523,0.15623663682588543,0.16178884551733994,1.18161086725911
0.1915035570729999,0.4988416051830456,0.2528857947112636,0.291411653941342,0.14126936687176642,0.14849653203325366,0.15112130447123867,1.192935478250608
0.1600739387006052,0.4892129978875083,0.205928854822527,0.22697647117791198,0.1288170879052323,0.11947112860924004,0.10633553717983775,1.2089997122039293
0.18488611387310755,0.5018497922262476,0.24960714919098861,0.2650454116219598,0.13250195275190838,0.13259742308975694,0.12432323317980477,1.2189165591931679
0.20638093294699494,0.4723451216154193,0.26433816877634597,0.2836589972282355,0.13353074954924654,0.14433023276118917,0.14644904358452093,1.1903185875583397
0.19147140778228278,0.46877738952798986,0.24443293843136485,0.2696669524536378,0.12406280268880938,0.14128214749687562,0.13500145517900536,1.188076435132368
0.1317054582613044,0.48764064979204597,0.1882914768529566,0.20449723283514876,0.11145708800891717,0.1088049052981158,0.09238157625670682,1.2271801927769928
0.21144356045367368,0.5056884921652717,0.26924614130325264,0.2882992249109295,0.13834633416862618,0.13528275203476386,0.13064823015554158,1.2270352791382737
0.20642292119476885,0.4910803434436498,0.2835930086070675,0.2985392891362288,0.148958131609861,0.15535259257714187,0.14204368184178923,1.221600421793628
0.1956676120628704,0.5099144465899306,0.2578929226978071,0.27506339926892587,0.14562612983897327,0.13453508433119235,0.12129806227051813,1.2150226981578292
0.15211223806882748,0.5215514574820763,0.20200563384970394,0.2083627035045708,0.13571557395066308,0.11271591848934907,0.08609892558351959,1.2004707107066732
0.23492725215553267,0.5126048136037414,0.29629897270983474,0.3230273492003864,0.15521177716528153,0.15128056022778966,0.14205627114102318,1.2319262261034734
0.22465442630006277,0.4892176574238467,0.29321691090136565,0.31323202295777264,0.16594785253152275,0.15408768576648676,0.15294271991313974,1.2230744925825974
0.1930302719610029,0.5053606794909549,0.2633457649508818,0.2607142259060804,0.1496685639564967,0.1397942896798171,0.12574307440884633,1.1829637107539044
0.15000609405339954,0.49085848671621035,0.20693006230316696,0.22356072894458162,0.11280244319914108,0.10337210944847341,0.10256770041205293,1.177562867568924
0.23583590101338897,0.5031299903380435,0.31180916994703434,0.320900143567734,0.15577279629090668,0.1505964208285888,0.1555701566059081,1.2227509607098177
0.2214462191142454,0.5213740111934354,0.29735311362852046,0.2944931377130305,0.16358783238707592,0.1566172048090192,0.1401204558496567,1.2075291204617526
0.1880493994358428,0.5295021666356694,0.2436550593690235,0.2578097358490831,0.1417749066785005,0.12296181791947572,0.12479399325856375,1.2008692960631695
0.15627315443381581,0.492588459398788,0.22556659678246757,0.24317046152518118,0.1405889271746442,0.10643943539770856,0.101542619723901,1.1921287296586642
0.2359320230485574,0.5235316436307894,0.301863105443256,0.32239953031545154,0.1650573103456999,0.1485543434652512,0.14732224947727776,1.2764575644241118
0.21688226027220991,0.54694424084502,0.28938455235505045,0.28913252695955394,0.1575877322768236,0.14206212501196616,0.1371061746359265,1.1915484014357092
0.17645794350189514,0.4925956582542433,0.2290647274827592,0.23728760368037718,0.11625129823677033,0.11760496166860512,0.11017511888768518,1.1965247598641224
0.19769902671412581,0.5066879777099816,0.26704290022333577,0.2687366532815761,0.13435379621711943,0.1078697263277163,0.12668193848610865,1.27809600032264
0.2460638079670593,0.5079962270596178,0.31098702258484534,0.33396069854859367,0.1576737244968085,0.1626868309657977,0.16579784663853195,1.2272152007880825
0.23141621183822164,0.5390964883322382,0.2972771825309256,0.3037281538494197,0.15994280314832457,0.14784997299489652,0.1412283132814423,1.22954886156618
0.1751931550125856,0.4792588839659242,0.2230302430474088,0.23311639766324288,0.13765516534237382,0.12581973746195987,0.10736782667578448,1.202372967428037
0.2325420993758965,0.5621650459954942,0.29554014204604995,0.3131717663226993,0.15246387258129107,0.14478514016756705,0.13003460071451461,1.224977705188032
0.25209199755836253,0.48973361747137456,0.3291687450957116,0.3324863756796485,0.16506612911507695,0.16283150617807382,0.162877391087897,1.2648616589411015
0.23543593032943555,0.5132982321952911,0.298820449805054,0.31021901010710845,0.15703027414134466,0.14832460518323243,0.1380599209082778,1.1724264493342658
0.17775592017378472,0.516405636472318,0.24565263077814764,0.24882944361207346,0.12513837387420437,0.11124077653195158,0.11252454748858048,1.2057821401171231
0.24820062530261955,0.5425292870875668,0.3180680475662067,0.34200495813439874,0.16994719484277818,0.16850742338989866,0.15360700361941645,1.236699303342476
0.252557238728508,0.5258326552240802,0.34162575329590167,0.3530752455364169,0.171962577229837,0.16888673819144862,0.16911484115036327,1.2376421506479456
0.23581061464702022,0.5046466344241639,0.29926142022018126,0.3173769193999767,0.1685709747089143,0.16336303427889604,0.15908072221354252,1.1816651064216952
0.18581877815932812,0.5071868216576481,0.23934922169752743,0.24014910172815468,0.12800738506453344,0.12977387384400071,0.11877092743788381,1.2565343448280717
0.2563987049149834,0.5323263983169876,0.33366576714239354,0.3535336628971501,0.15366806556592214,0.15531602840915112,0.15935314292503855,1.2674883083296256
0.2552841456679169,0.5492014862145504,0.3142050678250482,0.33019769110176617,0.18078715733145917,0.1578568325826349,0.171886897409657,1.2519869128479046
0.2167353751004939,0.5609060479953675,0.28321717401373736,0.3078143745290868,0.15117639345840428,0.15493651904434527,0.15662047877055257,1.2413210692372727
0.18423795285133165,0.516459325087247,0.23013963897736278,0.2517096494817349,0.13252607236134906,0.12294597844194308,0.11744598647624013,1.2469044396460742
0.26718624918522044,0.5674867129895308,0.3391147764095413,0.36354513121413023,0.15354104302091504,0.16516392894627835,0.16528420509132238,1.2141165815462198
0.23520537407544764,0.530270347298665,0.3120958154928918,0.3219306758273644,0.14704001292975633,0.15733598169323754,0.15645029949780717,1.2510331223805313
0.19080860625687895,0.5368531783077596,0.26573814024057635,0.26370909090487243,0.1498780761839813,0.13305446731172127,0.11474136392451781,1.2523848880297035
0.18736633284846735,0.507046264715959,0.2479424950734538,0.25680157285634353,0.1350068900221952,0.11531872630380553,0.09180801001952514,1.2010925906205763
0.257215685646215,0.5153461048613783,0.3280756108985956,0.3417114914433456,0.17201939606893407,0.16062825578849585,0.15963598811907592,1.2432237215409094
0.23893592159868732,0.5908584385482163,0.30648229069642174,0.31889033485364127,0.14247075191886754,0.15302051724530347,0.14969871091749307,1.2073402340163943
0.18080740390378364,0.5311798124048467,0.25108574898800634,0.23968162825650596,0.13414904087218454,0.12310045653339145,0.11706896510825557,1.2044660137131868
0.19893267798730097,0.5436167590378547,0.2833205389683102,0.2835758235848668,0.12976386522763264,0.1280395668562504,0.1137143659218376,1.2236787577651675
0.2542854690782989,0.5620200978274982,0.32235073205420206,0.3367387783195259,0.15894999154391964,0.15752753704794994,0.15243629389935545,1.2418521077174116
0.22522126115843039,0.5303014463336382,0.3012935380943187,0.2992404567525242,0.14698187397062518,0.1393519875513751,0.14014029383995855,1.2145885887312362
0.15936174466619937,0.5438211920614279,0.22762469521880913,0.23280590979476487,0.13279797861525364,0.10734296134688573,0.0998806089432715,1.1973332918189277
0.2192421619617056,0.5448182403121448,0.2938038399901266,0.30019686078142754,0.13823588085887892,0.12997696147275295,0.12165856366033545,1.257289280021202
0.23166229349740358,0.5509060827212318,0.31363453394390983,0.3130912326431714,0.14829211223748276,0.13370004065433758,0.1524722348576234,1.2889595091129697
0.21740281757542163,0.5460780260301669,0.27949225191924054,0.293178036862872,0.1479166653694063,0.12886914808314862,0.1214842239464266,1.275988128925332
0.1657767528988786,0.4827395759684347,0.22804684929287095,0.21885545307690882,0.10359432304637006,0.10016058451124327,0.09496533379020258,1.1648391009591403
0.237555121704278,0.5657106906811428,0.3133332550468913,0.3226007904728245,0.13988173604317025,0.1395950848793262,0.1400008156459539,1.18255399042791
0.22795595708501598,0.5395775523699534,0.28745253876130533,0.30740406177533425,0.13207930125665335,0.1312677127926927,0.13057178497536154,1.1757239504088015
0.20531703270439605,0.5206493295023571,0.25096607972851864,0.2544712857375174,0.12628441323320785,0.11718804448899994,0.11354509323826889,1.2332537351191337
0.17568752248319452,0.5420994012221121,0.23359726123655333,0.2446703279675328,0.10707679067114084,0.09536053537432837,0.10022204903335989,1.2002623268074284
0.2518602859806461,0.5588375372469766,0.3280557534352668,0.32338268045079044,0.1530518767032236,0.16020745304294481,0.15726133659726,1.2246021578438784
0.2420579712034328,0.5471694192088847,0.28974299423224337,0.3068907470731171,0.14265721069625512,0.13681352120079543,0.13796469007568574,1.2004795213615278
0.19721273292936162,0.5101477698554936,0.260365661662622,0.2660908081047708,0.1300781238958879,0.12625861810214126,0.12163080367302272,1.1962286821912576
0.21889969411918703,0.5479638752190102,0.2922471554980409,0.29442665068159174,0.13735284300816003,0.12912409738771877,0.12985024850107407,1.1858082780583759
0.2555254211874376,0.5561782754803251,0.3359994431682324,0.3429967939096329,0.16013102639902435,0.17615441238709217,0.18130961806680337,1.2324541630565031
0.2487014763274637,0.5247200157028411,0.30960855565114465,0.33292444628417994,0.1590910534879316,0.16714140785246215,0.1696962623128625,1.1959333838900885
0.1963918668566859,0.5334140350409855,0.25495841526476315,0.252530192813237,0.14894113718095486,0.13861528000739826,0.12565047833410165,1.168684867744635
0.24921878662907035,0.5461440784729764,0.3266962749647274,0.33981349437105923,0.1718178211665723,0.16953956486640964,0.16860283141378654,1.2215462152480405
0.25864783661689983,0.562363829496104,0.32474255925403117,0.3522177905259535,0.18045195711610504,0.18129691371139575,0.18384611545264995,1.2628508211354732
0.24026205080890758,0.5505307664176374,0.3070602067742384,0.3282758752872016,0.183915555769301,0.18230522770245267,0.1736250902369672,1.2216585724174538
0.1967072037205247,0.5337493301398275,0.25686894016789863,0.2686422851729137,0.15418153716278135,0.1375944661890735,0.1498016994001558,1.2013976672638198
0.26951806116405913,0.5768065309883792,0.3629048407246819,0.38166522999906316,0.20070981481825398,0.20577873210136993,0.2086714018257288,1.2717830780906139
0.2516246858126111,0.5568524796649009,0.33436509058687136,0.34755587374651087,0.1922786579637953,0.19663804788555234,0.20541556271340966,1.174748010001795
0.22247520271325816,0.523724814149356,0.31513266052304095,0.3012751767234989,0.17839102338815316,0.18279180411541207,0.1819694023878855,1.2489059638946503
0.2069652290114148,0.5382766472515071,0.3003122526490381,0.3219133596744821,0.17017178848552283,0.17490044545591257,0.1735349248300828,1.226560470260789
0.2778466736534441,0.5705671336312085,0.35986194914352065,0.37650989221446307,0.2076018000869204,0.22651206229072798,0.23531535971345993,1.222824601289825
0.2533663800470026,0.565164745753986,0.3571211489169805,0.3625913821091783,0.195358401392442,0.21396564244971705,0.21191650194867573,1.2475858556705748
0.21628792189640844,0.5301026401246524,0.29357471696151666,0.29460198752468825,0.17732376666384267,0.19149713424304007,0.1781411793960406,1.2413220172233905
0.2550596734336543,0.548819230087593,0.35281047468620574,0.36947659134115424,0.21194680312385833,0.22198739559110903,0.2110839680665474,1.2304972724814176
0.2726733282170899,0.5701535387342639,0.37472720469369525,0.394675269845556,0.21626525959828563,0.2308556009176034,0.2254119698927307,1.2403928655244258
0.25242154887465107,0.5509402594375231,0.34654065300182413,0.36618924057902125,0.2165738098352343,0.2101364982851188,0.23483728415263455,1.2754707587245488
0.19846784418513458,0.5306556156159108,0.28701692929999345,0.2949364669233243,0.17187315132608258,0.18995988757182722,0.17538681117612126,1.204821276328368
0.27436313118180417,0.597269374145843,0.3663299599663839,0.4035190530699009,0.19895909710826798,0.21842184905389184,0.23750658971805405,1.2444132235472
0.27313974328175605,0.5875360609574549,0.37114867291897513,0.3798805783067823,0.20795570764883523,0.22543547284196414,0.23758091061378167,1.2297296491757546
0.2315184819242647,0.5252581886687012,0.3196759665056106,0.34342832323004563,0.19457434987192557,0.20869256709581482,0.2125876624784241,1.1724167448528866
0.20870260195929488,0.5558027131201388,0.3067979236406895,0.32646262512287905,0.18302480268338397,0.19380564035858458,0.18674824382208252,1.231297799419048
0.2858699232314067,0.5376914133858048,0.3748646589849982,0.4072291971478702,0.20344617924627253,0.2512706746298029,0.24362072561066794,1.2225195763443861
0.25643419391767563,0.5455455069425983,0.3501331453470684,0.37542996954500707,0.2058962615340326,0.22709763111534315,0.22651955833228193,1.191461923696874
0.21776495715005093,0.5323916760977816,0.3143031503005915,0.33096587624354157,0.18522587435481722,0.2038202560511384,0.21179875935883571,1.225051927268619
0.24640601988548794,0.5749755326316391,0.3463847044177328,0.3653077519240493,0.18777928751743342,0.2073416479133757,0.2092605297119038,1.1441663388351917
0.27903883637956267,0.573431173412688,0.39154104897754005,0.4110421754862513,0.20918145556620965,0.23038358568481004,0.24264201186986303,1.2030877525450046
0.26248998219752884,0.591593675792159,0.36629242361943426,0.3904230559931893,0.18683817281226517,0.22461607770163716,0.226367990455905,1.1812598614434358
0.2225359048120102,0.5311696653138875,0.30113287075000106,0.32534362082288637,0.17327890472801497,0.191006413789598,0.20114734166460901,1.1669612820755846
0.28056717598005854,0.5460747689221847,0.38730700924972095,0.40680774876002,0.19750900122379536,0.22215344967052766,0.24300320138474954,1.248695865498263
0.2677820714670248,0.5403979079791168,0.3712462306020108,0.39921855435460724,0.20406429349242133,0.223801514156904,0.24692643369066014,1.2203436370562482
0.24740259239348406,0.5573231100528138,0.3527101450001012,0.36755188867829724,0.1882991933850455,0.21377444719876965,0.2160758921032837,1.1589313441527553
0.2081806600112419,0.5607859758487731,0.2855928978204237,0.31537442402179244,0.15226359615213095,0.18109656005923208,0.16995360174208873,1.189507492932228
0.2919987383724896,0.5666103395987097,0.38791348102927137,0.3974573521930846,0.18939984627163803,0.22618039377373803,0.22755822692943223,1.1672047461584691
0.27097422329079046,0.5802471188675954,0.35121617737570254,0.3584832738008864,0.18713854843226602,0.20394460300033593,0.20332419839334948,1.192076992070156
0.2323427086910901,0.5888981280547891,0.30440806042376944,0.32641807921552896,0.16662687895216385,0.2013677976757321,0.1903941494766523,1.1965912268698702
0.22440722012838676,0.5699282623677124,0.30937331459544243,0.33722098774217074,0.15948989861532123,0.1775067585254762,0.17668682012653159,1.2144241490618564
0.2665830020727131,0.5314885259892496,0.3681761608212669,0.37803621703142665,0.1872413234527129,0.21412508347422682,0.21853030478392488,1.2212817122809663
0.25875329486339915,0.5623899347111836,0.33253288423126853,0.36473942948693855,0.17343337455346716,0.19414936879815076,0.1986007941165917,1.240306362978657
0.20693752654423825,0.5217942295555472,0.2776814463796343,0.2869907845291658,0.15075065359528073,0.16764640995546465,0.17520503529594858,1.2662130873310813
0.25540309795124083,0.5681144275536888,0.33930359896833723,0.3677393052854637,0.16486249944701645,0.17773409845682953,0.21109342435716327,1.2604611025479477
0.2684198725274315,0.5936767092575903,0.36432517836815864,0.3857581305913191,0.1783541705419862,0.20482498125248108,0.2111590842643886,1.1720809272456
0.25134448724269504,0.5674246530065565,0.326272312451253,0.34095691017796326,0.17286204753367326,0.1872950566150957,0.19031790870891743,1.2381768751249258
0.20328579326234322,0.5635041628328548,0.2767362912241078,0.2955343520366208,0.14686274697940527,0.14917990554786845,0.16362429235601825,1.178449890181203
0.280433756161052,0.5778895601213287,0.37270962144170583,0.40403768958093916,0.19101629196833145,0.2009416996897465,0.20589514750887317,1.2450725161611302
0.26420416084632375,0.571836652473668,0.33987338274740725,0.36480058321535114,0.18026119703067098,0.20384612004919433,0.19354439730219447,1.2082220909049657
0.22951370006606225,0.5378742841444942,0.3078380224514806,0.31531054085825777,0.16434881970059959,0.175838220022111,0.16737140407286816,1.1881791086869198
0.21765587615381382,0.5691824457750059,0.3008961197072481,0.3162048091862233,0.14275192281466204,0.15245785092254577,0.16414135704132377,1.150655253412839
0.2659251124543381,0.5526712242747016,0.3555972874657919,0.3666853669075563,0.17530731704325725,0.2015241046969641,0.2071172334513543,1.2058176560144411
0.25617222630300684,0.5547212262951322,0.33797600829391405,0.3477082480413349,0.17438191661399208,0.1769105298757632,0.183795399393467,1.202420267819662
0.21175004626246757,0.5479835353743956,0.29385736942185925,0.3008834319393045,0.16269100769693223,0.15956880074766858,0.1514224749047689,1.2160521273664213
0.262518079346749,0.5450134510848494,0.3576813015517987,0.37760438483052006,0.16834021873786859,0.1813116355743469,0.19169855554967732,1.220529703276303
0.2722387778017761,0.5434409619663538,0.35869001389617644,0.36223851945683544,0.18883826353402192,0.19297174101082823,0.1947663006334122,1.239744366773319
0.24696098201348426,0.5603165046874188,0.32007066588993166,0.33850767982594454,0.17300817605515892,0.18556476626014395,0.17935718751100216,1.216783929075732
0.2159076380780636,0.5570744842841051,0.30020424239655336,0.31950752030233,0.15897050453833753,0.16344740688911588,0.15761789469914456,1.2085380439248394
0.29034226440809624,0.5548792861610932,0.3913257733893798,0.4145930538434575,0.19443914471926949,0.2149459867351683,0.22728507902468362,1.2022565501936304
0.2894429216203868,0.5264059109955167,0.36990142112081437,0.40062738169650414,0.20404698835718557,0.21542990801028672,0.21345813509757205,1.1606508913753557
0.24994196854488823,0.5355948340778401,0.33967554459650695,0.349693504964551,0.18537911285488376,0.1961627263332515,0.18307811386498188,1.2413760323640695
0.24481263765975547,0.5796936870993795,0.32584064286616204,0.35905127452017876,0.18256110372294973,0.18756502873178368,0.1897330362404206,1.1914113426188628
0.29671822075299814,0.5728383708430621,0.3846482294992321,0.4013210567420623,0.1936054970599104,0.21339438763613205,0.22853391743419993,1.269933220839678
0.2821841109451207,0.5305852710544909,0.362443941154919,0.3958182705233121,0.19679529236816604,0.20267296373883048,0.22223965556687741,1.2339440418439513
0.23691859772531954,0.5497219895373601,0.30788989341006545,0.34566002221297903,0.18869878092177808,0.18309405973056556,0.18498581406056783,1.203132942563495
0.26909101771033145,0.5448051384002904,0.3490413817761758,0.38298867848013574,0.17987507193878352,0.19914842613877376,0.20584601738845348,1.241086346676873
0.2733112497776704,0.5682401919182716,0.36208654659313616,0.40320291748264786,0.20177624838677055,0.20598496728720544,0.21370514537099394,1.2397610203643623
0.2602625407849254,0.5632207877043613,0.3487545270943421,0.36945884925160716,0.20405150705249414,0.20634020111729753,0.19030789869106268,1.2104752247976591
0.2184375647613097,0.5405103506694889,0.2959883268690982,0.33467323275752453,0.16114061223628082,0.168089919944911,0.17227942362639592,1.2168658153174434
0.2931048651330965,0.5793720556404806,0.3767119757992428,0.40331503807210123,0.20891441386356813,0.2125706454554348,0.21880782925142336,1.2154207213538846
0.2690899345487425,0.5368136622962499,0.35927272824932366,0.38447736341551964,0.215086102927867,0.2159678902927273,0.20333652634366878,1.234373026346218
0.250405725699795,0.5538980772622637,0.3249252971309593,0.3410074919675266,0.1714667092303333,0.1801124355446038,0.17960388867505267,1.2536405538886048
0.22623632717811143,0.5515008458645754,0.30201650755249343,0.3139023200729755,0.16803202285645263,0.16926016242744307,0.1488340469907918,1.186945751970616
0.28608208247412825,0.5444906288522642,0.3643613996121975,0.41086774520733055,0.17859991070827813,0.21694640832345707,0.20241231471502616,1.2499223596926896
0.2590692846130435,0.5244886211885993,0.35185866216228034,0.3799021353144931,0.18871706634626267,0.1954686367012891,0.20043951555527556,1.2120650368478771
0.21799955828286632,0.5210506511880519,0.2927896875585112,0.3163434945149305,0.16523690937866348,0.1705973244261525,0.16875309267852573,1.2085343509173858
0.21716855572634713,0.5221991493774835,0.29985882871836167,0.29857213284618117,0.16222630922198739,0.14903351834207018,0.14088477870301014,1.1689375544427552
0.25481143467285233,0.5768803761640009,0.342597349997346,0.35297886093792197,0.17987594826131695,0.18560114117124993,0.18886820975697755,1.2286197862596153
0.24681918426250224,0.532631986693607,0.3211236719693,0.3277190442681795,0.15765208590610116,0.17382719583677872,0.17673849230350144,1.1835691695790727
0.19993515472497886,0.560260754493374,0.27210777009368325,0.2768205576677412,0.13812202602986065,0.1445721858418471,0.1243720985648634,1.2260621362779904
0.21802190249230094,0.5264830141872147,0.32116923277906384,0.3302997851737926,0.16475527268113813,0.13722202941230077,0.14767930615507455,1.2052551252073662
0.24655850471854107,0.5439418549657274,0.32922619870350767,0.32738640141405134,0.1578004816531376,0.15742937693876105,0.15600000328260893,1.217261322483907
0.22557529840195895,0.5510354956728519,0.292464114362971,0.3028030837246195,0.14289723930967133,0.14767070514020023,0.13405806156109557,1.2353829455993677
0.17398097665085457,0.5242098841438784,0.23200343391505296,0.24573532591021924,0.12008612378383769,0.11021832303131383,0.09797484136388698,1.2132353667054763
0.251533572194921,0.5672498581287306,0.32951097916951316,0.34378515189046455,0.14876206913979478,0.14702722954853895,0.15446815807358358,1.174744784377366
0.2463936534617603,0.5539304303205604,0.30832717105761187,0.3289130832415911,0.14436193011885598,0.15696530338184064,0.13749467744969207,1.254217660712182
0.1962101774931626,0.5379843365261753,0.28296994709202894,0.2810635976022814,0.12787279979126642,0.12807030006817607,0.1275679239008332,1.2015435995616932
0.17178468258348223,0.535179085153643,0.23595283560539732,0.254286335992039,0.12313751468102754,0.09705790745965538,0.09268091248568676,1.2232399330611217
0.24234020469976858,0.5326127647686132,0.31831522256923883,0.33535172084771114,0.14974759513911234,0.15129796570490958,0.15128636345625507,1.2398938249944664
0.22582668238377296,0.5478006617747028,0.2817196873340343,0.2958442333272793,0.14293545301163907,0.13165048490044767,0.11399240456630133,1.2230989532756074
0.1724361712530083,0.5444050473521922,0.2370338694238123,0.24355120591091564,0.12040669227039014,0.10092140633593374,0.0903589200668393,1.205020426549493
0.17301368464848943,0.5251953430844557,0.25533169575133025,0.26084189109591743,0.10684104717498659,0.0903232439233796,0.08538449847513217,1.2416385730425836
0.22113224434701623,0.5401545438886036,0.30168336102840154,0.30592198437583645,0.1378344869778982,0.12599541960836988,0.12467735439006657,1.2191210921749673
0.2019475855070521,0.5070247106757951,0.26595464268805885,0.2785746236221409,0.1470521434140957,0.11816769316755935,0.10810037825569921,1.2094273074308608
0.13724302982389563,0.5214169224544718,0.20856575518292536,0.20199783959975343,0.10182894512881988,0.0764829886250632,0.06257471224994116,1.2848485706483512
0.21866715797870814,0.560395133489582,0.2993262914336884,0.30434030699700826,0.14409698808272953,0.126019484242497,0.11533330310114157,1.2824401182486151
0.2057889397835787,0.5528835382902635,0.28037288718078235,0.28020372417807515,0.14711398885085128,0.12364811529271877,0.102473073966613,1.1768466262647945
0.1724755268294526,0.502500501209904,0.2520001844025954,0.23624443360245062,0.11469914829935798,0.10637532000520043,0.08693029095394737,1.2461219877962075
0.16150620161273413,0.4872011594204914,0.2159607256975122,0.22616744711604803,0.10608748624500815,0.07722659293956895,0.07373730853787487,1.216911017468683
0.2247236051987737,0.5171527807893538,0.3193825668638041,0.3196832770445811,0.15411373810576184,0.13116931207471924,0.1379014973993753,1.2355915929348273
0.2222949890800764,0.547606429479516,0.2899382648032345,0.2981904170714808,0.15250265971733806,0.13894084472809723,0.11183065480104212,1.2426714462746942
0.15882422631614485,0.49160027529597333,0.2295769787275086,0.2479313172036,0.1315647130557983,0.11145303760545774,0.07687557118364527,1.1977912304163034
0.19842640792323257,0.47778066324616647,0.27233448145739364,0.2756472143632527,0.12231840870652311,0.11339893078819271,0.101317807800254,1.205756781147968
0.23627620739546923,0.4899778368800708,0.29494382672581676,0.31677947189366507,0.15941529277746397,0.14931779526363234,0.14580992051667446,1.218543647409676
0.20648836721960523,0.515846778958352,0.2762787158477217,0.2893413400808055,0.15075296261784984,0.1437387256197208,0.13213336281447355,1.1761094941835335
0.16802309341260407,0.4634013597183371,0.22409799613071021,0.23611024721491547,0.14511133418395547,0.10497114803821843,0.08014162610883219,1.2019427306254755
0.23671764651215593,0.5220894409079602,0.3223024495846964,0.33738698926073535,0.17532841776464908,0.14850988871447685,0.14831933111359025,1.2270662680057496
0.22248696570410287,0.5451579076924146,0.3037622340613431,0.3209002443365378,0.17887312981200032,0.15731209864952966,0.16009247178344096,1.204524048670695
0.19626709805370787,0.5004582330848544,0.2682161526018344,0.27546122577204457,0.17326942502640547,0.1496606328394551,0.1299878446367039,1.2052767820399606
0.2003483495447659,0.5088313750707048,0.2875938923287632,0.2923905969064033,0.1623213813786748,0.14065450802782284,0.137036554358756,1.1838810319270414
0.25355332433893313,0.5334712445903318,0.34558777743289093,0.35077308022932474,0.2062916274404369,0.18261556410064228,0.19070282047974163,1.2302653253591918
0.2426138658082818,0.5043239769087193,0.31052356782862,0.33243543207984055,0.19108946013281844,0.1860948059163263,0.19235934511209785,1.212455164081613
0.1917894863647922,0.44338391569679475,0.27483299283277285,0.27604506276007545,0.18138659861585477,0.16981116120086748,0.1349430853285218,1.2051020810592736
0.263810871873276,0.48990414433188706,0.35878820375178033,0.3689107085393213,0.19483229167344499,0.19633148737283473,0.2029872293381022,1.2478353416406365
0.2748353928073157,0.5045691758266997,0.37368507705610626,0.3741858342808963,0.20639899522933958,0.2285187090988048,0.22531191843322396,1.215001259499659
0.2648383143346845,0.5124065171530966,0.3459057930792473,0.35438132870064426,0.23093244000129826,0.2016619369700563,0.21527856821062663,1.202122966003321
0.22622784003948304,0.5321787862219052,0.30550881251533096,0.3311385482172669,0.18916846531949194,0.2042705950263961,0.1838815383900334,1.254931017449811
0.30270635647823624,0.5583937731744002,0.41339929211625615,0.42668344137071834,0.2384517800509525,0.25455392691890394,0.24332818593660602,1.255324549547931
0.2945537544476931,0.5520794731852798,0.3886238003854812,0.4031259014939325,0.24326647644788782,0.25295022295600367,0.2502600980451783,1.2025875565357258
0.2666260123362847,0.5313606574240024,0.33839651104822754,0.3599365203165263,0.24777727722481838,0.23297438265907586,0.22603869233289522,1.1786050073860783
0.24527707077540611,0.5180370088209381,0.35096186977325816,0.3567986568201815,0.216461700127398,0.2212777997223033,0.207489516594487,1.243199963194649
0.30416870655445816,0.5443651293579209,0.42308689312927106,0.43900447790886316,0.2594587595855958,0.2669170641752625,0.27246212151528504,1.2675805973715055
0.29856617846385963,0.5215520904960241,0.4055688232576296,0.41624377665368906,0.27007274314675933,0.27593829703997,0.26430281747519596,1.1984515006870153
0.2644286976467115,0.5273430822064761,0.3547628141212706,0.3616464705755226,0.22743170373382599,0.2466372846059046,0.24137068129357422,1.2717833991429408
0.2891376383952008,0.5676285892173762,0.41137673701296373,0.42699427664038,0.2652152389291225,0.27122914897844724,0.2726004682825411,1.2616928166060088
0.31315544270693874,0.5889607763397783,0.42648761716607353,0.4452872305092928,0.27410456018639684,0.30217949086163964,0.29593648661453864,1.2597912793524524
0.2819854510238686,0.5287955323692388,0.41760118846002264,0.4246375709990926,0.2645839481170479,0.2930622027115109,0.2908017362071525,1.286716593116352
0.25582893169815296,0.5337356779086367,0.3686418163149399,0.3701902913400962,0.2374154294213612,0.2700546615157405,0.2561371905495283,1.2513632001816535
0.3179107525593007,0.5145844583530169,0.44035234796854683,0.46807101790795114,0.2675706126916335,0.30878837140127957,0.3121406778827799,1.2309769058791435
0.31723949393499273,0.5614147720914735,0.4452275436303339,0.4850694591174941,0.28782465534188956,0.3229471484428747,0.3202345476572583,1.1986292246790913
0.2906018351856253,0.5516868936169268,0.41129032009900945,0.4659709314287444,0.2874921670151207,0.30925657360042336,0.2986586988425937,1.212790878066059
0.24668767546984677,0.5561238783378364,0.371475212329189,0.4024165203840159,0.259368971666105,0.284546608172536,0.2744758955376488,1.2405989394121764
0.3254573559413446,0.5009753609995614,0.46905434338616525,0.5211707654411989,0.30306600046016474,0.33978293750033894,0.3379852337849269,1.236381809345506
0.3096768464184206,0.5291263423468318,0.45604374811454707,0.49341050358840866,0.29824089160913353,0.3396608435230039,0.34049692241867346,1.2409982290367105
0.2760439584677612,0.5348144022204364,0.41341338412372186,0.43903780911077195,0.29554752847580507,0.31638886233740915,0.31296340962974317,1.2612645822091628
0.24632637251535253,0.5165073029092069,0.3751295202565701,0.3987098359280385,0.2525112012197557,0.28932716848183027,0.2673991805346137,1.2336352674122124
0.3103564098697675,0.5223812954853867,0.46979537130942667,0.4994774419339458,0.2879697685307774,0.3529859273948336,0.3363780299982679,1.2617531974991876
0.29781806968569874,0.5009111163532748,0.44219175297364083,0.4875848117132248,0.28405566084894845,0.3333790935254872,0.3337885158748519,1.2613176471445524
0.2679165212522867,0.5108555453207292,0.3844049853333232,0.4222406946751142,0.26985227485133334,0.30809583047396316,0.2992624449486134,1.240911545916887
0.2513330162832222,0.4877361847617167,0.395866942773537,0.4195068408057152,0.25661146833360754,0.2882093734090287,0.2747888742606015,1.1982111546967864
0.31348540399887503,0.5400862078847457,0.4506140846909417,0.49112367526741657,0.2860826800391835,0.34102346613711765,0.3388931316390087,1.2339253564102655
0.28979957792947164,0.5296242107483836,0.43271073503356855,0.4515328945246455,0.27027775307632623,0.32991455151486493,0.32242373744070046,1.1866938860279017
0.23626788570392596,0.515483489267845,0.37065214254657314,0.37875910661682133,0.24918562900196625,0.2927135619823254,0.278335386935288,1.2288220692486822
0.2737745599980024,0.5097963742320293,0.39785951356372873,0.4242721973385428,0.253685715241499,0.2878408882607825,0.3007961928599111,1.2115570657170331
0.31608918094084676,0.5120467263747321,0.4552882297602675,0.46448471737726843,0.27607200323648656,0.33414922630602634,0.3323126080014513,1.23354949487452
0.2987324282258422,0.5111483014230154,0.4288172215033986,0.439668169864733,0.2817870565857181,0.3141555890559298,0.32011601449605964,1.2540619416589525
0.22996809123279566,0.5016458911018287,0.35201409365858083,0.36988206313494815,0.25129244341556456,0.2643594872980241,0.2625796436581464,1.222193501372699
0.290428855013495,0.5060738750751159,0.43479773114787407,0.4558934075459606,0.2588839206872833,0.3009123090057335,0.29292109470604855,1.213393603300192
0.3063160868214901,0.5228774713164575,0.4355884111383097,0.46392817766968886,0.2685279260837746,0.3137404079735989,0.32001838416396966,1.2518074136923423
0.28981786219364114,0.46935648863113405,0.41234922952458536,0.42471633127136077,0.26203972765440353,0.3065027383547696,0.28673638575911037,1.222173328812706
0.22344750681467612,0.5009887532501179,0.33569336294192054,0.35043642374352735,0.2305143232182679,0.2604861582131254,0.23265893574536,1.2063459990791712
0.3017879533215107,0.49740337047573274,0.4332837730939315,0.4582930541389002,0.2681589256157484,0.30108585091827933,0.29546313210775965,1.1990035356035458
0.29799447550123465,0.5371340325871248,0.4213060038653636,0.43999762892875655,0.2578782593204863,0.30461439632906123,0.28739072921749526,1.1650093579644851
0.2761171568615217,0.49130182323438015,0.40069475040588953,0.41467938604834603,0.2499615501630247,0.29711395317477507,0.29317824356989364,1.1793429684195593
0.23376190884939219,0.4573345145928547,0.35970829737884547,0.3741737804525248,0.21431979001125964,0.26279181562288567,0.2387977415558858,1.1285653530789104
0.32994753779914454,0.5411713724648795,0.45988000121341527,0.47619966542995507,0.26342008206463,0.31412667520711085,0.29890066479410987,1.241642727773395
0.30928927802383677,0.4654334524260124,0.4312631329665024,0.44966257430213774,0.260257811449363,0.299143033375112,0.28356466075780046,1.2065352460554422
0.28447509686603517,0.49546317243432464,0.38739573286660955,0.4075823810009974,0.24236921310970327,0.28000445376454086,0.27192531877343334,1.1876258568096838
0.2627245903756717,0.5109405363484437,0.3961202847213912,0.40258131972176475,0.2367149626613241,0.26447074696209755,0.2428219794251968,1.1822318050685074
0.33955508961882963,0.49426218418276197,0.47818162078832177,0.48815993398607566,0.2670626569542654,0.3162347938630157,0.30717042468168665,1.195566326948454
0.31815499550673276,0.5019467485767519,0.45823628086974877,0.48346036748829113,0.28524056550700505,0.2986495207166073,0.28396911983640677,1.1760930718775036
0.2819184292640286,0.4933486319181893,0.4009255273447255,0.4316384872301011,0.2631818934075653,0.2824576305774964,0.24839769728846645,1.2247118954649097
0.2924054012934832,0.4927628189791343,0.4180307422312461,0.4305322286799281,0.2468009415587351,0.2786648736725762,0.28313681154459625,1.2210912848056175
0.34961722287615693,0.4950134266795418,0.47879749174753927,0.5083552848693753,0.26910825144073486,0.33263158368522,0.32506075888128616,1.2211348056446183
0.3292837677174271,0.5060622276254242,0.44250638827655076,0.47526645138956314,0.27417503075263644,0.30388051303464886,0.3112828493344454,1.1936837800351543
0.2703848080430372,0.5010446973089058,0.37818217469641435,0.3978171160537724,0.25946184168529773,0.2883822257033477,0.2708355931807374,1.1759699208586936
0.2849318972153225,0.44334618600291914,0.41545428955296515,0.44082373142347786,0.25066485117004783,0.29077171511703204,0.27743116358499786,1.2195800502365293
0.3343851062934319,0.5212416316505535,0.4577597999008332,0.5008564920528272,0.2835376512810903,0.3243278161296421,0.3118107571840773,1.2673204431288023
0.3208930057732057,0.48828917118420895,0.43777066107768303,0.47165636134642297,0.27954309613521044,0.30571618555051655,0.29913708868876804,1.1711630060077642
0.2681557478931592,0.5146424729217437,0.37655400714395676,0.3999602331484929,0.24069174920273817,0.28241153876856917,0.2567883248809676,1.1351612988353204
0.3121192540274079,0.5076216671404636,0.4475721534347981,0.4670056432723816,0.2602739270159937,0.29619917157625536,0.2887842830268157,1.3007637589566416
0.33321016153144667,0.5256857289424823,0.4607924456733582,0.4873232347296734,0.271306690995025,0.32275404904140476,0.3153829352956127,1.1949047740295198
0.31975438908794235,0.5582640087176414,0.40897832593679445,0.45579097876658803,0.27159942506361534,0.3067296258713584,0.2960205222864516,1.2322534729477765
0.2482283405466189,0.4991153226948465,0.35470884839418027,0.3876379835302789,0.2445750748512789,0.27266688005293455,0.2505831210415727,1.137039466448341
0.3184653413034677,0.5111645957221338,0.44941015221091674,0.4816898697154455,0.2741335162380823,0.3113943664588039,0.2850393051499402,1.202106654327316
0.3219760873224553,0.5235586351014772,0.4561096306989186,0.4846957936572555,0.27676277378330555,0.3329424540489174,0.3200809617337022,1.1676327689419825
0.2998082971099052,0.4636199161888645,0.4267550274511565,0.4625919871676212,0.2703992732450153,0.3056165341491377,0.2991917571947664,1.2107153204452923
0.2442402729250954,0.5081780893760613,0.3588789469917956,0.37624196437279117,0.23883965533143087,0.28568210346713796,0.24373036225686415,1.1666508643608686
0.30415626166351595,0.5079610726205206,0.44248291795402817,0.47975566736098796,0.2533765283104686,0.30678366888770287,0.289332865350554,1.196378683219863
