0.008841023066142853,-0.0994311627089627,0.08053382529279426,0.026960133864281376,0.04043925714265625,0.0637958003411772,0.08184775735240622,-0.07139425583496968
0.010517414180040485,-0.09948435116053259,0.07924549065966671,0.02813023479755656,0.043578797061658785,0.056226347480835694,0.07955194272949918,-0.06809419012542085
0.010445550426052962,-0.10110089462159684,0.08245991787579705,0.03139919075319864,0.0403240258584953,0.056457360590200685,0.08094554737732061,-0.07635714838052364
0.003076873476297879,-0.10037495389823542,0.08520999930548867,0.03056650097724484,0.042930600144515385,0.06259232916008484,0.07711256989015307,-0.07415851918255109
0.007096413491794807,-0.10711386210654218,0.07637530031134973,0.028094111343120842,0.04331385717062194,0.0639161714119266,0.08512146493139285,-0.07975097724183877
0.010136575982271726,-0.10593783514430022,0.07674895135924042,0.030763071408296427,0.04602415496167586,0.060720124642558035,0.08055851197434892,-0.06323997830521118
0.006876447274457482,-0.09718744566883662,0.07243273512947651,0.03193247850637448,0.04750364174722713,0.05732329171650161,0.08129930903560276,-0.06066832932513594
0.008938135055373372,-0.09469435809416456,0.07418301031501756,0.024606397130917883,0.0433025022558081,0.06217401125647025,0.0810514486037509,-0.07172438523956226
0.005781921700178287,-0.10336375323148764,0.08196076166934138,0.02993559424177285,0.03934411162070826,0.06232944004374366,0.08778454533454044,-0.07534549744708374
0.008087761950599327,-0.11174371617341705,0.06756657344096587,0.020779220808238942,0.04468629971772033,0.059851548541133545,0.08485297911928312,-0.07959977127442971
0.0072763771260652725,-0.1104608747399651,0.07471299103488363,0.029908292907762545,0.04310292467222517,0.05829421931344207,0.08421476026513004,-0.07053315149502061
0.0076583577598180914,-0.11031995258050932,0.08179759684125393,0.032380329038522074,0.04727192049983534,0.054893502302231036,0.08445241537672198,-0.07265874345910905
0.009507570657755825,-0.10927232582595695,0.089980164153157,0.02716061659812997,0.04516088021873807,0.05798202407223468,0.07764161543037167,-0.07202247600959413
0.008460681269383905,-0.1179212880369931,0.07857287283098585,0.029163938923590284,0.04329015298504699,0.04994872670821624,0.07467540568780272,-0.07213043881019625
0.005078063605035106,-0.11744061106604876,0.07894748479251151,0.018750390998817222,0.04038240077653576,0.057525302137617765,0.07695845418246618,-0.06651957000104926
0.004808925947488011,-0.11800815226014393,0.08325537674370635,0.01927267715584678,0.04631700696225822,0.05181027085072744,0.07436445306320738,-0.07258296863657063
0.006685529877399572,-0.11401085618933521,0.07350005142020903,0.026360505100169195,0.040051755688075855,0.05958004635522367,0.07769870178741865,-0.07257597492090145
0.004956783791780108,-0.1157217327139409,0.08298934186984716,0.023878616499958174,0.04142865347893008,0.05990995516374065,0.06671615366709555,-0.06759079355709366
0.009012296423985402,-0.11830979485188328,0.08424869007098076,0.02489415632579333,0.041344843272663204,0.05459470087228249,0.07524483632622032,-0.07000197504239326
0.008389179442109354,-0.11861624658985505,0.08941795599762019,0.020110799512074024,0.04326342450607436,0.052775934925800724,0.0704491593498904,-0.0723595224334766
0.008120878820787148,-0.11752315612850807,0.08617020122536151,0.022177485906788086,0.038556886721821365,0.05553373014757116,0.07415093209550132,-0.08645240188773155
0.0051420904387424705,-0.11992813892006322,0.07035304295960212,0.02401181948675413,0.04076650851728508,0.05526068626619777,0.07320161360441386,-0.08715065557301233
0.007257452069980784,-0.12794669592890867,0.08138244809424623,0.02328120344813175,0.04327935922612699,0.059644738078451186,0.0762050276085364,-0.08274849601669156
0.008825935967540872,-0.12159957813767618,0.08213020747091568,0.020116872210029016,0.04140235057721162,0.05679888547051735,0.07688908613214993,-0.07030958676952878
0.007816970014060705,-0.12192982481359885,0.07155989320679956,0.018885805458221733,0.038843800135343755,0.05047750947629602,0.07445757410283761,-0.07013491953658647
0.005721521213581746,-0.12560036605131114,0.08645996268890933,0.019313260586339486,0.035609975178033645,0.055344755496779224,0.07185351712169018,-0.052043189293133785
0.008058977729003335,-0.12424859093146921,0.08072125527945057,0.015394821554183539,0.03968346296283041,0.05638156024025562,0.0693064658324843,-0.06007638389330774
0.010611479303803252,-0.14007203777872446,0.09040892320687188,0.018282844790682037,0.03847108515097703,0.05324965303847357,0.06585290860876024,-0.0653400586075617
0.004209745015345015,-0.13881615292308394,0.09247416786528184,0.02572641988816155,0.04357910385499641,0.052417674240055126,0.06789546805029341,-0.04537607113459116
0.007848074442973921,-0.12419523691407629,0.08187698376552592,0.01838206590642456,0.03575088548079916,0.05354406264320586,0.0689782355088604,-0.04995730115996843
0.005039614419541875,-0.10566740949984729,0.07168206357203517,0.018987814332352877,0.037102501302089815,0.04953621748522502,0.06887738568013664,-0.06618614840767524
0.00969461513299222,-0.11227597974820307,0.08166892149865529,0.021740524879801916,0.03932710393651845,0.04972807967634512,0.0648652021744684,-0.07915748603943043
0.006456513870600825,-0.11517639821709004,0.07816047178868839,0.024875396718421434,0.03675364867766393,0.051395751248702784,0.06818183068888377,-0.07801394116492445
0.010246111465048342,-0.11298082398205452,0.08750724565119275,0.02807132695204888,0.03934392015361355,0.05614314743605782,0.07322696036310936,-0.08196714988442057
0.011735978934261338,-0.10612389394219088,0.07969946896467683,0.030040158442412992,0.042035614225873416,0.05428150250621566,0.07019417359647788,-0.07103404448321098
0.014675642790802019,-0.10557904136608949,0.08971458160957228,0.027896324137082942,0.040497130818011526,0.05449450303395903,0.07835127502104598,-0.0693733742529349
0.01568607197022848,-0.10447377612477039,0.08981767262357218,0.03048850031562175,0.0426265339148728,0.047524211173280435,0.07005852307560884,-0.06748418214004054
0.009975474279070513,-0.11372173630502544,0.09155996740508568,0.02131883588616635,0.034287403458181175,0.04613865405603042,0.06287783747257271,-0.06095633624830647
0.006024335805810682,-0.11438541182034355,0.081654384541039,0.024505511071541402,0.03577221095192037,0.04341704027217768,0.062260956029758945,-0.06709720612015609
0.0077147071604395665,-0.11556594959664986,0.09046767328865873,0.027446679313027605,0.03325666733578632,0.051835198591913316,0.07045639187337742,-0.061189811908826566
0.0116453353796167,-0.10857545851272003,0.08820458856105089,0.028357726329909197,0.03373887104324957,0.05160664723508509,0.0613569661172225,-0.06479158299010312
0.013067824091768059,-0.11275715748928468,0.08079203631797983,0.02063949908758641,0.035332431997453964,0.04637124361097037,0.0569785186515365,-0.06459979487078056
0.010992457773437584,-0.11248512367867519,0.07984243437787251,0.02495880244393542,0.02916820614648683,0.04027943169620871,0.05510724462506179,-0.06443245947642319
0.01281640897177732,-0.11911486318690849,0.0867145466338732,0.02252315727253403,0.029318642086963068,0.03623007893927333,0.056089670964750836,-0.08053387682902513
0.009809585234625955,-0.12290669971921844,0.07617600748670186,0.027338649169679808,0.025492893013803614,0.040249867274586223,0.056150904708626645,-0.08297699634845271
0.014887089910171104,-0.12317450733194685,0.09670197996515666,0.033752390688598255,0.02967986842777745,0.043393557538532516,0.05958119015517949,-0.07292024609040733
0.013167642895294785,-0.11172572939446253,0.08646665975545316,0.03367041929718817,0.029318259391560797,0.04289888480338254,0.05693965482428141,-0.06745976510524887
0.01048310433365495,-0.11681096283562037,0.09520218284038588,0.02649106849289854,0.025547106842171863,0.04091934322659511,0.05613822580422182,-0.07648608070770258
0.01375227044672276,-0.11979884310341087,0.08548762619332631,0.0268043287881006,0.030165669771553483,0.040491846771436336,0.05501497083701677,-0.07814716145333217
0.0135262145068607,-0.12794140179776148,0.08367714456470428,0.025260287840794024,0.020130288805755174,0.040977386696819294,0.06105420591561533,-0.0799237909433882
0.017923694556143406,-0.12411615783474232,0.08941706807621153,0.02774062481417514,0.024359166143289153,0.04445956372228752,0.05712542715673012,-0.08519918385404551
0.009984965416613435,-0.12655441852404029,0.08427275183326621,0.031628726791929775,0.026065077119987977,0.04295303629687808,0.058238261845283856,-0.07650626681124867
0.005887975011633355,-0.1195950568518694,0.08866350800017907,0.027861460363628847,0.018536761606585225,0.04286075195948208,0.05651091500623229,-0.07116739765814797
0.01444583568050878,-0.13155036618656185,0.08946114226154984,0.031119971590008788,0.029138207314170744,0.0456355174817522,0.059019587735110304,-0.08040972237913291
0.01391343615804749,-0.1317258493486161,0.09485340381252459,0.02857942924349881,0.02258149401177556,0.04141330608082619,0.052978032003773955,-0.09019392018446751
0.009716118380161858,-0.13150144344106998,0.09256699145935683,0.031040958226213746,0.02232586818303685,0.04124276673085851,0.05130312103388386,-0.07909198522818599
0.011755345804221893,-0.11547920297952574,0.09490640136733086,0.038033700657968086,0.02569165771512686,0.04687905310749223,0.06336142982799277,-0.06531145020481417
0.01141023571530513,-0.12104080973549172,0.0898954081681333,0.03564794108199843,0.03172915594228966,0.04005390227928358,0.04783335220977534,-0.06597901777772525
0.012360256193300239,-0.12424716319988238,0.09395224457798153,0.033088517137033355,0.024800487249245527,0.04649063320141658,0.05285438102396813,-0.07309889721556788
0.013056961985468879,-0.12013091516132139,0.09366405217067247,0.031417932865099356,0.021650069874249594,0.04057150475441865,0.05003862868019967,-0.08125765784713446
0.012137924979218109,-0.12179371230654848,0.08198502697356652,0.03229392752444078,0.019736548401842295,0.0356523865951407,0.04933318333321322,-0.09215123909282162
0.010945320481381204,-0.12082170193431943,0.08592148728536778,0.028313116995801465,0.025758188068351714,0.04042884342978492,0.051358096399666445,-0.09019282657377944
0.015037943251756114,-0.12324225235636163,0.0983010554837697,0.031834550340913544,0.023277163406901186,0.03932084536405027,0.05747855326136216,-0.08698930214833368
0.013296103255655027,-0.11989732716187897,0.09555068670132236,0.029352084275027703,0.022398143487280708,0.038311964951232035,0.05391546618546241,-0.08726961397353988
0.015971903514128177,-0.11629225815043819,0.0920014398339046,0.032753971267254996,0.022465042865279814,0.04031885679605047,0.05169330290215464,-0.07830911632826557
0.014165058904980297,-0.11845597541234203,0.09769101555863138,0.03420255803703015,0.021704202250199114,0.03418251728916882,0.05322549012966983,-0.08650634035051284
0.01495944569853145,-0.1238723347838232,0.09031418140250876,0.03632347057884513,0.02128064324188467,0.039519871651598815,0.05284111834852221,-0.09231891053877676
0.01889534165495514,-0.12655699579749388,0.0952815858370468,0.03539187663415729,0.023510237469254115,0.034467166699060164,0.0523813949454504,-0.09891589862539059
0.018904837114315745,-0.12811132096667827,0.09902568170080883,0.03173657146170239,0.02409956488600632,0.040224620011743824,0.05719406593883781,-0.0846464865622937
0.021052948969040114,-0.12504355545734064,0.10107901875535498,0.03610610489232217,0.028242142394986788,0.037984779118114424,0.049057329925151286,-0.07563949872959035
0.02034201754337449,-0.11830791452174687,0.09902424483366838,0.037577890739331835,0.022633035455289892,0.03532526741367311,0.051446114062836244,-0.08533517479001164
0.015010676039281209,-0.12230335062231262,0.08787191827602374,0.03706099045618668,0.02920541085884609,0.03798761266384788,0.05735696561632441,-0.08951791431050417
0.016648537518831965,-0.12355196935587424,0.10091423662008986,0.032309351896944845,0.024596420949471336,0.03782737364513633,0.05752966331879103,-0.09141535621890183
0.01570816155944434,-0.12144427004752849,0.11191006750036996,0.03704643323488479,0.020701107105478185,0.04121301201547609,0.05799869455786262,-0.08925115195064809
0.017100897145909108,-0.11557061770167261,0.10669614478913263,0.0323759636427037,0.028036258350967007,0.04328685991382188,0.05958996450580367,-0.07964040633267186
0.0196450161908763,-0.11027638393439392,0.09742354044122827,0.0415566342477718,0.02533845508680823,0.04106202967901465,0.05789420514847658,-0.08424708818700923
0.01864891166042874,-0.11950187645034506,0.09359049949893156,0.0352979293063318,0.02624690853730486,0.040497171000180875,0.05624138828706144,-0.0872995041428477
0.015328660931466972,-0.1172245602836329,0.10303866148286533,0.031308133199834706,0.022191618316961387,0.03974715264312682,0.055434295188410476,-0.09803571793278813
0.014011772713534763,-0.1226601315050728,0.0955336666862642,0.03477040328245726,0.01919993388348271,0.04059599900932334,0.07139542926862608,-0.11184120951648419
0.02466840856474796,-0.11053874727717372,0.0983875467615215,0.04035039348145431,0.0268702156734526,0.0437919432259096,0.06640136998382466,-0.09325968791426456
0.022330547862946717,-0.11279398813911178,0.10389029098845311,0.04133609122374037,0.023760802678176287,0.04403641834882113,0.06324555057143876,-0.09382305009339105
0.01997110234139187,-0.11505735910107288,0.09947733824929648,0.040837130305698244,0.030367005487539574,0.05081496276350697,0.06614918002833625,-0.10275456035880219
0.017832241458147397,-0.12557427103623056,0.10598785321899327,0.040534869223481006,0.02495674395203204,0.04356125430366654,0.06377022046907851,-0.10358262967681067
0.01741699815183082,-0.11889369759846483,0.1032891916397394,0.03731275616281948,0.023668314153161375,0.04273759666498981,0.06260767978830473,-0.1078214319591283
0.01929199418067775,-0.1210949920077744,0.10659118686978727,0.034437715036448574,0.022033835681977337,0.04543993460636163,0.06752353545747611,-0.10161814943501958
0.018776125965788867,-0.11766693100050848,0.0971016091029658,0.03640182323254534,0.022688246740646803,0.0533645534663643,0.0650862520687871,-0.10225746127312435
0.01712013469414521,-0.1295431833602931,0.11240486197512409,0.036254420082456225,0.023302172480113337,0.052687315581415116,0.06830135154351442,-0.09545691546071132
0.018358871909334298,-0.12813057913205458,0.1063877932474771,0.04302180175989989,0.02241218770361413,0.04675879960371751,0.06966344322810702,-0.10229976427795483
0.022763138836728508,-0.12955861326456125,0.10505408662481028,0.039643522286597045,0.024395723728110472,0.04820214557463986,0.0682755598720524,-0.10134389218952346
0.01657882161704314,-0.12492782496077598,0.10189796063175177,0.03341846018632054,0.023922778244910743,0.05016109846350456,0.06686338539269146,-0.1054913192880162
0.020488203842253944,-0.12287549559703964,0.10165182684441497,0.03516835556039516,0.020378473105972586,0.05124390864145485,0.06978992106412629,-0.10965599135159483
0.0202870499805284,-0.12410477117180693,0.10853084596760394,0.04304903037957566,0.024317210745579024,0.05013775499572228,0.07603490031673003,-0.09838722342957316
0.017528982577442148,-0.12111387798851322,0.10798476622747966,0.04400111010242181,0.024164225573652,0.046136702924720406,0.07174172833779062,-0.10083077197116591
0.018331242752631465,-0.12133769005562854,0.10834720394295252,0.041761875518125255,0.016979963111429623,0.046558300090273765,0.0728332579764957,-0.102739832168371
0.022586188009822573,-0.12754508740218526,0.10930466835729305,0.04302175357230824,0.019728875658189815,0.0461454711713309,0.0713282502672423,-0.11465874003534293
0.02240717287937067,-0.13109861257708266,0.10395971159552429,0.043012673247800254,0.020049251714057685,0.04450867547865679,0.07228923343452623,-0.11344578856604007
0.026262191636093873,-0.11943912320453975,0.10817694631576216,0.046309565821958214,0.017690381168369032,0.05362773779737313,0.07388944542152008,-0.10570324373994251
0.02742524975162088,-0.12674685218878817,0.10881500797014655,0.05421456759474189,0.024850849423632283,0.051336577528660256,0.0791089156079285,-0.10176471772579185
0.02368382487358736,-0.12371153145259353,0.11410870845318986,0.045639865780314565,0.021627653188809166,0.048056846739689206,0.0740236785652751,-0.10483164504947765
0.024995253234746915,-0.12526432984634278,0.11247001079989805,0.04261025069728602,0.02091433341807874,0.0461732916931575,0.07431225567453621,-0.11325689348357604
0.02277603230005608,-0.12236815267261697,0.11219675947331252,0.043006004165620546,0.016556090111790038,0.051357129066610434,0.07095952393063856,-0.11447872977515364
0.021049137718239515,-0.12741450167295065,0.10971769941204416,0.04453144687718237,0.016632740377095227,0.0447331494299092,0.07321339097825166,-0.12108461184795234
0.02213353612278926,-0.12249780008148953,0.1155610078930814,0.0461180485859637,0.020320961692196462,0.0553802143347295,0.07555849958963014,-0.10982027166685265
0.023945836106191727,-0.12377034071171893,0.11310806089217204,0.04464668035284043,0.02372673560574747,0.052041661471108384,0.07250662805776419,-0.11461428491167149
0.02404906352085398,-0.126759775699035,0.11554982422826729,0.047669902746156,0.016354922829444927,0.04542770991712041,0.07593709247843476,-0.11357718990168436
0.02018522651593962,-0.12887082278937984,0.11663204909354079,0.03984259901043133,0.022616781571906403,0.04578469986199306,0.074050744777826,-0.11768276779539225
0.026049149168701345,-0.12912854353128358,0.10835692869325819,0.03758434065016754,0.017131414553681393,0.05017042550613942,0.0699700312649338,-0.11337178034964526
0.019382063526648896,-0.12627662163752673,0.11498604526057053,0.04100075420009435,0.02054607165293717,0.04829654398069362,0.07464420312625213,-0.11377585910166055
0.022964753375973406,-0.12796256984519744,0.10449835929264463,0.04736166461020279,0.02062852284836187,0.05246920719455093,0.07557059870376916,-0.1100395160226072
0.022574056656050643,-0.12489341736597846,0.11466514504545401,0.042761640290882925,0.021005590411518477,0.04731470199222985,0.07292087895070658,-0.10664575721115055
0.01878109600882224,-0.11911715506715867,0.09552246856668616,0.03938052357578094,0.018350579032659194,0.04555188482074892,0.07821691742844587,-0.1051283290535458
0.01859480815691993,-0.12276554118332951,0.10143426141019452,0.04029261473542355,0.01853332654493472,0.04703648793549383,0.07181809209980444,-0.10122258615953783
0.0179562229560057,-0.13029002669882442,0.103216023907602,0.04358354531667083,0.015471828882205088,0.04844030878782713,0.07096119484967776,-0.10822405379156419
0.022598605070408267,-0.12788977852988395,0.11072517620051871,0.038288922584668664,0.01477772641334258,0.049602882897683345,0.07661002767636031,-0.11213765311914602
0.01898027651252393,-0.1347162454768188,0.11527156661059677,0.04054089070432,0.02000852176217803,0.04723840806778681,0.0750547782773217,-0.1142026454706738
0.017193715209067536,-0.11874485751360726,0.10725077774099477,0.03888785621130332,0.017461821710504966,0.04796781424760905,0.06997121617222131,-0.10128802755227564
0.017972107605455995,-0.11857717388344138,0.11139793471910232,0.03958029687329842,0.018143443602144416,0.04420184618465436,0.07608837292781608,-0.10499532581106853
0.020470133471426014,-0.12549242847967165,0.10098609517036022,0.03695099211201055,0.018365033482793114,0.043777641710936524,0.07008391704562003,-0.10988946982545768
0.019342738906941204,-0.13810070364111257,0.11393618268553257,0.04444768883638934,0.018454840700946808,0.0450262536487858,0.0699402668096028,-0.13000635400075453
0.021548170834825617,-0.1348158582540441,0.11554211529631388,0.04210465477108642,0.01712491952107713,0.05028016536099393,0.07208087576807114,-0.12081930414239288
0.018246684955453757,-0.12609222694866168,0.10762384164482576,0.04122895387033687,0.021793654971313532,0.044611143740311186,0.0696140588268598,-0.11296344899839929
0.025429606722603366,-0.12295847016749317,0.10980708389703664,0.039933710833239,0.015341542709896431,0.038392406851149474,0.07442840974355883,-0.10151321613160794
0.02092282596564672,-0.12851542757815448,0.1048220894682392,0.03641545519030968,0.01784951733918899,0.04208499401524068,0.06896556925089466,-0.11810560545094154
0.014441497502638059,-0.13300930516563678,0.1124294696254589,0.0360877940979754,0.014307439998718963,0.040125154434793614,0.06989512715229725,-0.12680708777800928
0.019382935054375158,-0.1389884694586061,0.1095173497021842,0.035985629882773616,0.01750585725102752,0.04141700102935643,0.0680045643920093,-0.13029083380396805
0.013658314533260827,-0.12181467865544712,0.11298908052032194,0.03894813284067096,0.015043572452278515,0.04261007391292214,0.07141944589866824,-0.11315743410742322
0.017086445934885546,-0.12331753123619253,0.10821261034939327,0.035644672569898596,0.02132029343436346,0.04474704278917941,0.06698903178827115,-0.09525135108284896
0.014442609502407798,-0.12287073288773702,0.11254539936332915,0.036133089795328206,0.013141563964078042,0.03992652543312399,0.0633773613805954,-0.10956651550942176
0.020399468308592465,-0.13172044149718065,0.10714480450432323,0.03372497562811904,0.01547145808077048,0.04026311026242913,0.0605671562971892,-0.13048389120638257
0.021065447733110223,-0.13414361744679867,0.10887475050914336,0.0361430688733487,0.010816430583354061,0.038784088028486235,0.06347071398400805,-0.1285455737596144
0.014319725892159286,-0.13044969317035696,0.09797593612475503,0.03391972488854863,0.011435349734932217,0.03885235983608203,0.0648242852910218,-0.12064871651070175
0.00752064763910487,-0.12393666159336342,0.10799190720086901,0.04005854619574884,0.013923739901481812,0.04293352340842657,0.06825776686856284,-0.10887428448269891
0.012259094549426117,-0.13530317820095938,0.1097813584913776,0.034294314471885336,0.005885966163673328,0.03743827473705947,0.0636756018184347,-0.11571296894400417
0.021133030506357047,-0.13797738860746697,0.11378470222668431,0.044835485938011815,0.012288025153644602,0.03433352681832907,0.06588992880794779,-0.1258437557781296
0.021527104591332044,-0.13249348248059734,0.10344691079188804,0.036005445969100415,0.010809368911934928,0.034965914218310704,0.06596208104001292,-0.1286963029219198
0.01823314133149154,-0.136558112894903,0.09994097893855115,0.03884808094381573,0.019720555521319922,0.033492755987845096,0.05755178981602373,-0.1145492392290229
0.017955586878530473,-0.13072971925798013,0.10201959455034598,0.039968865908347036,0.013981470965874482,0.039972710164448665,0.06884448864370472,-0.11652471054143562
0.019886949470191026,-0.13672414513077158,0.10681560980188244,0.03814375090571405,0.014118949496239036,0.03663051855127205,0.06619011685677653,-0.12209896505962574
0.02163744783118222,-0.14218208383293207,0.11485501479843561,0.04005850360103897,0.010986577160182033,0.039171296323670765,0.06684091946794501,-0.1240084340200271
0.018021035146135685,-0.13775344246743793,0.10968555381027303,0.03367734078875695,0.010673056394838794,0.03722042864455839,0.06189440509477169,-0.10948747380889856
0.01624306034486197,-0.12306458749182632,0.09692872873096801,0.037483910271032116,0.008606587110812953,0.03904902319070793,0.06395593155769454,-0.10510068317539807
0.01856874059391721,-0.12982944454791742,0.10430185899984956,0.042954824040786425,0.01299196568763344,0.04011561249066021,0.06370611299261505,-0.11955924579224561
0.02099370709494336,-0.13468004352117252,0.10333875461400022,0.041046459707870096,0.010973232339586421,0.0337943841260815,0.07140926268214688,-0.12501828998885742
0.01737098126248356,-0.12819656563674742,0.11625598062765898,0.04749074814643035,0.009093598845935606,0.03843123782005236,0.06533739701684585,-0.11342884924124902
0.017479031721632527,-0.11403991198222876,0.11221976288425933,0.046577619510640746,0.010681413600543876,0.03844672788372849,0.06768814798518273,-0.10832054532745254
0.01942023111374423,-0.12462442260158328,0.11020436054086875,0.0361030301269362,0.01588377865991218,0.036879511958043815,0.06131017622388747,-0.10850117195116149
0.022020337713483672,-0.1271864133601733,0.10447558594504178,0.04595502968895627,0.005103177949619569,0.03887722515130521,0.06580655557106063,-0.12667836076339448
0.021184542710955566,-0.14058792198794848,0.10654567896423194,0.04004808216172009,0.009756968853838628,0.037824663880742744,0.06691205328301325,-0.14066832258109754
0.02041573115868374,-0.14139485330818366,0.1156265825335462,0.04832228130515242,0.010446548820208845,0.040948700237134525,0.06401816754245622,-0.1373205309621491
0.020407710902085232,-0.12282893671760622,0.10554397732620323,0.04500597898857472,0.014241478260037141,0.03412210864641041,0.05979314962069284,-0.1177346812471973
0.019975784026952412,-0.1316399767232432,0.11191213339596887,0.044656046691933494,0.009058164411037063,0.03551921011195525,0.05931853208534425,-0.12024303898821595
0.02098342616058308,-0.1307183982729228,0.12122131585382662,0.04535104058725825,0.006859397287893843,0.03416990832691284,0.05644293618393029,-0.1346630247143696
0.020957322054325902,-0.1407404084465559,0.10212956813614137,0.04786178742181913,0.011752619151219357,0.034043435207173935,0.06088357398973308,-0.14701433095702876
0.019373573707726868,-0.13478177757936954,0.10657039389014251,0.044399100715180446,0.006889791792091998,0.030532046887161872,0.06139075218115917,-0.1475212588960497
0.019394757230693255,-0.12389400048976403,0.10798724330953077,0.04937989459777676,0.007753101893394739,0.03415306198279795,0.0587157300292669,-0.11806669566991351
0.01546721482899123,-0.13220967101496772,0.11771529307163553,0.04527466835206659,0.009290135867871425,0.034894983010518715,0.05849414704584999,-0.10807603694021999
0.021742273484540157,-0.13188775031784733,0.0996244788114217,0.03756795284355962,0.0035165229477795916,0.0321945729536023,0.06496257884613207,-0.1299207415674663
0.022439905104536747,-0.1264842960663724,0.11509128340879524,0.044744025018667026,0.005447337343804771,0.03311936605730517,0.05720691737677136,-0.1410876740673445
0.017740143888054814,-0.13684674895499477,0.1016923058839071,0.04151268134573047,0.0022277884153948887,0.027101608822281232,0.0539277690269086,-0.13452395063893627
0.01770237914225926,-0.12976074958160008,0.1117151989811036,0.04427715198501472,0.006433728709715553,0.029335739959508507,0.057502576146884705,-0.13053279245896748
0.022337316827537288,-0.1279637508459419,0.10736488495347402,0.04454484877488968,0.009106821518223288,0.031356020842144526,0.061009909902618495,-0.1256241908786626
0.015508194396760827,-0.12626263793448658,0.11483427782000565,0.04541701568716206,0.006784555993971001,0.027062897747684972,0.05749856906432773,-0.1358274022035144
0.02190095431971913,-0.12769682733193802,0.10939229892087816,0.040722532903368684,0.002523904871267025,0.03138641957726968,0.056897767899866475,-0.13491860835724578
0.018651514617741966,-0.12757108612146614,0.10857966054187913,0.042818703715527255,0.0023725477838527293,0.02570931861605425,0.05062443589272664,-0.13698345235883594
0.01742259551590757,-0.13104829898882434,0.09894655996369842,0.03920804465253427,0.0026999117733072907,0.024028685789426175,0.05779131344843597,-0.13726181546746774
0.018625869043775802,-0.13564651766305819,0.10300052443428162,0.044603672869763904,-0.0012305934387160588,0.025668922723991152,0.05752631978256754,-0.14066743155749456
0.016485932377204922,-0.12567637488926842,0.10537388041942533,0.042911453068995305,0.0032622519821677107,0.030429032020145953,0.051774279564780264,-0.14889377904230064
0.021849011781600057,-0.13412728713290695,0.11566511987351272,0.04684363356217603,0.005762269867259162,0.028421443657732717,0.05449032876946592,-0.14149467689655248
0.02051582477000786,-0.13194717773580208,0.10859695827495416,0.04215966269965601,0.003428042514652658,0.02491113809510145,0.04635653327246207,-0.12338903656154414
0.01968874685290706,-0.1370385779019207,0.11217502589015077,0.04007321149551049,0.004295310072442831,0.022139247889724357,0.04723791002790735,-0.12685566703019777
0.022604597511489345,-0.13981703866844133,0.10649695015594385,0.041140218799774114,0.0036128811798758673,0.0262139158435784,0.043810168738076916,-0.13692648066918583
0.02004829560117321,-0.1402220831459224,0.11549433895900607,0.040103536895848606,0.0027474730891923482,0.021344717712898132,0.04535024136063353,-0.15073141832788514
0.025369213413295136,-0.13547603709365785,0.11536207044853591,0.04243393888792934,0.007589328301918935,0.026265574893918193,0.04434968623951893,-0.13099881760333582
0.02279253381822767,-0.1305085412328933,0.11629058017305904,0.042701500991995475,0.004897885727898705,0.022324401687815153,0.0450931874983273,-0.12242801100107853
0.02395290513042361,-0.13526351310515156,0.11233646083525131,0.040175021172144214,5.856099175855968E-4,0.02191827425741324,0.04341101796257137,-0.1360941556375999
0.022238591727556285,-0.13200929397799815,0.10373960400205454,0.0416483198369981,-0.007904364737687825,0.020186508644658693,0.040066180195033926,-0.13914094770421598
0.021672705402270894,-0.13495812825213685,0.10636385919524755,0.03924087929153932,0.001857061689068304,0.021607845654097905,0.0455220793343291,-0.1442310326895088
0.02658684429988969,-0.12926302400440287,0.1122769795106315,0.043370343016436025,0.0023145823856851764,0.030400742654074567,0.044766298491180585,-0.13497809872222907
0.023279078453366644,-0.13752935603326477,0.11850320705903473,0.04100909250702316,0.003106606154374081,0.0234423582301288,0.04814035527959521,-0.118095086976015
0.02577267395052444,-0.1389061069636344,0.10771243090429022,0.04522373902650242,0.0013219333050500932,0.02526555679091449,0.04502872786534372,-0.12519131956606483
0.02197506797183781,-0.13904333946102196,0.11735365345957877,0.0384094243823659,0.0055676830697535115,0.018979045280419028,0.03796620473539305,-0.12534213502668426
0.02010040632925674,-0.14242809875394113,0.11502494070408913,0.04533428232656513,-0.0026966607850580928,0.019624831773081157,0.045125113623220484,-0.1340205818283034
0.026645449105037012,-0.13989072724305454,0.11141503632399867,0.04524114320043814,0.0031023482467706378,0.02455134707195275,0.042552080649664405,-0.13876890246304452
0.023605786528959692,-0.1347052122619789,0.11030336277481992,0.04944058263435609,0.001552506806580525,0.02144507765163652,0.05068567714307918,-0.1331207504458493
0.02191164353159374,-0.13077444469226557,0.11363432230671096,0.04876582152513995,0.003817636423533471,0.023897098417273013,0.0498031926899792,-0.1301750625865432
0.025069279270531094,-0.12493392923054653,0.11426512992568728,0.04555689116354,0.0029812432603433464,0.024425293426128262,0.048978951437731504,-0.1324067018312016
0.024340469649314283,-0.1380217860225258,0.09791381870955541,0.0473722057710795,2.3257618872459627E-4,0.020011030893990377,0.048473005203461275,-0.15067868034875698
0.022584465808851744,-0.13934054645466076,0.10227704396760932,0.04384588037991642,0.003585070792762722,0.022115352746179734,0.04819447794190191,-0.16858173059019052
0.02438828444211896,-0.13274145772207896,0.10188233969958212,0.048020115908694164,0.0019817914735065587,0.024812579891713215,0.04485942878736312,-0.15244322820672168
0.02611552222613078,-0.1250911150954711,0.11110397158325287,0.04740274625975628,0.0017328095965231628,0.026161766216026998,0.04992018358496116,-0.138612921242235
0.019362689120437936,-0.12716071680772034,0.11064766388319669,0.03759225133727497,0.005584618480390925,0.02400378370606372,0.04880772223640418,-0.12934690534999993
0.028522468398400547,-0.13222692663777952,0.10887697256016315,0.04678025159953043,0.0018444016542150232,0.021318786690629126,0.047577388187171714,-0.14801037885953713
0.020834598498375743,-0.13372449227445982,0.11200741533116516,0.03795243436175407,0.0015511419770233934,0.021777386977086793,0.05268447944263015,-0.15496200820076522
0.023746287140535817,-0.12953681101159284,0.11739713388692667,0.03982257977646947,-6.563327198485003E-4,0.021431527816984555,0.04730906880559635,-0.16053515907515498
0.026633668813555007,-0.13423738655669565,0.11367640336967152,0.05049994894633014,0.006496525893108411,0.023998633354844853,0.051863942639009605,-0.15347105128164293
0.021310631195653566,-0.13280598064861862,0.11027748044978959,0.050677381318906034,0.005905657169972751,0.025852370054182474,0.05174589141370071,-0.14456315652540513
0.018760934710088432,-0.1342114014821726,0.1106223074538894,0.045965211079373326,0.006352573460809123,0.024901804512988495,0.05640252918115569,-0.14451470403002045
0.026075067588328654,-0.13486625754015916,0.10414796196787864,0.04289985881514296,0.0066611764833949426,0.02742984230477185,0.05389105308406951,-0.14780742052185408
0.02167453023447011,-0.13174523488668372,0.10607936897991259,0.04422173900582223,6.527571499436571E-4,0.025480665609647676,0.04784130064965484,-0.15660653198227936
0.02347370239265724,-0.1279447195020877,0.10193433989724533,0.03737789237226613,7.062997695082123E-4,0.02241710736916048,0.05032760594969039,-0.1430889990315551
0.01917677397098441,-0.12192790912521202,0.11050463657180784,0.05075618870466923,0.004289485175568738,0.026735182546035897,0.06299753653020858,-0.1421830726380479
0.027693173207559287,-0.12931801385690955,0.11073607225823079,0.044698895327173575,0.007811326918993428,0.029352404701572514,0.06072870838810136,-0.15309205703283682
0.0263016571219192,-0.13422675436211687,0.11892328332809772,0.050875699758842756,0.008487710968918502,0.026315259071397996,0.05607835629599071,-0.15669706734359695
0.022153314764953136,-0.12555079596183966,0.11266817311549474,0.051262525941499666,0.0034072138911272,0.031823923968580775,0.05480870620576647,-0.14943942880939232
0.027507170255303196,-0.12411630199088443,0.10245493673562622,0.04547258485119693,-8.673549517671579E-4,0.026282786399067247,0.05563985483548911,-0.15978435956273848
0.022899702982450074,-0.12193000341525262,0.0946756740986283,0.0444422492073468,6.953405936796034E-4,0.027248206038471032,0.05742989682613017,-0.17280412292310793
0.023236245990858658,-0.11945902956304501,0.11757587605700645,0.048762815261359234,0.005264048636426844,0.03181645005090196,0.059011229104561545,-0.1677793273095703
0.022315970099388783,-0.1276993685215729,0.11101582723050672,0.04390445655385849,0.005772201294361734,0.02740639242793604,0.05442992053301934,-0.17706227246405282
0.023441043486130096,-0.12837654844991836,0.10758998938309876,0.0373669427701947,-3.242758804171323E-4,0.026612902535990496,0.049506741088721884,-0.163706322592585
0.023687712798616815,-0.11845459162667119,0.0978372453945712,0.039956895735253635,-0.0010154664644316958,0.027650413667027293,0.051775078235622225,-0.16925580341302746
0.021009470714600405,-0.12432770990794313,0.10128920894343993,0.04452474162310499,0.005713588358459305,0.021145612968089072,0.05144924065379101,-0.1753879316489312
0.025016678353064616,-0.13694466202340938,0.10013876341198187,0.04165498560308417,0.0010978325895440882,0.022573821024231108,0.053223454848543,-0.16891281423025248
0.026456971029608325,-0.1300339135385827,0.10995728976677242,0.048770439772352556,0.0031672301990842374,0.029866735442635742,0.060069384269989305,-0.15292229424174322
0.020678532608489394,-0.11543827610612431,0.11171481102651439,0.048462370272294636,0.005771268901405409,0.03187080705494763,0.056130529171197846,-0.15398483409378355
0.020916051415680488,-0.122176789590118,0.0986691208986931,0.04310051759276106,0.0029363282330339105,0.029087800560354118,0.05187864065856882,-0.15391566052154174
0.02431786989040892,-0.11769370215005036,0.10484155103151788,0.04098401440495599,0.005172476336961799,0.024872154988957645,0.05193412605537027,-0.1684362572467843
0.02423525930582191,-0.1258865968498757,0.09468773931475698,0.049936685955964434,0.004317267131386671,0.028306466559117026,0.05448204153626974,-0.16532346678708476
0.026109797132746998,-0.12702810722905267,0.10579640298857843,0.04538647513712935,7.651297368584906E-4,0.028001242625252314,0.05638456543730946,-0.16969459522133576
0.026648361653474898,-0.10755170966292418,0.10242517319374148,0.04741742889858021,0.005931494752600796,0.032555028394683154,0.05989529236482289,-0.162913554643022
0.024548020263231017,-0.12214903428852865,0.10232421729459751,0.04585368313745505,0.001004766609135824,0.026384254476756068,0.05205024681529281,-0.15896932071826528
0.018329246320345084,-0.12325292926642482,0.11016146845645503,0.04449943576566813,0.004324322655928424,0.02837428294934467,0.049333094975685804,-0.15146582336604558
0.02236125198093522,-0.13911385616304914,0.10720124512828721,0.04031591294665868,0.001201559277435791,0.02123115562085755,0.04797058079843253,-0.14939273150162508
0.025646324199445656,-0.14199423892652427,0.10698679772942202,0.04315090155170926,-0.0036983058824615936,0.02189413714227912,0.0502806687847532,-0.14122971028276496
0.02636407603389625,-0.1347224729574829,0.11197590608451628,0.04804514760390383,-2.4668588106884214E-4,0.020706366110819045,0.04850574788405934,-0.1282307780508174
0.027672768759878272,-0.1214977438283075,0.11332677204334739,0.0431177132431199,0.004552428703470489,0.028175399439961106,0.05599317206031967,-0.1263250184992585
0.024478212997712762,-0.1383768892983099,0.12083487588030724,0.044715749978181556,0.0032197685195072883,0.02656718600680291,0.05080847486966194,-0.13316173975490123
0.031239981161703345,-0.1350278246843111,0.11200800638410345,0.03986266454334506,0.0042452902051068695,0.024617637226407075,0.05412417809434256,-0.13785398798027376
0.026039569350791627,-0.13302144009640612,0.10869807610399725,0.03676952286704508,0.0011440655279444088,0.020071596882155863,0.04983865284965136,-0.1384546752858392
0.02020345684503684,-0.13697545901729632,0.10848671365711295,0.0440732622955375,0.0021850985691889333,0.027229563542191026,0.04884511032445155,-0.13674237636848846
0.023531066446469035,-0.12912086785694332,0.11144066726505729,0.05308445544395183,0.007746362966718691,0.02978299068202001,0.05425575822843047,-0.13099224399038276
0.023951812402557303,-0.12589576961670162,0.11627347962132284,0.04462749552354972,0.008088437546168552,0.02785535271549551,0.055087855312452784,-0.13575612004325152
0.023960597478705235,-0.1290322085679507,0.11663594032565522,0.041251416934632565,8.250267847187675E-4,0.02668718336115375,0.05002497909702455,-0.1319625696362111
0.027458956157055528,-0.13181347809900038,0.10975631704454007,0.044781058796476036,0.0016635744176499352,0.020435809715984327,0.048337596885252146,-0.1344376877406127
0.02885443490118474,-0.1342330028809327,0.10205179299312522,0.04587984281862296,0.002911831308714863,0.024413612151580603,0.05347463197861809,-0.13937947766168912
0.021912460996090396,-0.13661830752069298,0.10736842352050847,0.0400258543872164,0.0038181740978382272,0.02775208240283772,0.05150810097193677,-0.14603426923341586
0.024386077115384496,-0.12901614801219607,0.11564258472154915,0.045287267286726836,0.00814802312619268,0.031019810256708386,0.05568509181940463,-0.1437357602067032
0.028192070316909835,-0.1357650690800645,0.11607948059858661,0.04477904074005476,0.002887344394535738,0.02873938427718845,0.05112793591532868,-0.1326450173433954
0.024670676802280255,-0.12531343169841958,0.11058134204505003,0.04291541810067893,0.003863599377081331,0.020720858200773136,0.046538835993267635,-0.1244048136695134
0.024358516414668546,-0.12727395564728422,0.11172592745587837,0.042461926481803434,0.007248416296033678,0.025946098742176297,0.05294522030014115,-0.13395945909887635
0.02696765679481016,-0.13130368130224865,0.11618743763672384,0.04394993181168686,0.0020606452360440813,0.025266074133810348,0.050648438597980364,-0.14734570532694974
0.025890521751057223,-0.1333867866829979,0.11123732022949881,0.045011971355885715,0.008015404350764315,0.026098928289399345,0.05364147185761426,-0.13954861203290622
0.028111726437382075,-0.13528140498763047,0.1187066627339666,0.04100219780864055,0.004886696423447,0.027792871713094976,0.05691568885893306,-0.1280962912899833
0.022704781174926105,-0.12942884800640983,0.11523776169274892,0.038660544072043064,0.004005454133104935,0.025638412889434897,0.053607694870416875,-0.12606591279423449
0.02720404353052653,-0.13574835089777146,0.10528120671850809,0.03988151100914035,0.00697460752504445,0.026368245418744753,0.05815895467947807,-0.13923808527444992
0.02857827544040334,-0.14477841293340246,0.11277466415013025,0.04010399751622778,0.0033785554406871162,0.028613150159814766,0.05712979277792698,-0.14468289003298418
0.024894692662573426,-0.14354673644834356,0.10936901215634956,0.034558020779407714,3.7222551295995956E-4,0.029383345002009884,0.05877368365415727,-0.14370772630102183
0.022917065418399107,-0.1334263828067096,0.11986662720703788,0.04370124490530782,0.0033693078514187933,0.025377155426663557,0.060390309148229834,-0.12734952981957404
0.026292184604451957,-0.13121270374943833,0.10398846723209122,0.03552019707261294,0.005659770120877143,0.029227158656481886,0.052953102166076405,-0.12657840105062876
0.02306903248852463,-0.1291216021518502,0.10971030173342325,0.039221031402184185,0.007394479044809737,0.03560842850083602,0.0548412588540339,-0.13225052311890761
0.024987386559039093,-0.13748375895491244,0.10548350027806569,0.03835370782978749,0.0034089501540861883,0.025679328782563893,0.053881112889066406,-0.1450094251659653
0.025197537589857693,-0.13934078936497468,0.10486069521087832,0.03440415419290928,0.005599306700929979,0.024109537312267983,0.05080265312865225,-0.1476812664694593
0.021131095649220825,-0.13682334716498026,0.1030814856995246,0.033036521918631,0.004683032008668883,0.026221028957717607,0.052713334107785524,-0.1403843926006401
0.021815668734585004,-0.13440695236637876,0.11325106304657886,0.036249219329756964,0.006126459268658311,0.036262272522084305,0.05574374056016275,-0.12941741859235334
0.02537540718507928,-0.13284699041461834,0.10847551028916949,0.03471149424289424,0.008197428226745273,0.03103438222208993,0.05264313273882671,-0.1408315666019878
0.02242173825136708,-0.12977247340995,0.10544467106358456,0.03427135642227392,0.009126160970895735,0.0251323675031569,0.04443991761065977,-0.14586700235483527
0.018633950533730532,-0.13546701176581966,0.11191115911058984,0.025394770769340255,0.004372297765764919,0.02594726960730151,0.052111839372214024,-0.14796286436121145
0.020715255199195714,-0.13994104226069906,0.10551086471722751,0.025443941445928184,0.005849192175304271,0.02036086057674287,0.042087290812765445,-0.1467814213867992
0.023782178568254094,-0.14211641358805485,0.10293666559954487,0.03427497460910114,0.003835817009838876,0.017197910968603142,0.045441175345361996,-0.1467273005079782
0.023765732803758863,-0.141057755268771,0.11335703856806774,0.03399190050995966,0.0028342036760648547,0.02696776535902032,0.05018969080651652,-0.15127393962274635
0.025323874461611374,-0.1375793213186605,0.1087819266752585,0.028785688074362145,0.007621597965815739,0.022704928253265196,0.046671418123202704,-0.15136433691550444
0.021487815414873903,-0.1389548132923371,0.10175473851726781,0.035417787802365854,0.0065612776092612915,0.02254521411020966,0.04147578567826435,-0.13146287241497936
0.01741453345206018,-0.13585846341488728,0.1012841927190835,0.034930138327547516,-0.002210941139971173,0.018354766316596285,0.03737710434925436,-0.13218996500345656
0.022965618284213382,-0.13617734085611416,0.10825007564289103,0.03033994163738285,0.001644429486812666,0.019260673330773043,0.04038383887638085,-0.15160683207261796
0.0216133067691946,-0.14273226603181216,0.10534315150767162,0.03380362946483077,0.007008551377480824,0.024882198258440996,0.04379272942868744,-0.1509158298731436
0.021508755256100437,-0.13669951489414414,0.1091725681779594,0.03521586534327675,0.005128576440955636,0.02240337041647128,0.040764748833523316,-0.13861085148922483
0.020558270057375268,-0.13949624915327194,0.10649077779953232,0.03484083708934707,0.0053102479309624735,0.016899441916224067,0.03997149881563062,-0.1351469631097575
0.02496318908514369,-0.13962350529135087,0.10894832925104467,0.029777194621272204,3.3381054533916047E-4,0.018827274786223088,0.03860995042714062,-0.14271132195764552
0.023219755581910487,-0.13354080464848286,0.10734154023390222,0.031677540874785394,0.009210225209381515,0.015669352594253144,0.03506247761352163,-0.14906016456585053
0.024075242495408832,-0.1468302938557163,0.09766838949983124,0.03196175565321023,-6.905494754844737E-4,0.01831370062708758,0.03652464421641588,-0.16092845119964666
0.023983869493872288,-0.13936752650348747,0.10994362826618534,0.0328195490124003,0.0056972354433927185,0.02043358940904662,0.043041169099082184,-0.1369889951569716
0.0193191843442312,-0.12777813066777297,0.09987051957621991,0.0329060351427813,0.004608409270196227,0.013837750887410951,0.035282921046537456,-0.1336975950783064
0.022842674499714877,-0.133655076275018,0.11264424655910282,0.03267644879714442,0.0019449575055210226,0.014706058843817156,0.03851482471299164,-0.13854632785771004
0.021940671825123315,-0.13837741172448093,0.10658094168075864,0.03258766024407964,0.002809828334752313,0.017319565431140157,0.03456292522282102,-0.14977345116422336
0.020562029312849676,-0.13723348249856154,0.10376346246840004,0.03231363429862455,0.00264946729447187,0.017883135196832916,0.0354691042405226,-0.1445394435024939
0.020923585442864878,-0.14168243577644327,0.09951120165888269,0.027961783753880486,9.32435713716169E-4,0.014494332745186182,0.03892075044257665,-0.142841752450391
0.02106619210774193,-0.13595239949946714,0.10604635117323144,0.03223731253215664,0.003568250006734175,0.020742693981029903,0.045714553270529194,-0.1334561840875225
0.026044570067454517,-0.13846874631423278,0.10692016333777107,0.035090411687690934,7.96312243777739E-4,0.017957962611639917,0.04677833247823172,-0.13505962363006827
0.02167628485752507,-0.13114913066581227,0.11015107142927091,0.031849701457852514,-0.0019040926823818587,0.014265589238920774,0.050754784473648576,-0.147628149431653
0.022049917598851904,-0.13777517261919972,0.1020983600961359,0.03097171820404913,0.006677738166944015,0.020098064079732303,0.043236637383410846,-0.15258765072509473
0.020636440710187335,-0.13975247876516245,0.09922524982054995,0.02599470345835942,0.002543551967480268,0.019824261474640965,0.04107383204710602,-0.14503699968004866
0.02041131926321971,-0.14656967379971506,0.09725680018628077,0.02570882013136867,0.003078153932435485,0.019476342862708187,0.0445772321868772,-0.14640809591165507
0.021712741803217604,-0.14415960756704757,0.11168994364806924,0.036304587066153075,0.0038153216859981216,0.021514926557895487,0.047754547868203046,-0.15412959152455138
0.02125584780406557,-0.13904736626963324,0.10758670326750336,0.0331118173544427,0.009254772133750061,0.017134400909286154,0.04561633007292145,-0.14472137012755504
0.02766713734562652,-0.13652463851595692,0.10267556346512469,0.030433779122379927,0.004469909950488488,0.020830010572055097,0.047823885335650816,-0.13990938770803923
0.022425020296988195,-0.14461748154270887,0.09505804502485213,0.02719970129904847,0.00220497914751111,0.017094770615377286,0.04182025814044331,-0.13692850831367603
0.022833127647043688,-0.13530319822257314,0.097977617232638,0.029794092434585886,-0.0013581632473698944,0.018012182696095884,0.04742234127958316,-0.1481536581495798
0.022017525570619076,-0.14860242203631924,0.10697313794027757,0.02939843270788828,0.00729403698645317,0.024085002520780677,0.05124978275496804,-0.15684643794220793
0.023598414588254256,-0.13617220777510652,0.10996830253774191,0.0342777750011508,0.00537856832662906,0.025412010665622223,0.05323631411973693,-0.1481924333404983
0.0244567290566706,-0.13842338940946788,0.10310958431620719,0.029866249400975924,0.005021407522223312,0.020632805015377783,0.04917483095005261,-0.1369597002064958
0.020430998070441693,-0.14042637324252014,0.10652958217236615,0.0289650188469419,0.005166478335090417,0.018124000943097945,0.044317801919413896,-0.12884596353196417
0.02383794789227701,-0.14056459264925833,0.10683666861976307,0.02953659507918802,0.001332408450713558,0.018843693572774642,0.04365436757098112,-0.14682251287980644
0.025484004770525658,-0.13997732947246533,0.09624121843975549,0.030770524995597313,0.008545001174914899,0.021956493364589175,0.04962523237008825,-0.1566494888852018
0.017891969769012007,-0.13779411249110257,0.10213682685366832,0.02861708086037064,0.0052177187066910205,0.020580157515048225,0.05034497511219671,-0.14973347305785825
0.025259735501999742,-0.1289962754738459,0.10671404250987708,0.029125213702685244,0.0033893897293420395,0.02597281721162053,0.04732700989320412,-0.12985377850584476
0.02336332160239458,-0.13643149487654382,0.11312489929467588,0.02709082684530761,0.008084714830500366,0.024720152863359,0.043814991759619934,-0.13524124444308538
0.025668089059905058,-0.14394377774337982,0.10156617588686355,0.02746463659775184,0.005271580181312699,0.02275451233432929,0.047054798741448536,-0.14673230098845386
0.01991494333371732,-0.1461706132204608,0.10884613887523373,0.026039071060963873,0.008055090026163524,0.013927498088537838,0.04181725829902742,-0.15693445198756031
0.02139705908912733,-0.14887472635914725,0.09724805367105037,0.02602934985508861,0.0017143902080113823,0.014520951288878058,0.04731005353889221,-0.15703559205487908
0.026149312520724617,-0.15227489596582836,0.10493623237945159,0.024056858550779735,0.0016373590128405202,0.01817614016353566,0.050933864079151285,-0.14800231963787183
0.02041380479436736,-0.14525456189055547,0.11039498042415458,0.02617638636032153,0.002531494344053015,0.01955769727864633,0.0485251504733205,-0.16897957967629923
0.022665447891693273,-0.141106956481799,0.11618710451594762,0.020148689655576486,-0.004625889766163439,0.016890711201754012,0.044397714206454886,-0.16991877961796792
0.020384473999617292,-0.14314212747267585,0.10089982712662157,0.030402631526166624,-0.0010271133132576655,0.012589393481779117,0.03601595098857614,-0.1656468071082614
0.020750154374735777,-0.14499265861869104,0.1028029090525578,0.022960065433750943,0.0010597815245644885,0.014328958431680725,0.034963750549427235,-0.15445835275340414
0.021539406835079655,-0.14690401029034542,0.1148634816565316,0.03035431031507651,-2.5097327395703223E-4,0.013741824884129249,0.04096209548445022,-0.1583878744706576
0.022827840843126706,-0.15095217545134484,0.11684161119888987,0.02821422076019311,0.008228396345352168,0.014752932934689685,0.03801295606256687,-0.1638388899093684
0.023406797842601454,-0.15256890079903673,0.11284129634107741,0.027461605693752965,0.005204515294949312,0.016064176222757905,0.04364823257883824,-0.15613652138953255
0.02669511861106105,-0.14493698402912314,0.11104621870989465,0.035293118278174246,0.005763881168223314,0.018809843947251128,0.03731290832342551,-0.13783894438532604
0.022121036632374757,-0.14904458780146773,0.1056395624853359,0.029890881114935725,0.0017916931284017274,0.011441893881233178,0.03527619427723466,-0.1465974779330101
0.020416169964917828,-0.1455497615438347,0.10345452328454918,0.027774193892624043,0.0014679887806745733,0.014938666180139575,0.03965302323187307,-0.15816205162354258
0.024114043830250696,-0.14933912649966855,0.10761006593889189,0.02737773446471515,-0.0057881653284617965,0.013136771195167398,0.03551809536531959,-0.16983218318543553
0.025199369402187942,-0.1499156018634457,0.11170714614607952,0.03153772337651432,0.0035167526419834223,0.018517776096846444,0.043605978979361075,-0.16068223815458912
0.025941062946219597,-0.1394366181007112,0.10912956959489233,0.033341802274171675,0.004969981840945192,0.014763390570261296,0.03803659803996585,-0.14231179880135086
0.026260714188615038,-0.1456515126844103,0.112920865656283,0.0340977500607166,-4.243352819827284E-4,0.014370239697279488,0.03712138352149083,-0.1420803790698607
0.024319290140341097,-0.14514282344812685,0.10582935455801537,0.025203185591466823,0.004602524367012947,0.008915968727300475,0.03698399231709117,-0.159472014285742
0.025289445055358347,-0.15134317830498145,0.10799325012567387,0.025951720656393812,-8.437827696124758E-4,0.008669361594588521,0.04040933340860831,-0.16203566633641783
0.02807781323698675,-0.15088124863776192,0.11161635377176557,0.025727571171425035,-0.002085588793367337,0.01609574021252787,0.038397774153834385,-0.1649175022049703
0.02777691360710795,-0.1458994191624773,0.11514574770376539,0.030405503400382814,0.002461383322088562,0.013412776796951473,0.04382750579499377,-0.1607355578267734
0.029195954077673315,-0.14730272385370044,0.10809118090491075,0.03245204568148581,1.7507473227436693E-4,0.011313431249429245,0.03661165740845916,-0.14889113620493263
0.02790698971050359,-0.14779015204769855,0.11335297095728994,0.029722094995039083,0.0011308393599547527,0.011394206860021168,0.03698196650173409,-0.1518084193008679
0.027125630014701484,-0.14661312540651317,0.10632678964253349,0.030378475193668975,8.762715741571373E-4,0.009420498428915285,0.03302309045605379,-0.1667596492149843
0.02274195224231243,-0.15144489475649806,0.10796603398483665,0.024008474293959872,-0.0011412422082881007,0.008032144590772974,0.03147388262391621,-0.16585742024433117
0.026547067287618124,-0.15055365351046296,0.10378539641415739,0.03117546607580601,0.003145007103443276,0.010242296288202564,0.03244471257044606,-0.15864209338001342
0.025773267649812536,-0.1437566903552681,0.10472393626365918,0.03232526938910668,-0.003751895131777808,0.01105476380395907,0.04086127597345249,-0.15745025284556965
0.02328803209820444,-0.1493742798349537,0.11018550721874033,0.03237886488316583,0.001850015883358005,0.011553438011940685,0.03675452235235817,-0.15165417832996625
0.020492132063556042,-0.14818744694912556,0.11312943876790278,0.028267087847302048,-0.0020629145343758946,0.003951576099183911,0.03400657983339555,-0.14853154488633033
0.028297657926134867,-0.1478237063223284,0.10283341556641995,0.027708427082421334,5.555515130691358E-4,0.0066004850556633885,0.02764353145580386,-0.15619206053574283
0.025981276594537316,-0.1556612762841623,0.11376025723046104,0.028094839114905568,7.653617966376824E-4,0.010395386595171379,0.0323777282478464,-0.16255708515516476
0.02378253123661103,-0.1534151735251644,0.10010864399637164,0.028471575861991495,3.923595209286986E-4,0.009201702203078563,0.036129440904820995,-0.16350874381372307
0.023459704548281682,-0.15234899488398831,0.11583318280259995,0.03581301027608027,0.0021869229261336984,0.010813369379020367,0.03523380510293824,-0.15330864226226337
0.025839232810054014,-0.142649351275528,0.10708693049172122,0.029921187106415628,0.004346490313080676,0.011905307069471224,0.037466029981534636,-0.1392076002878676
0.027845346885272106,-0.1453855460545085,0.1122122710174474,0.033475692495854165,0.001607033589802353,0.01142548981161094,0.03989997633781476,-0.1445197043201235
0.026192787959257065,-0.15434081796901056,0.11692815910685944,0.026857574456131825,-0.0018835174837473938,0.008522481682738042,0.03532178178502607,-0.15677067875375025
0.02928337318430006,-0.15108954550908751,0.11103977132219943,0.032275821569090236,0.002623737051255475,0.007975064674179843,0.03672493164722621,-0.1628221478894025
0.026140731341629087,-0.14791505241446845,0.10606465967197247,0.023846540343114363,-6.951272587558281E-4,0.012567479092202327,0.0409499900778131,-0.16181240426915136
0.02998502348039978,-0.13998807895295937,0.11865741792723868,0.031210346901789074,0.0069011409878459015,0.013503193970357598,0.04755161111127316,-0.1455808568751718
0.022700996933602367,-0.14345964591343346,0.11848061168534489,0.031415681138542324,0.004492887967296489,0.013497816401273266,0.04002121593072844,-0.15736330219912384
0.021436768458213587,-0.15509043849480492,0.11965908003887994,0.03210880520047814,-7.332751170737937E-4,0.009519152286955369,0.04531745464226184,-0.15762963620305928
0.029191038208984867,-0.14011000876869245,0.10925038540116028,0.035277908826681206,-5.216612660526267E-4,0.012015547149383205,0.04150869588371634,-0.17338671391051508
0.026675426112837682,-0.14189745427202205,0.10286065673194858,0.026866864930571225,-8.086240526037619E-4,0.0148698939148875,0.041909164748893585,-0.18120773610468263
0.024825309096761415,-0.1366973011857342,0.10273594429741055,0.03184241777735971,0.004132372101304824,0.015093650078520954,0.04588721233345574,-0.16878100727281406
0.02456961094371392,-0.12237597190823832,0.10448350883053406,0.03159586346797489,0.0020640431194617055,0.017330324979745074,0.041917954193360106,-0.1787739372220828
0.026172741908026147,-0.12395982139197691,0.10729794063081306,0.03392219786746267,0.004236128938665197,0.0197414370083174,0.04305440832792884,-0.18855991455566465
0.02577334660360364,-0.12358443490978328,0.10239304669112889,0.02939894279721311,-0.003653554173526119,0.01624498139688196,0.0484755379168582,-0.1834625537259769
0.02858168964742884,-0.12748868900298466,0.09204356805163973,0.030228722612667406,1.1579090051292501E-4,0.019336412793351253,0.04308172005846783,-0.16757008914222282
0.02500486925757669,-0.13560969581293889,0.09503728175856882,0.03434510366256608,0.004201160997356491,0.015864053927395972,0.041676223401235134,-0.16191021648210102
0.027900225136328366,-0.14244235360648735,0.09662400332106603,0.03179690539906349,-0.0019249506801370586,0.018868063809346403,0.047430836771185154,-0.18863349213239705
0.03141481182842245,-0.13230877175198788,0.11268325488586148,0.03980425760300194,0.0036657541702309828,0.020517336225573033,0.049809895382464955,-0.18989442381451752
0.02780305768448422,-0.13703261542331976,0.10689925474742143,0.03818061709427686,0.005624661106688636,0.01933653113718857,0.043753616796456424,-0.1732758576523317
0.023401640207407606,-0.13284063006528646,0.1077141481148643,0.030154842729133578,0.005081446756968777,0.016520267128305004,0.04200196980978513,-0.15622233343973368
0.022279419172569048,-0.1404850750792929,0.10062793273002672,0.03031354219314068,0.0035103562573482747,0.018370423465984817,0.04343455138167888,-0.16116643094101002
0.0243441543581014,-0.15201745234804404,0.10722141029940233,0.031249741265491758,0.006277122431551372,0.01809160571450962,0.05378539385610067,-0.18422721712739373
0.029470764025566247,-0.1472907967210974,0.10643364725712365,0.037165405066304176,0.00456897029124159,0.020621022611208427,0.059675089549319806,-0.17683980373416283
0.02567661789375337,-0.1386675651116844,0.11079541177478214,0.031388934275895154,-0.001041291591452289,0.019660098148537895,0.0544803057080171,-0.16796215216857907
0.03158640068886798,-0.13214029830675897,0.10123051586230866,0.03308624344104759,0.005312963573238156,0.01760348819875103,0.05338618224409726,-0.15813307370333954
0.030426098606044404,-0.1331925918255081,0.10175387091639063,0.035740838190127085,0.003929042349133573,0.0199975822951089,0.04724380971705432,-0.1682925768999833
0.028987157424649017,-0.14220804168440668,0.11021325034853982,0.0287808288984679,0.004796838896405459,0.021268878669791054,0.04944288698796961,-0.18004963293112108
0.026998437779488252,-0.14219972390058874,0.11161476115608254,0.03322104820621692,0.006245491718325322,0.018801553811045715,0.05165038117611398,-0.16806503606088405
0.026308329474512653,-0.13750689280940084,0.10716885434885133,0.032429036115812944,0.007304060372280286,0.022005816964820967,0.05295276094323414,-0.16725551519258028
0.024997081443605042,-0.1309619861699495,0.1090064608845513,0.03809411426183416,0.008910351713574051,0.02184177139392488,0.048842763931183086,-0.14931939977546405
0.023754827367098764,-0.14176612857466173,0.11205700547279791,0.03570711219350155,0.005713768492761102,0.01899069880870663,0.0536280059611415,-0.17408205767137527
0.025420654362942018,-0.14213310022113942,0.1099451980382151,0.03452828807678551,0.0036021310859589363,0.020345907836187314,0.043414311868294385,-0.1856451136787796
0.030860316226403024,-0.14344421971585078,0.09527223400569011,0.03361092811484681,0.0035891487478784596,0.01770774453495402,0.04848348229940797,-0.1735592208579245
0.02503882241204622,-0.13481244644492105,0.10340296759106214,0.030089167569395392,0.0010826035336964999,0.014320536423116223,0.043954441232796966,-0.1532310554102886
0.02343806962393429,-0.13709602512973848,0.10940258007890356,0.03771793532724745,6.184172738817417E-5,0.018318954289244686,0.04819705269737603,-0.1472390451328075
0.027355459721504244,-0.15209661698245788,0.11238523920604072,0.04209727374845791,0.0016824702543458056,0.01979680847112681,0.05022656986650637,-0.1537580885333644
0.029952140774455866,-0.14469695579797429,0.12428287128373405,0.035212722726764394,0.0039679269401906225,0.020411206105778804,0.041622818380186936,-0.15075371101607246
0.03028769978358811,-0.14833242796377757,0.12328267643116506,0.03784392046324005,0.0028554275601616937,0.017608545861617697,0.04924757741582821,-0.1362745759885338
0.028673889898968474,-0.14737258627481137,0.10881688252472452,0.03451238350133217,0.006967625778524547,0.014586236826575848,0.04316367289367218,-0.12781501258316616
0.029233381544980078,-0.1514175715129452,0.11021855505936808,0.03618675694546944,-7.813549223928873E-4,0.019005965515043338,0.04504285925179644,-0.15334960828655356
0.02954649002296294,-0.15339395982263412,0.11877151485284973,0.036325529884468626,0.002023175082320275,0.02280381812271267,0.049598700743262385,-0.15549993164377174
0.02481202170376202,-0.15807442094639404,0.121954582711134,0.034593714465654374,0.003982139066375897,0.018890742737036514,0.05208497054465987,-0.1406381062798809
0.03255366102140659,-0.1454419790568711,0.11298831301259021,0.04014608087836635,-0.0031864229362729593,0.01570145549378757,0.044345018443804236,-0.11288805398318885
0.02699795910679627,-0.15449340331479613,0.10817644344356497,0.03492351694261924,-0.0031285115767768733,0.015500072911153172,0.03480235397671737,-0.11136561892953611
0.02638500229575531,-0.15274047854485434,0.1127830648549366,0.0290530681897092,0.0032835970407064565,0.017654060846522362,0.03541674993949653,-0.140252154033808
0.03156109937211745,-0.1696561785330263,0.11449506097396353,0.033319437011714234,-7.533683817348557E-4,0.01528232073725601,0.04265581180746788,-0.15671611984898232
0.029719515870810835,-0.15024351706417463,0.12107896480717602,0.03798631097452117,0.00924762877002075,0.024292185807798322,0.046939300662891814,-0.1297105254830261
0.02842376105696662,-0.13171344904394822,0.11036916497981432,0.0369707203781877,0.005131831980679719,0.015228338022757769,0.040380724726358605,-0.10180576773293691
0.029572114880308756,-0.13678418135122386,0.10715128599888118,0.0323378226120652,0.0012921378324962066,0.0124236098803443,0.04325585156732639,-0.10372052626914847
0.030483230509008436,-0.14532219469578844,0.11817782747620043,0.02903647670536272,-0.001566674638351659,0.015939781774309873,0.04190784565157725,-0.1295307736724058
0.03190227484956105,-0.14918074611831864,0.11526152341563878,0.029843948212453446,-0.0020286252383034256,0.013124768115481168,0.03851959442755925,-0.15510696646245936
0.03067322247943559,-0.15366854225048537,0.11216707705741243,0.03288013993095138,-0.0019642341687601695,0.0160133339726667,0.03975305958767096,-0.13871752710460775
0.0334883143934464,-0.12776328551453955,0.10859750987856931,0.035498934583903644,0.0062571575731212034,0.01902127179313975,0.03737211502095554,-0.10566843820374452
0.03281647470605987,-0.130848759614969,0.11140747139915909,0.03649227209907991,0.003266356815136624,0.014053265426609729,0.0403744807015833,-0.11193215861434552
0.027324202417152475,-0.14118462018109768,0.12836979334418025,0.02734682615557211,0.009522501296903242,0.013126902814004804,0.036171327312916494,-0.1428884300705894
0.030325674180223514,-0.15033048968290066,0.11515158791043724,0.03413173174042925,0.0016809173621065254,0.012194402017818951,0.03506486780684908,-0.1436841925490644
0.031322318791711073,-0.14044470887662028,0.10903966379162579,0.02894873294696324,-0.006272146504508886,0.008594768198517845,0.03663516035966259,-0.11893566223476705
0.031342017452289636,-0.1349413424032562,0.10862077963244018,0.03185379892978226,0.001890665657339283,0.01521364181780693,0.03797033288562403,-0.12751839683592484
0.03147088992973981,-0.13691772700838908,0.11163283723776443,0.03125669205659114,0.005726017740429449,0.014436460497253844,0.038662494222533435,-0.12284116608755298
0.0292922319193635,-0.14195012446868524,0.12415407228119882,0.034105051654622444,0.0059497992721006185,0.016607473247421404,0.036827446429381835,-0.14685580258523814
0.03047248111981448,-0.14966883219396718,0.11475612620491836,0.02900151929089004,0.003735860790012962,0.017424000058959336,0.036406294512617746,-0.14078160969587356
0.029716473724976787,-0.13708956736737857,0.10372256889766322,0.02666480886916003,0.001043152837552454,0.014627194427348153,0.03156956815833957,-0.12390145850403862
0.03432219391932518,-0.13619612198037945,0.10299320724126941,0.027711739206328957,0.0020513771136926153,0.014856682574639962,0.031846110383937504,-0.1289783298436461
0.03064295872384437,-0.14470246475323284,0.10137073058044974,0.025725757208110964,-2.625800505240521E-4,0.011976258771026203,0.03303569936064007,-0.14319076277079995
0.02715466200140136,-0.14619819418707033,0.10999979744929139,0.027787155870278902,0.0037004287684599723,0.017930976706557515,0.03372462951643533,-0.14130454878584095
0.029529292061496543,-0.148723642211594,0.11075616122639109,0.0297115915539736,0.003623264984436191,0.013475416614789314,0.03468056370910679,-0.12660632602769903
0.028430408569208917,-0.13686548283116032,0.10561997992450065,0.02700103101426031,0.0022444848128293847,0.008881059601380551,0.03445534064703336,-0.11176117462706693
0.027732255794954197,-0.14484445841257879,0.11063376353253053,0.02174088955734703,-1.8818438852394014E-4,0.01172153548057389,0.03049537049761627,-0.11876854720312764
0.028531192989313395,-0.1511277304372756,0.10916493324651959,0.02242994853935026,-6.021415700975264E-4,0.013370493337783701,0.03550057517862866,-0.1491787653977351
0.03295784085897664,-0.1463729144753613,0.11217811843330147,0.023088585625947615,0.004003154786334303,0.017729517866714294,0.03979582536048002,-0.13952038885604012
0.024875829811038985,-0.14432224666550117,0.10916718437286409,0.024410708111033484,-0.003572298719904738,0.011267156284469412,0.036393525519381235,-0.1213282775350093
0.023915606410183008,-0.1412930021357175,0.11221720556910564,0.02031152149685691,0.004951005362903295,0.014458770414676171,0.03384251263947021,-0.10692561035443492
0.028690257530598746,-0.13978449438853346,0.10601143606133774,0.023662234412467516,0.0016686920565096596,0.011588887641129123,0.03162834880473447,-0.12070074474440527
0.026616672657530527,-0.1482513728506804,0.11201117429272693,0.025112296599752094,-5.231001603356748E-4,0.013873148948717745,0.039803861236501745,-0.14282469635651437
0.028489579461997327,-0.1531976309265938,0.10577945330826066,0.0223563686681385,0.0017747297173133123,0.011560624406444564,0.03904479283383019,-0.1504006007781046
0.028187746531833535,-0.1463298962097491,0.10879882352581662,0.035728486664550606,-8.777839678713138E-4,0.01655864623265296,0.038400187965454274,-0.1265940518842746
0.02938773822524933,-0.1372361968118511,0.11021380882250442,0.025453326668759484,0.0028928814253693885,0.016652149477858143,0.03208019105741094,-0.11645383160786749
0.02542775190068346,-0.1372207269652687,0.11717579747065499,0.02566080544989976,0.00198189236301697,0.015676922457134545,0.03750778484005647,-0.13233339738060387
0.02468544029593761,-0.14817240821541264,0.12000245253093007,0.02776130667237338,0.0030417798900374553,0.01157402741477236,0.03545548800753507,-0.1551406231724413
0.02766729531923968,-0.14533641821190024,0.11068399122889772,0.02026744991172771,0.0034403935841058973,0.009100903846343792,0.03257911952522274,-0.1412706259033907
0.02581801430230087,-0.1415479913797129,0.09870228836460117,0.019312214478756293,9.338647709052766E-4,0.009391887563096842,0.03825884861151694,-0.1414275736630685
0.028116424329651203,-0.1367798765663624,0.10598298928956573,0.026807456394252187,0.008245053772011669,0.01298735158464761,0.0342102078698871,-0.12792864205348814
0.03129037160163161,-0.14586312995584258,0.10796808762633624,0.022376207259717895,0.0037147028311065424,0.01369500331847993,0.03648331767679889,-0.14091248551903998
0.028166328431789622,-0.14324007007959755,0.11822338549406469,0.027306708562743358,0.006685029931115917,0.01136468511466847,0.03523221194061892,-0.15375132878562056
0.02888773060313039,-0.14299576922316568,0.09864439381529573,0.024653475766963792,0.0024276869446876455,0.005799376082885952,0.030139243453961472,-0.14416987252735566
0.028531239612774286,-0.1460534688064689,0.09983441011480444,0.02269829142835427,0.003544373758278372,0.009641855638923804,0.0340937136051008,-0.13221670285283238
0.026508396037900697,-0.1458576616978381,0.10052046903543958,0.018240056989661517,-0.0013235663916220412,0.011373174948110363,0.03523244928228194,-0.13044395314434096
0.03699093670119996,-0.14540556927130913,0.11064392399691934,0.028741434292251188,8.365278871171648E-4,0.011564283856621472,0.04032410761225416,-0.13918090041393374
0.031211232447110916,-0.1375448281189375,0.105891496721229,0.03455686376312059,0.0024789726574148264,0.011190870883187194,0.038776371595088906,-0.13976276017341024
0.030191124830320888,-0.14015404415294827,0.1137126414736453,0.02822858858737535,0.005576738761185848,0.00926680379185217,0.03360952763647906,-0.12901138752117403
0.02985062577749545,-0.12636818388398582,0.09856836410046287,0.0308561928580325,0.005458736676529921,0.007297842420315209,0.03817683148248858,-0.12335892127686793
0.028604353785039446,-0.13381456866125405,0.10547811039165038,0.02596224441743055,-1.3594039933678294E-4,0.010718761627117145,0.03632880168431736,-0.14522489082971182
0.03232892600451027,-0.15136468371236678,0.11790188940077187,0.029402405024754524,-1.1572832108537911E-4,0.014589560507231106,0.037538669246180954,-0.14794299518292384
0.02982120008256119,-0.1416228821877974,0.12094863996146578,0.03047398808746701,0.002069973637474885,0.013758224270164458,0.04033810210419318,-0.1310087177766045
0.030242584536648614,-0.14049203845767796,0.1138287857778559,0.029972580163799282,0.0028588806000296374,0.010960315512747905,0.03544682665062792,-0.11737985268335144
0.032170819695882584,-0.1352122986643802,0.10996739773169348,0.03618076862432936,0.0036033254409791847,0.011071493414112926,0.04042154429206806,-0.12975045658051076
0.031198219756983114,-0.1395090545172765,0.1148521325091535,0.034625311994691,0.0054268058787026695,0.010911955440686426,0.03568996694805386,-0.14472229102539902
0.03303673796253027,-0.14198818448904826,0.10766340810023535,0.03380257321024435,0.003494167070124677,0.012727107707767693,0.03649272891270172,-0.1573221444122347
0.03323702411997857,-0.14345108164818363,0.10712039233079744,0.03897076465748381,0.004021114077922662,0.016858545364785496,0.042167748320201204,-0.14939449606946562
0.02831156235634586,-0.13267038469408685,0.11310269590965703,0.035981666752642805,0.002504719552034205,0.017191630260293397,0.041161428923272056,-0.13302989662268533
0.030829176336921497,-0.13009364819322405,0.11768098291954557,0.040637364160530806,0.01306204209916517,0.0156477111186689,0.03811030045103208,-0.13029952521226001
0.02957297577911319,-0.137583086395998,0.11897334072493411,0.04084164272889595,0.005754344819778072,0.016777314683791476,0.043779543668069236,-0.14506947297399833
0.027557959423743405,-0.132095610518084,0.1125732052383878,0.03959161931046019,0.006366011567610762,0.012359628634282468,0.03760001672397619,-0.1546300238417541
0.03158735852646836,-0.14436483623282634,0.10917924852437794,0.03637221928521708,0.002652916645360173,0.017065840013292803,0.03859138088956702,-0.14087972535664683
0.02977163696244046,-0.14219841336250855,0.11284598710081327,0.03744853339207794,0.0022650509719709107,0.014180066157630867,0.03859967234111557,-0.14461041561865834
0.02931453765993196,-0.12794962021311945,0.12360686161201935,0.04675646137603661,0.007618065962333766,0.01775145915713183,0.04195957633617566,-0.13115506699994375
0.031035090772656912,-0.13955809164243704,0.11772651622151838,0.04430292640675255,0.0032113040490211234,0.01874902687372769,0.043419357901243384,-0.14205384122279854
0.03759321358752844,-0.12982711105075664,0.12506897788438118,0.04542901457373797,0.007921412867891274,0.013075396168358826,0.03977272676695896,-0.1409286875292149
0.029304517761812046,-0.13223947916909587,0.12203180278533084,0.04008773662670204,0.0069433160877730256,0.01504812486671137,0.03428502999141578,-0.13275975499228598
0.02979016621061882,-0.13796465744701122,0.11180735306997637,0.039658399787552694,0.005138736615251747,0.012216200562105584,0.0372612491304795,-0.1356512375485077
0.029791976989098034,-0.1375698661832001,0.11680774222835116,0.038716306517171485,0.007064870137683152,0.017858873074188503,0.042440386996369886,-0.1576542441583777
0.034981550623374914,-0.1345391551606206,0.11239334431862341,0.043282230175334405,0.012441511457446167,0.0177525061712833,0.04637947034315303,-0.14643302796661478
0.03065836395932728,-0.13479324792911737,0.12447285749100416,0.04380277328429954,0.006480397166599018,0.017671321974514324,0.04073873462345961,-0.12620485844655396
0.03366433695370433,-0.1320499708461329,0.11261640675076316,0.04352628713640919,0.005132021019494738,0.014554694626105522,0.038129062182199046,-0.12815677410238102
0.03238129671325359,-0.13871597696198448,0.11170692821091993,0.03522539544384659,0.00818782586195391,0.014115997691972207,0.03764716839609459,-0.13844979398772886
0.03346253333168259,-0.14425703280994143,0.11032588783340308,0.041707352710392935,0.006625440595954799,0.011782282371044115,0.04184945583997947,-0.14818192571460895
0.029355125331446692,-0.1423184992542571,0.11166662799125587,0.041273297263143535,0.007456441492164166,0.016459060411182124,0.04195994478163881,-0.14735531390270365
0.03139603686632594,-0.13149324006954355,0.1125429678261301,0.044322361369411575,0.00611823923214645,0.019490519700315345,0.042364809754658235,-0.12522357495144537
0.029320240848656268,-0.12553089084922622,0.12007661018373211,0.04938621729098518,0.006539425182150183,0.012656720958287281,0.04257676779954657,-0.13087925907422424
0.03139561274526187,-0.13846357030183226,0.11551256917221635,0.04378877566335182,0.008552585583386622,0.01192477401288692,0.041181035020939435,-0.1353573117142768
0.031295843089703075,-0.1371034397740421,0.11460399242857541,0.0440629570078654,0.007029333431485227,0.015268507350973034,0.039029312777105425,-0.14115070653178843
0.0239180856462572,-0.14600899738600406,0.107913973084484,0.042416661331666806,0.001670380732336082,0.016389318676235304,0.041157067935222426,-0.13588807119764296
0.032597593623070534,-0.13728678750518689,0.11313267236783683,0.04096960138480121,0.0061562446160052025,0.014646000895615472,0.04024205177417661,-0.13569521420302394
0.03082341472488665,-0.13506650364535813,0.11534833333205863,0.046680887626712284,0.00664118201877909,0.01971553704909769,0.051772705311293604,-0.12819952490917155
0.030353437684280147,-0.13714484570184646,0.11437735275174232,0.041324285535446356,0.00601266875905799,0.018855357658559432,0.04317378174548375,-0.13854529479492952
0.033499279572000634,-0.1344766560822845,0.11446573038421738,0.04093716175255409,0.003093341081629472,0.013351625018191897,0.03916086024020094,-0.1282006776125236
0.03348787313576304,-0.128558267188805,0.10590523229596602,0.03834602946887036,0.007416319474481817,0.007783922479859016,0.03526210917980808,-0.12925640865430055
0.028953141684578087,-0.13125337244771926,0.11202835537919971,0.03603957614351306,6.292318237023588E-4,0.014246952550319597,0.030339333228247813,-0.12488315537631757
0.03290001113669171,-0.14158120798170273,0.10813217879747232,0.03730793383553279,0.0022893312076884553,0.01296727105843971,0.04174042814338628,-0.14085589782955496
0.03503631556000237,-0.13475445262833674,0.11789806099869908,0.041826989122793014,0.0036525444892915376,0.01575972922023104,0.03825005474187634,-0.14123749131149502
0.030490089695689903,-0.12748555056723032,0.1181594642988269,0.041787662899481666,0.003760203663112619,0.011177744004643069,0.03502541959542852,-0.1225246520212835
0.035111105930098835,-0.11611622554400278,0.11617911440787124,0.03810555843055805,0.001152004763997041,0.011801847507071828,0.03261381549510591,-0.1204556933023494
0.03682346602297589,-0.1289769203254879,0.10875368240136628,0.037947421908981746,0.0025369967460018425,0.01008697378314714,0.03330949010975827,-0.12147200257266438
0.033473319249211896,-0.1360918982709215,0.11325491256148608,0.038377189779994485,-0.001185775098342317,0.007299300397742285,0.03431400272626826,-0.1494012143962929
0.032363504779957655,-0.13527247979080845,0.10796259181593817,0.03607953090576444,-0.0031389156510747327,0.009957311414343362,0.02711648043478791,-0.1578836781483451
0.03648293181626053,-0.12783952867442905,0.11206613610406109,0.039773456317894335,0.003939963274986856,0.012328261638972353,0.032582272794988015,-0.13117183548272218
0.03525719290207276,-0.11996482496355576,0.12167425093391927,0.038030101919889286,0.0041734503593893425,0.011613622157315874,0.03167667256762803,-0.11849837856807664
0.0319460815936196,-0.12340848229447318,0.11378247087465679,0.03453074488566659,0.0021269340358028577,0.007075521387405505,0.028379889679371956,-0.12894883751936806
0.03532315749675268,-0.1421903734078054,0.11327415088065095,0.03284790814014433,0.005376713280860445,0.006980288706385664,0.031683088079593136,-0.14287603721667702
0.03328823147686943,-0.13181953443333183,0.11189746667121896,0.03168084514989286,0.002135667435859603,0.010238012601974196,0.029817125972439355,-0.13295509114673756
0.02890042054696918,-0.1294279451869594,0.10838149445002512,0.028235225909430846,-6.864060958894689E-4,0.0026783933948887674,0.02908161199238112,-0.13070400419117972
0.03156701680543115,-0.1274860396432844,0.10954280817089568,0.03843077574530964,-0.003700814214459708,0.011271794990046977,0.031257258057397444,-0.12624062724837617
0.03089689266311739,-0.1306841993636271,0.10714068616234917,0.035534755818868446,0.007233906986348849,0.011488290518238662,0.031862040463142435,-0.12806626498028678
0.03396444069907601,-0.13264622866095122,0.11853073615686735,0.03610221496358954,0.005689398016601624,0.009847524940673797,0.03480197072399117,-0.1373055919978691
0.03284886617865457,-0.12072047759385168,0.1154082573043626,0.034158784169646336,0.0026510947995963476,0.008959641291383248,0.03395840336885936,-0.1268886899378125
0.03466807997541436,-0.1257595624616847,0.11053053725916777,0.03189425926377923,0.0037628839434584965,0.006227431660969552,0.03319666243268975,-0.12190131333361083
0.03195760496116084,-0.13097314789743178,0.10409972525693134,0.03341448371166799,-7.113155859327947E-4,0.00992346789985177,0.032375354874659534,-0.13563864298449527
0.035448161415883486,-0.1329239654402781,0.1181549656346037,0.03337196303178185,0.0037337782336994783,0.012369348304650338,0.03821681222268182,-0.1366005973833954
0.03230028260384381,-0.12656548212923477,0.1095193267650468,0.03061440655509666,0.005828428016116462,0.013007285113012686,0.03791742527037396,-0.12882844194848517
0.034022003023856065,-0.1252315564358485,0.10638059831898548,0.03506282477605633,0.007207011155578001,0.011486085682017203,0.033298260337198744,-0.11652912361154345
0.035126832775484604,-0.12464657836402442,0.11005212230723298,0.03162439117762539,0.006421616418430143,0.0054536066086705234,0.03852957369613188,-0.11811467492752709
0.03463344577325003,-0.13421657133333684,0.10466680622360011,0.02832463707353008,0.0022941953054810304,0.015040651855577299,0.03093611635309898,-0.14487176731596366
0.03370412774953281,-0.14259196185602863,0.11115266296219713,0.03199065454021727,0.006027070835131908,0.016156558353834855,0.04259104763151354,-0.15014467852307795
0.0382743789619847,-0.13215261764165787,0.11149174560593893,0.03310375390650961,0.005423253738959858,0.015594866486722696,0.051565948430442585,-0.1349448137295706
0.033002631486204116,-0.12092981432585378,0.1122407648749169,0.034865324347044264,0.006279900591302517,0.01243863834944433,0.04406466338314035,-0.11859295519337117
0.03293169683554967,-0.11719661113132036,0.10867425360132686,0.034229097864885816,0.0035804801020489054,0.019040533838003245,0.0439872897231761,-0.10732224702585282
0.033369259176122774,-0.1264145985501609,0.11495271872159762,0.028561841721207896,0.0057455551359264,0.01693510275260068,0.04642983762427209,-0.13234107525377894
0.03497139529127073,-0.12887034341343154,0.11343324017284848,0.02722274130635054,-0.0014910058198109241,0.014013091697085875,0.04623616071076325,-0.14379885575618015
0.03527302250600412,-0.13146736202910878,0.0973968695847764,0.02504483550063715,0.005733671505462488,0.014487457629191387,0.04288917316719274,-0.13327324370913007
0.03516427711791772,-0.12057799715929506,0.10868970743080132,0.02821819955027443,0.003666570825497095,0.0194043007091829,0.050076017026512196,-0.11917088209522327
0.03452502519806609,-0.11674694495819188,0.10988409787179843,0.028213631582994766,0.006931718572080826,0.017291172132526386,0.050440778161905744,-0.11232046361647052
0.03335510885307075,-0.12430221296923197,0.1142766489927704,0.030100454791676237,0.010107529007365607,0.020270202882203898,0.04783007126446688,-0.12454455475438903
0.03551169517516222,-0.12946260911303215,0.11599896238594588,0.03037030714280747,0.0094613150849837,0.017358624952357793,0.052790807204741656,-0.1353852648063185
0.034303586049854624,-0.12739372855831943,0.10828874286106609,0.03225267318152595,0.006948635967320541,0.024556988587316694,0.05434951686012712,-0.11158076600682358
0.033815246928095025,-0.12649900466796146,0.09993015243160193,0.027058708563738307,0.0049402355341336465,0.020485477545863107,0.05466135638510766,-0.11069510240458258
0.037408380292619677,-0.12960611817865408,0.1038203650320855,0.028913434403172754,0.002933878553356043,0.024767549609720205,0.05909283367970881,-0.11951053952347519
0.035248371219192026,-0.12000590116436878,0.11587251307185911,0.03267372939740385,0.008317351155762393,0.023904292916210823,0.05833753210246766,-0.11440811411236738
0.03662304048193634,-0.12190435171644326,0.10153104032190444,0.028711345462412653,0.008554241602166807,0.026929203795530383,0.05223109804621369,-0.1090289039020148
0.0357280144336521,-0.11533489141334381,0.10069246083876075,0.028393492952198347,0.010360506122624366,0.018734035448432374,0.06105986101477314,-0.09693558460397037
0.035362292433232564,-0.12401914554879481,0.10264511477148974,0.03126919043380257,0.010408107180873538,0.026188447410961345,0.05430702949493277,-0.10667705644377946
0.03260681531488369,-0.12259415292641253,0.10574270597319824,0.024736298905658836,0.00856250601132308,0.025710003584211126,0.05801724187884915,-0.12571661071547546
0.036444025897530624,-0.12102040651940135,0.10552168649660952,0.035993997325192886,0.010399697413842444,0.029859305171979173,0.06042450095860809,-0.11216542347293054
0.038183104842398674,-0.11401799187086638,0.11101575503257011,0.033793195128550335,0.011126676597800384,0.02813390977517395,0.05861853872630602,-0.10283155582726985
0.035927371000987,-0.10835547343482874,0.10985928508530535,0.03516807773269153,0.013697303740749109,0.026089314514012692,0.05834316169225458,-0.09371518603980683
0.033936044074712526,-0.11421276616531702,0.11877300664635869,0.03783214097904311,0.013101011180982688,0.024654328378614594,0.06027081410354779,-0.10422808267855521
0.04010649109894107,-0.12012019309801554,0.12229017695108564,0.033510385773705166,0.009648424736824963,0.028206091471046794,0.05463572403480282,-0.12951631304430825
0.04056028731816486,-0.1167264670417743,0.10879242574637192,0.03141558230876608,0.011499246241071064,0.026168532994760404,0.05955316465414477,-0.12112912650995115
0.03643131115596819,-0.11125110609092219,0.12144283705488546,0.03911603775795015,0.015764876018386935,0.031001935474097915,0.06026269508988247,-0.09164101809448233
0.03528807666225804,-0.10874401823787903,0.10516323374494017,0.03351240342792185,0.009538791609444954,0.026913150691664292,0.06453176410837697,-0.0932457764563576
0.03290070561879065,-0.10651450115235511,0.11566824591148149,0.037102733499142594,0.006969980692351337,0.027531372854754998,0.06338220847980487,-0.11339248021422367
0.03679317645672799,-0.11687906673945803,0.11563052771225205,0.03345124069836246,0.011589434440184366,0.02960115936815442,0.056333742150928914,-0.1095745353684304
0.03457131138374736,-0.12029522856483733,0.10914835684325531,0.03450716619363555,0.012959517365971557,0.027117360668484865,0.059249080094575704,-0.10493300097561413
0.03262254851051642,-0.12224690863414114,0.10641888857388825,0.034641402641521296,0.012288170379887253,0.025741768528309658,0.0625795502719666,-0.1040294455150006
0.036139637949998867,-0.10870916503103893,0.10974946033286674,0.03631107345971863,0.017677367851731903,0.032952814297514205,0.0684570577827264,-0.1006997304209392
0.03453979526162698,-0.11814739692629954,0.11963135793171421,0.03925893683012142,0.009352612750115114,0.03282578998313304,0.06583074670830105,-0.09985504719150877
0.034349006236712956,-0.11975815655215362,0.10545093774031969,0.033462916240691205,0.013503633442580279,0.031605295788756614,0.06817494778065507,-0.09785716277499337
0.03871531824043479,-0.11961444150772613,0.10033391828909811,0.03155216799927298,0.010414310262940225,0.029682235004174704,0.061828216847015754,-0.09665064054749864
0.036290292421794025,-0.11779382400608622,0.10328844374926585,0.03055036337716208,0.008349482674547397,0.03170245589158231,0.06766157144379698,-0.09008355433343804
0.036896271707218764,-0.12453422048626955,0.11175474332442661,0.031167892505330665,0.011903758442210024,0.03271293107156244,0.06451909196595018,-0.09923998255841415
0.03323593693305904,-0.12389811390960526,0.11423422509353687,0.03667514915226661,0.01415672736995932,0.03197252097312517,0.06581712567627603,-0.0975733685220444
0.03459672111522342,-0.12100820177672794,0.10514915691817556,0.030966375660855406,0.01335156638899439,0.03684097603366895,0.06388190551208722,-0.09033208991960182
0.030790578547723758,-0.12124701766390644,0.10948348784887939,0.026462227504602805,0.010872434298884267,0.027799647859808884,0.06415816534534277,-0.08582611569245992
0.03357915505480122,-0.11810177562556046,0.10293087722234119,0.03450567029814191,0.01270236332309773,0.0288725958987755,0.06652152059725627,-0.08784593309079891
0.034157458883065143,-0.12940967440752107,0.10701393051156308,0.025913460674665083,0.011573349777163674,0.028446954322301692,0.0606627111754613,-0.09502737338817781
0.03584320597644535,-0.1222712471623858,0.10067735101957387,0.030524550532206304,0.014030784521515717,0.030698125380556877,0.06720579600536417,-0.08941543148910736
0.037103403277467084,-0.119754990718261,0.09965065116050191,0.027844107719066567,0.01789997377780289,0.03133786948977414,0.06307045597217115,-0.08016470928468838
0.029362310611713398,-0.11459598372143324,0.10546168492119767,0.025576667846114412,0.013976421380777263,0.026695775993919202,0.06246320192826556,-0.07503964870559042
0.03280659360615759,-0.12048324552674332,0.10413081289928874,0.024260730158348134,0.015941850526676883,0.025090780445121644,0.051136575458413824,-0.08806216755352554
0.03279858068966644,-0.12208576137383625,0.10201757734214849,0.02185221676294821,0.011434660012866742,0.030475914287422697,0.06256487169696855,-0.09272283503237076
0.03183651830757909,-0.12798949754216177,0.10802165190014536,0.021526655243145447,0.010730381688340186,0.03074812761445944,0.05683021362020156,-0.09113366428584531
0.028812968601332114,-0.11695272239223488,0.10167343409589764,0.02373758003381127,0.011871198965433977,0.033211571896581235,0.060141866979482025,-0.07474443487414353
0.03250473929646972,-0.12213656665061592,0.09967197298077914,0.02136372187704972,0.011220118835104237,0.02639730821418901,0.05719865674814802,-0.07289260279488027
0.03372718500689039,-0.12470021194592229,0.10850652098768285,0.02196817972209554,0.015766921243681252,0.028088161721449748,0.048582553376828125,-0.08239308177557832
0.03191039487645612,-0.1273820891583593,0.10195750887746335,0.02138881261048504,0.015170666082005992,0.022941363849902613,0.05442570428156657,-0.08868536581863924
0.03241672246294929,-0.12590828093768802,0.09631920905205624,0.020418671865218566,0.010879956138557108,0.02184237597285139,0.051629764483233136,-0.08871523737325242
0.029598547963974802,-0.1346960262259196,0.09364643183656554,0.012971861674050355,0.012594978367174792,0.024376558100393412,0.05603346660954991,-0.09952920338486845
0.03214604976376531,-0.12930279387051846,0.10181084530372546,0.023392064339202545,0.010507602869836407,0.031035464058154705,0.057720952145031756,-0.08642026191007615
0.02677527841619912,-0.13163929991906223,0.09149006616096203,0.019503300753156073,0.011163051015431052,0.024816060612843242,0.04985061758822655,-0.08692920931956596
0.030574361358526973,-0.12572355186301507,0.10003884057159632,0.019633493271756335,0.012999155128310945,0.02549096084838862,0.053847350655589626,-0.08487374382493519
0.028618498760277614,-0.12389898958927509,0.0989229617700921,0.01794791630949651,0.012940764730073767,0.022589098089093006,0.050750679325471115,-0.08144334753291566
0.034004606648384735,-0.12238851911869146,0.09583868408938191,0.014574607211280252,0.014268856436857673,0.021982783221921598,0.049869554964207446,-0.08152569249950381
0.03393288572753432,-0.12034967933084094,0.10355777254809724,0.01443649723755064,0.01994057346504325,0.027735825384492607,0.05411622608058429,-0.08768339080375803
0.033000304339901476,-0.12875204077606595,0.09764003907542305,0.012677112129628769,0.014079730527795042,0.02932563388960638,0.05470355070118901,-0.08128791497745026
0.03084517021963549,-0.11979079750914852,0.0983966597876023,0.011062304747001497,0.015185919690350082,0.027418463105895678,0.04421300600867169,-0.08243110460814965
0.032018696145453975,-0.11516380067652404,0.09417304147797846,0.008615202309417027,0.015690879109663634,0.021298748640107952,0.045320455492168135,-0.07436304766207123
0.031749556629692366,-0.12542088060606613,0.09202653935918825,0.016639036905104283,0.007026300886219133,0.024238747549534968,0.04791425126889606,-0.08512889182145354
0.03344414550395969,-0.12268515014735766,0.094571117917274,0.01537119903481009,0.01373512488629574,0.024673828347741282,0.04850139038586699,-0.09362085662016474
0.029974139580651912,-0.12381963667013575,0.10542963221139795,0.018500142581110567,0.009195471675976409,0.024037703950313297,0.054202415133201745,-0.0935951244803462
0.027588798751763628,-0.11534674196540902,0.10892549048742972,0.014471717832000722,0.014630228370592118,0.023485752029220687,0.049223611593388374,-0.07778184407027482
0.03501293350886022,-0.11469287485043998,0.10215008089639369,0.014944123125896042,0.011510753600159566,0.02382471550254553,0.048064566738266125,-0.07101783253086107
0.03002141359209716,-0.1257722704749954,0.09673133560417618,0.015789412269201355,0.012149543197629283,0.019467171113394334,0.047001760455709946,-0.08300380326774655
0.029551245177433322,-0.12296723065217809,0.09566659292895098,0.011904649951624883,0.013527396630413564,0.02314795461320186,0.045127607401616435,-0.09959061456733087
0.033010082756227174,-0.12629872160420494,0.10570166849239887,0.013335707814584886,0.010195748711205321,0.02698544649896321,0.04937230353746404,-0.10168103521641629
0.030910475438207692,-0.12058051061050784,0.08542630270205524,0.015682930177300925,0.013832996768587532,0.02749927023532939,0.05450954268086326,-0.08399890325722613
0.03360002491551308,-0.11348172407944962,0.0953237972350183,0.0092780293326846,0.012676242696137888,0.025404351777972737,0.050448207652153396,-0.07185955456925018
0.034086198497190724,-0.11779391443768474,0.1009499857348236,0.01667601577543154,0.009761275454298347,0.027222339743989375,0.055353646322417696,-0.0873878380502047
0.03710445186490492,-0.11724641028707469,0.09612296611177946,0.018051556435261476,0.014338151731473483,0.02710580931059085,0.05395501084818778,-0.08723512300977873
0.03658443956655229,-0.11816314830698572,0.10042137227767138,0.010964231626468082,0.017032355769158163,0.027224537344586942,0.048747266145781905,-0.08805982131385326
0.0328533534676554,-0.11628357804773577,0.10063585766745745,0.013202644838132643,0.014626262803608018,0.01891762913003188,0.045014433974303374,-0.07909930355682425
0.03704894552126053,-0.10353479433052816,0.10042913795749488,0.018284103468181295,0.01382966356104572,0.025632041930211107,0.05103475470823333,-0.06538245700560315
0.03380594698336842,-0.11347886534146365,0.09388340263487473,0.014555485692323102,0.01717997445523083,0.026230473874484815,0.05155597933400827,-0.06737300158642634
0.03746002290235375,-0.11630603444620306,0.1029955110561415,0.015711664493953153,0.018527166566639428,0.024182317829270508,0.05090338227493853,-0.07388450531640105
0.033296394942424486,-0.11426955846241378,0.0998357182055179,0.015621428121574913,0.011337901795095135,0.021840757043504633,0.04949448732159281,-0.08752839914804157
0.033488836091714665,-0.10246237995201389,0.08735246702457315,0.01329271162847327,0.01137060628141798,0.023132292696955485,0.044608228110570844,-0.07680868740546076
0.03636572512852055,-0.11878664299644236,0.0998021444215185,0.019470564722433432,0.014026331080287335,0.026906290996441873,0.04865793346156927,-0.08904265978653206
0.03731963864814923,-0.11501570568060192,0.1014623088456483,0.016477491880381813,0.013441661377400377,0.028891880785019433,0.051519061846533376,-0.08004086778874554
0.03417406959560975,-0.11403572205499292,0.09569730337578468,0.014908583583030115,0.01289501918432548,0.027346041927811163,0.056060029038552915,-0.08155438469126942
0.03351495959199933,-0.11807250002593944,0.09294695607985956,0.015132854184694683,0.011963110998221557,0.02170268453972345,0.052490238069012075,-0.07469501837404756
0.036012292347942954,-0.11286017111019589,0.09907214377615245,0.013710980302440995,0.016019906638428134,0.024123203739586985,0.04432791725586455,-0.06607214510908685
0.03606339276584194,-0.11840175847580248,0.1026520994332745,0.010145824139858685,0.01248726927312973,0.020649694125038334,0.041772317599199194,-0.0853226842420655
0.03771000365632281,-0.11740732201716562,0.09847781307983135,0.018959011850309637,0.011183501256580172,0.02236715246996862,0.04503258437514574,-0.10235167746253013
0.03386696460448053,-0.11674680016460322,0.09819068850150149,0.012632950875461646,0.013387920617376883,0.026024504073030547,0.05522608819836717,-0.07456965193014219
0.035477281158608875,-0.10700237766454827,0.09127333711773945,0.01167836534906981,0.012658052014346917,0.02286373507999711,0.049511508115133,-0.06905077947849783
0.035236094873006864,-0.10916243461712351,0.08516973923025864,0.00921279661598309,0.014552344258877645,0.020302366576337865,0.04526307774275585,-0.07003420667838907
0.03449072444967552,-0.11713062716051882,0.0935390639243611,0.012920868324578193,0.012880073604402638,0.023701726637274552,0.046644812693486214,-0.089409039074085
0.03311516169838121,-0.12209245618137923,0.08876443121769238,0.011925081055021382,0.011610600888964583,0.025468408168303813,0.04422695048777026,-0.0938111181464052
0.02962205176892407,-0.12427100207302344,0.08534262927005491,0.014669896509496351,0.01887243452470519,0.020528661585906143,0.04913587455088292,-0.08333037728829011
0.029524218845137926,-0.11305242157935633,0.09125363488193401,0.009548015325550465,0.012801827414944162,0.02926506860370258,0.051063046710904274,-0.06985867615655432
0.02993851499491401,-0.11277500399759702,0.09053503814772164,0.012676886923060604,0.012831014894390232,0.02544646911829886,0.05223689260646865,-0.0696841790853425
0.035750631441127,-0.11375265050388784,0.08978859331322682,0.013361248523901562,0.015908355255636327,0.02742759969925833,0.05199357856825762,-0.09088778943887887
0.03581017720437868,-0.12389430532851807,0.0958928823639563,0.01373068517480984,0.012764449416187783,0.022427096936890385,0.04886103454202732,-0.087268085399923
0.030470137139200527,-0.11808084517463638,0.08727648095586911,0.009202224944645898,0.010834316957285461,0.024568076764260916,0.05038513386904845,-0.07997591660524267
0.03302541962620456,-0.11084937068899517,0.09191553978975965,0.018335675545252113,0.013487993870143097,0.028947556641198798,0.057512989999970836,-0.0663455959820248
0.030478866029568747,-0.11078304260809156,0.09841410757776581,0.018683183147798117,0.013354833237590602,0.03152352959726981,0.055959219037931454,-0.0697741174575488
0.036691568888901925,-0.11565093863751354,0.10303680687455041,0.013304685388465139,0.012802956322856359,0.03320337451848501,0.05581979710658246,-0.08164225892882829
0.03559362214669821,-0.10953114458266487,0.10281175386318715,0.018049861204887375,0.009924106498783045,0.0286838281764744,0.0597934159144578,-0.08784428588712583
0.032322584439659095,-0.10781778018004369,0.09210167789759738,0.017788303771922084,0.009812905892232248,0.025189065927955175,0.05220882242867629,-0.07543528153502231
0.035792015903184204,-0.11175463800810108,0.08805332180827082,0.014333934904562202,0.011257930599754166,0.02735228296594588,0.058326864939028555,-0.07443544626871151
0.03528334735217367,-0.10137319486100811,0.10535085031846864,0.011958849960116603,0.011136818821131784,0.03358919446464119,0.0632553980857701,-0.07151982949895021
0.03338327656787902,-0.10839887794420021,0.09731724861329465,0.01465444704069645,0.015683377366409477,0.03131940366968763,0.061774525841865706,-0.08118753444377476
0.033004476348944954,-0.10982130331789403,0.09353870523805162,0.01855248443121307,0.013472876428047767,0.030223167612466195,0.05361301152931112,-0.0687391436085814
0.036872697466184504,-0.10535989079369368,0.09173012498014414,0.01523576059325563,0.007623493195840455,0.0263773484948521,0.061700522061298294,-0.06990354639821257
0.033059776924207,-0.1057669877595053,0.09414664671918296,0.014151024172378507,0.008806983258307586,0.027005963446695317,0.054730841932048836,-0.07914362899666821
0.032570728944185195,-0.11772144176442066,0.0964049854308358,0.01418342778221874,0.010784757533183366,0.028861719349404704,0.05592975424037012,-0.09464456710214082
0.035535257885345437,-0.11486947450756463,0.09692988562789495,0.02339031001763801,0.012579131766625298,0.027959649607176257,0.06129142961613537,-0.0807948808455563
0.03144416113248614,-0.10710434900833188,0.09251947163106214,0.018696217274399653,0.009158953250259517,0.024656564447854343,0.055701067083761796,-0.07266226618381252
0.034609702478984414,-0.10341328167506758,0.09448699310060373,0.017371696010055865,0.011568181710723156,0.021563499370321666,0.05959637331310478,-0.05944908736647712
0.031896629665935566,-0.11301410246067127,0.09709032914987792,0.01869925403564308,0.007576579832527503,0.023947309933270405,0.04991342876216911,-0.08236813949794214
0.034255348944665184,-0.12058961863155676,0.09525385959460221,0.014978080044652174,0.00326721912268567,0.022637369379432674,0.05208666589465881,-0.09734065274322495
0.0316086455546255,-0.12234572713044983,0.09164949371125895,0.01589329396022213,0.008706911986551288,0.024989910031713008,0.051912122260225076,-0.09732648323832097
0.03318515644029704,-0.10863991775453058,0.0958825124075306,0.02339767286600761,0.00794188377094013,0.025888818198263535,0.05398538245518058,-0.07080716609313181
0.03781756091431956,-0.11316280356834639,0.08869754600145972,0.02653138855726981,0.0041301980932673945,0.023222053286237693,0.05372521408824877,-0.061845639151240445
0.0329277080910087,-0.11573447422670788,0.09920939695807482,0.01745943135553865,0.005934235283518643,0.019202230989787326,0.05036946932330214,-0.08199395831625923
0.030305138280501336,-0.1120385811590746,0.0861347928799776,0.017339554295291135,0.008849587016323227,0.023202409406432336,0.05275856262231796,-0.08555541227532579
0.032576326375673516,-0.11963437039424009,0.09558154315231461,0.020356938288485723,0.0036379626413970967,0.018797088042159387,0.05482479216634514,-0.0839770402798767
0.03339837232567762,-0.10811085486529352,0.08901446396412611,0.019128733056618167,0.004187587700177962,0.028736143332006192,0.055616317551408494,-0.06401069373173277
0.03123413779321361,-0.11417403242617825,0.08911055104039421,0.01936521624134174,0.008258926010548515,0.022329769672886263,0.05495394304120643,-0.061930050586579403
0.0344234247090594,-0.12404136799636206,0.0900263423688704,0.022139357909496792,0.006521950275014508,0.025962620392267675,0.05508675204837586,-0.0776387736273718
0.029453096670159686,-0.11947337296049493,0.09483376029859611,0.02233967755636005,0.011990072692002748,0.02288175552796636,0.0573833276897871,-0.08024872275888247
0.03358086310757328,-0.11845155962250735,0.09123050774530073,0.01849508768931046,0.004775417614182122,0.02284922944995373,0.05304454057779659,-0.07532868718250878
0.034485230167918206,-0.11934414093036269,0.09172603683351661,0.02299658215965525,0.007147456385759222,0.02348102697464215,0.05001768068548028,-0.06879016017198236
0.03327846634292049,-0.10715311063275702,0.09387169228014235,0.026942335084668444,0.008239223650840996,0.025773777090771426,0.055998536285624345,-0.06013185093424871
0.03582579283099094,-0.11769398775809115,0.09353487164228792,0.02527809410265514,0.007172289099377436,0.029088911086963747,0.05061231473099505,-0.07668670251945055
0.03455489916509699,-0.11754142851616003,0.10483868764920774,0.029882154600238874,0.007241143834473332,0.025178865836002696,0.049059468371699194,-0.07795311414170393
0.027501768476487325,-0.11235525014905978,0.09000752767101261,0.026627025609668772,0.00241980383225121,0.02259519673118521,0.05558707244138812,-0.07278091214069668
0.03566283643293989,-0.11860942558970552,0.08602286412289128,0.02298031562464278,0.005263980837460617,0.02655751336050408,0.049541435396867645,-0.07298909217414733
0.03022468881427682,-0.11486459475935515,0.09972267688642993,0.026733901356623672,0.004158028951004432,0.028242375479876437,0.060588542886741856,-0.08360522777654145
0.03039725797380915,-0.11370518719247583,0.09703568351496089,0.02305596338586738,0.004855136224642001,0.021625232347737614,0.05855400300165376,-0.07885927408074213
0.031115864865037167,-0.11207796271918956,0.08221049199598492,0.024715998166903355,0.006287412646270341,0.028964714136200016,0.0620796950981352,-0.06970474972100509
0.03310300415951487,-0.10687684509827564,0.09843102056797713,0.026588142382935057,0.007764708434663422,0.02601715488312715,0.057383155990498806,-0.06481398576383943
0.03044727697029265,-0.11006390031994281,0.09161157205091035,0.022193157857238813,0.005497585655944701,0.02715905295486378,0.05677602421363816,-0.08051748505275251
0.0321953269048484,-0.1203788060984937,0.09200032744266266,0.023661608459076063,0.009538831650070679,0.030248989719874896,0.05539232955580067,-0.08330895675550767
0.032739005104838306,-0.12375697484114065,0.08627299902989596,0.02699951496691465,0.004001535563712488,0.030388259882918517,0.058963298602139586,-0.09337237361349016
0.03054911230859226,-0.11618234157036048,0.09200799729141758,0.023380773180129415,0.004772008956505441,0.03731385268888336,0.055523811553810185,-0.08178622675566061
0.030617289870975617,-0.11278500780830954,0.0989983618872337,0.02420044983886241,0.006110315878436372,0.026814286806903405,0.05949495025794311,-0.057936964133840356
0.029552146231950887,-0.11984410262018673,0.10203220782019683,0.02449807068429765,0.005367584894805013,0.03064683448382786,0.058359839654050165,-0.07472593479618245
0.030510637860484066,-0.11818255854390576,0.09631378775488451,0.021479663582689892,0.006076920530326375,0.029804772792192933,0.05754939183649357,-0.08199374955041697
0.03226557397474443,-0.12038558808059648,0.09720241308245438,0.024584424457404122,-0.0012646451954388222,0.029416721714267055,0.05969858331630508,-0.08157373646080016
0.03445019479151587,-0.11247617206273461,0.09625955943460288,0.026191290434017116,0.006326667527485356,0.0343095787784317,0.06626588084813975,-0.06571799971724858
0.031377947685909256,-0.1088177827388433,0.09743986494989845,0.02673251520418312,0.006912244131001167,0.03451248611835815,0.06677242567352308,-0.05666594388000463
0.030548810277351984,-0.1187934340209861,0.09962249371689741,0.026597326915884827,0.004311897304782992,0.026922976383494262,0.06448269405701551,-0.07255742339436991
0.035670313223948244,-0.12162349845705663,0.0941205315365648,0.022928824523713812,0.0051771688410086935,0.03227238038875031,0.06708926658304848,-0.08367921105608049
0.03498094683416541,-0.11451912850632541,0.09074487333588051,0.027054966588032664,0.0028737520392617495,0.03252264396311968,0.06416805758010491,-0.07237713311712521
0.032006801988740334,-0.11747316147566567,0.08950322174915806,0.024999259615386404,0.001206663739936052,0.028345398562718387,0.0664399799293989,-0.059102071791482226
0.031810666044794704,-0.1132809900562608,0.0922662499270815,0.026288967887477133,0.006615697409263557,0.031222014636434724,0.07031161029110225,-0.061283767905338286
0.03226828643961668,-0.1156451744784845,0.10182503256865875,0.028448477408317643,0.005321708852910975,0.033886216043466116,0.06452391850153143,-0.06692636305403014
0.03665005272316906,-0.11112158304733337,0.10641063331224726,0.02373282520044783,-0.0026930900061141487,0.033639812454991785,0.06251320741534422,-0.06481291338543796
0.029771042306406693,-0.11855215521002163,0.10116056814260947,0.021794582664026375,-0.0014651967233042051,0.029190225573220027,0.06258638492718303,-0.058369847724200265
0.030381504253911933,-0.10859534876385342,0.09039176743211035,0.025454817320523026,7.247294330733168E-5,0.028099206655780192,0.05989617596501725,-0.06765655304031482
0.032322815818393816,-0.11523072558027606,0.09574371561233276,0.026720574731522704,0.0032239825863666716,0.0336303184427385,0.06740447675404686,-0.08242623929206337
0.034314042477822236,-0.11032689205354224,0.09786827253224813,0.022683140181989858,0.004355092391181882,0.03228582922200441,0.05800403126085891,-0.07500246482209734
0.03156981547951038,-0.11280851288782608,0.09463401198305767,0.018582018820244933,-0.002432624711655094,0.0266731860802625,0.057092292862739334,-0.06752873189060042
0.0324862113228389,-0.10883095808811553,0.09515391463992223,0.02283601168951143,-9.80539379597715E-4,0.028443712858221972,0.050585504618239505,-0.06816638559627813
0.03390648927775192,-0.11659204490512153,0.0942970161904268,0.020626146442484224,7.16669660977249E-5,0.022888016841847922,0.05543039175315083,-0.08087522395407812
0.03206556168562681,-0.11306744001791183,0.08985058468236894,0.021393547035773147,-0.0027301401618418735,0.027091350457671363,0.05510173805931201,-0.08735748392411247
0.029869331603756023,-0.11176985770194323,0.09228961327833483,0.03042632745274674,0.0017001243964347666,0.02771637712795011,0.05590335271578289,-0.08143106421294082
0.02658488497832554,-0.11134577384489742,0.09000076362813603,0.021424614752333707,4.495009322102557E-4,0.02619066761860987,0.05097840832481348,-0.06183046374683833
0.03451688857810078,-0.11118584332946772,0.09520589029590104,0.027268942672853062,-0.004329472555012426,0.02550891245991611,0.04665254116433592,-0.05123503416208083
0.03517088066040966,-0.11946832778416637,0.10222470315602852,0.020362431054471723,-0.002046733329106052,0.0218115870716515,0.046302503131412105,-0.057389268480792704
0.03243807379768221,-0.11658002951994986,0.10085736607121487,0.02413297591248605,-0.003949806561981668,0.021208417884295297,0.04474987077627205,-0.07438386712698909
0.03428573090322991,-0.12320264149231093,0.09380109546557709,0.015784058620073524,-0.004672823370525384,0.016632590193523592,0.048047062504173635,-0.07022057107901752
0.03525147915517487,-0.11874552862149419,0.10122775235302818,0.019055247794506694,0.003597422529860981,0.025493039536408475,0.05153150933389607,-0.053832909032087706
0.03623337711044437,-0.1121356238217113,0.09866914089277048,0.022417628363911195,-0.003070836647749844,0.020863679068302658,0.042858414284731305,-0.055565381086118935
0.029957194364012344,-0.11901473735484672,0.10304098679624966,0.020643803923420124,-0.0012047035642018453,0.020868525924776848,0.044851128521679454,-0.07256541010256361
0.035129637417755204,-0.1251959627446544,0.08980860942228196,0.01903793329621285,-0.0014974586988447177,0.017151023457389836,0.0475894411113595,-0.08977572867329851
0.030476895278783597,-0.11777059921168559,0.08955626577734019,0.018847543490269462,-0.0033057482203486927,0.016431395435604665,0.05076063256310912,-0.08707110670725181
0.03390860914992842,-0.11164467436368218,0.09599579390790192,0.017350860388079987,-0.0012953627771396879,0.019894331019905308,0.051235230240383484,-0.0725334597315249
0.03273419145733007,-0.10922657066581759,0.099081235600902,0.021410678430838697,-0.002086661368771507,0.021427215053454195,0.05218609089935363,-0.05936099723538967
0.03242512769320328,-0.10873914666954326,0.0993395265122515,0.0243286977633409,-0.004169074629830315,0.023130611286586306,0.05335456430005224,-0.0780170236050761
0.03392025685652857,-0.10131324467521721,0.08564647544491764,0.02552057223322116,-0.003782153223838165,0.021785224148993684,0.05056950306358758,-0.08592775843838923
0.034675477488690265,-0.11718712926527639,0.09046209582740886,0.02482780750700412,-0.0011638434118826347,0.018817682379602126,0.04841165358554312,-0.08521167901889451
0.03200240133384425,-0.10544488801457942,0.0890178442964709,0.023639649212337886,-0.005329815772135151,0.018224288021130818,0.04933551736075988,-0.0861175601754839
0.03330280385269376,-0.10771914816513153,0.08405630436817323,0.02555246253979714,6.630708671136925E-4,0.02284588697380983,0.05667263827679066,-0.07836245411730455
0.03257657630799882,-0.10825028064771221,0.10444252750978324,0.02119636863630995,-0.0026130895965678484,0.02906810153650549,0.05565547979138598,-0.07661484323304876
0.036829963123364035,-0.10520509343600956,0.10150161223368605,0.02665835476027724,-0.004164424490845594,0.021947622712398505,0.05091526593607761,-0.06944072014283423
0.03438043358437008,-0.09983624516431484,0.08943238254949558,0.02280971240684941,-0.006565768278941734,0.022100322338673872,0.04657562425309248,-0.05743004773188201
0.034569214729558845,-0.10338558652574965,0.09317738489518466,0.024462210586368157,-0.0035055703443511448,0.01973098072170431,0.04432470562527801,-0.06623710362637729
0.034804289943249855,-0.10811652274350116,0.08713172229662294,0.026375631451116544,-0.007076598813041486,0.020439848336012503,0.05053754767043946,-0.09238180869327502
0.033486331846707164,-0.10446142919772938,0.08743473907533848,0.027665649867946087,-0.0012917902015016911,0.0237990941437598,0.05479549045953039,-0.08156820098178005
0.03245611856280697,-0.10427133722431266,0.0905188108939969,0.025723591957619425,-0.0035753380680961194,0.02318262251275105,0.05302244993325168,-0.06818849670718165
0.03670032870362928,-0.09136938893008219,0.09028618214301033,0.02681889199252082,2.9810756107191173E-4,0.021664945947690015,0.055517124780997136,-0.04874096017811656
0.031103151477082952,-0.09553522074588264,0.09454581048034619,0.026759060929163463,-0.002733888606159695,0.021596407279618916,0.050751230356888485,-0.06937225177126606
0.030687704199209975,-0.09648493190344562,0.09436238743712878,0.023780190390335805,-0.004275220629041855,0.020318651925215977,0.051817062977510264,-0.08744001691629298
0.03492535648123812,-0.10378234749818176,0.08466900180692319,0.026888865250782216,-0.008762759618332006,0.022641569775270237,0.05882905642004647,-0.08862496369337368
0.028784457452398417,-0.08928517862238776,0.09061581148001875,0.02655954751420619,-0.005867711443763238,0.02511773255108262,0.05774524379882572,-0.0652737270918168
0.028056109665289646,-0.0890133681259696,0.08727146313952562,0.028891593359935828,-0.004781485403982903,0.02554514301237401,0.0554102232250542,-0.04688432891608179
0.028690546021214052,-0.09700283119011295,0.08710922966165144,0.025347197439460487,-0.0031813571808050473,0.024513054169886955,0.05835992113608546,-0.06504955676467442
0.02729069660870032,-0.1066604759673644,0.08964460973728591,0.029257125478745153,-0.0011911233151678604,0.02424589572991758,0.05608222760162565,-0.07703677306333619
0.027119259225977466,-0.10264923799884265,0.08597874105702528,0.023223871834416408,-0.004427009165185783,0.019877170211453677,0.04951355473135312,-0.07647901573953039
0.03024496863448082,-0.09715831605091566,0.0804437641244072,0.02817554958535899,-6.906881655532258E-4,0.024932638513468636,0.06158398425982306,-0.06634894002467359
0.0297491405754422,-0.09416058126266938,0.08229480354694907,0.029709711249667228,-6.667251398774054E-4,0.02820070670720886,0.059833926920770567,-0.05652189980854877
0.029944713212023567,-0.10431549722734455,0.0893775307821515,0.03296504658348034,-0.005436869488133294,0.02589694695715596,0.061256670573963744,-0.06721875640544522
0.025986503469555822,-0.09760975418156978,0.09602651930025903,0.02761264393554021,-0.004652251991335251,0.029445410306684756,0.05739408586065472,-0.06613247990151501
0.028948784150189526,-0.09790237697547029,0.09004652453990504,0.02740230398755679,-0.008801229434758648,0.02213137076578233,0.06336112634091605,-0.061405878259579334
0.026140400364168242,-0.09747509596022619,0.0901843734900233,0.026462412272821177,-5.475883801107677E-4,0.024187449481118634,0.06559620692193795,-0.05977704658922567
0.02845370317578407,-0.10638027062734874,0.0831673492163789,0.02902517221579315,-0.003441825179726753,0.028757294331599063,0.06973776366443134,-0.0747057108659284
0.02290244744751838,-0.10474534856715473,0.08986824483719066,0.03055492877711476,3.8490832162958125E-4,0.02968388348987059,0.07224376874549936,-0.07483373175086165
0.02983258259639259,-0.10177378848215543,0.09246677395149905,0.029752047682565137,-0.004673807184033062,0.028288698283580313,0.0670354976839159,-0.07082376086616099
0.02646872849966526,-0.09851475530336787,0.08840905716365895,0.027702961535220436,-3.1863736614877084E-4,0.0237465569440561,0.0671726740324552,-0.060707313609910725
0.02494723781446866,-0.10377572136448159,0.08304999650747422,0.032500288394161685,-0.00719228534398701,0.02529588091710579,0.06919430069528061,-0.061862525362737876
0.024865317592603107,-0.11044307404631842,0.07807128803585675,0.02413107295141323,-0.0036470333695133948,0.025867720515474004,0.06690124425658864,-0.07643590801824776
0.024263004615465284,-0.10296213871925118,0.08088482898231847,0.029482376225817737,-0.0024638579795375204,0.03208961219975201,0.06758358572234646,-0.08416980114341929
0.021771789911067388,-0.10050200656641738,0.08389911419427964,0.024746879030415458,-0.003864998148053248,0.028673793764067448,0.06451501710277684,-0.06076551581466088
0.02900422088370124,-0.09889057405801352,0.07285080616441257,0.02309343103051042,-0.003918798045509163,0.02690564477372446,0.06085509014146636,-0.04223773255751885
0.025587055785442073,-0.10270292833396377,0.08977712285602141,0.02539788026526611,-0.008072797115632272,0.026409082311708378,0.05897895454032368,-0.04571660533869364
0.0210474385781575,-0.11086887324840144,0.08074981899487094,0.02722239618170308,-0.0072874479565492615,0.023518292399803672,0.06285197749984774,-0.06770880700538491
0.028441575668996213,-0.10641847968932668,0.07795995332365817,0.026163761398537287,-0.008223244481220042,0.02906376566776974,0.06007985818217716,-0.07029402758788902
0.021973007657167035,-0.09859080234433598,0.08505224603638281,0.02619487388220031,7.181973268792548E-6,0.023093779795478792,0.06053396982577853,-0.03861046016527462
0.02174709175286154,-0.10026487139306019,0.08011519921963738,0.0223969805978246,-0.008086523873018512,0.02418430321593522,0.05831167459782819,-0.027953902110987708
0.0230673560179606,-0.09400953609777969,0.08915043879902931,0.027202589355561222,-0.012233798046980597,0.022551032284845958,0.05446094654496244,-0.03632147609666087
0.02526206732812306,-0.11270992430752697,0.08935863599449598,0.027309989129690328,-0.011379996299492084,0.019088961180307513,0.05110884642226691,-0.06179875291401153
0.02339012528319503,-0.119333975168602,0.08239828500014777,0.022963930438910856,-0.008151024730070377,0.018868718917093904,0.05308670487451639,-0.04672816069202378
0.0240519828861701,-0.11216491016827572,0.08484003953701268,0.025099793251862006,-0.014252079848972681,0.01290188958574783,0.04504205353372161,-0.04428911931424478
0.02335446265004424,-0.10164380698983919,0.07934164752167752,0.030509588033187984,-0.005242615577802042,0.02098228852099599,0.04997311140104495,-0.0434617161667009
0.025006176831885604,-0.10846392950292284,0.09047406202808286,0.026402358489869486,-0.010503361289910392,0.0189592059807211,0.04945858094215649,-0.05287552541677666
0.022784455563686544,-0.10425116614631148,0.08313715516640763,0.018359678596983786,-0.009416448793728903,0.019698741453232877,0.04997778794805414,-0.06461185022221025
0.01995518189273893,-0.1015500190296416,0.07424009819201653,0.022616190829260946,-0.011021064753077828,0.016483927259531114,0.03951356527475374,-0.04368896834063296
0.02736923589349801,-0.09584344547747542,0.06681774200795575,0.023677606064785684,-0.008194972052926859,0.013688108480431317,0.037763430180972335,-0.03426751940598194
0.02442124324084702,-0.10219134128984356,0.07652428691004443,0.01577703983727349,-0.014521388037017377,0.01676248250087272,0.03656621460829802,-0.05559467833073934
0.021650961385582233,-0.1032526913474082,0.0781547284843544,0.022082538586627575,-0.011811782323207207,0.013243719234268968,0.04460191949251069,-0.057273139347534315
0.02565000325795125,-0.10300145333754353,0.07811953680081256,0.020674612175006424,-0.015079324053624533,0.012202616665155345,0.03814867167515447,-0.04357937668139165
0.026048870394573036,-0.0996929283676908,0.06863011064647355,0.017493449767986568,-0.007196961641098117,0.009334818621194226,0.03180591428161892,-0.03407778665068377
0.029689992699126703,-0.09276199232279993,0.06742663660143347,0.014726686257212396,-0.016269845024674143,0.003987658597548448,0.031827930242861166,-0.04032502275897953
0.025753628670690545,-0.10421592830651312,0.07310532815604365,0.02045494523546368,-0.016931399952318304,0.009561647282532762,0.030938469487062824,-0.05413977881137818
0.020159909669853687,-0.10286011673549397,0.07877895184572431,0.019838092115538167,-0.010168948057381487,0.009750809638550245,0.031654176724769154,-0.0527708730819884
0.019497469762450148,-0.09942555396973941,0.08474327369417357,0.021195315898963726,-0.008154191180745852,0.005410108839963024,0.03434867062696043,-0.045293573327329084
0.02466524786444983,-0.0922328443751807,0.08378207819540438,0.02274292280285656,-0.014977441478038733,-1.8615727880693172E-4,0.023770010221515005,-0.03546749265565581
0.02174718232127418,-0.09441879663605354,0.0806036139119644,0.023299146392091564,-0.014372546508075686,0.0020914165861624016,0.021701468105805272,-0.053582457145990046
0.027199656505365787,-0.10775858426630408,0.07312882930847515,0.01856374730204495,-0.017554092406741106,-0.004844554477234971,0.024535185723457132,-0.06743402502806187
0.025733906824068353,-0.11876610708194106,0.07948695893450768,0.020668351151763745,-0.015643958092479645,-0.0044992084724823495,0.02934393965013027,-0.07895660191549599
0.030458133382657116,-0.095334269248711,0.08903315438965109,0.02524795911729415,-0.013653435844933563,0.003061405454482491,0.030801966219969168,-0.052881053042258395
0.02646915549105057,-0.0925280612517768,0.07379124692433324,0.027147344229280054,-0.02100689020798501,-0.003309516530712998,0.020109257436305265,-0.03478910559944363
0.026251744895362732,-0.09191581170568122,0.08877128467026896,0.0221246763084579,-0.016670701805991096,-0.00811383648117039,0.018733641326414092,-0.05348047579978008
0.02748237472856784,-0.10949418231865041,0.07417348506033301,0.017429639703095065,-0.02186535298174695,-0.009455219155047774,0.014895796021054083,-0.07745310780882401
0.028427980494894957,-0.10235886723557812,0.0798297303903228,0.015907914426615943,-0.015317686266067646,-0.012659408541274878,0.011479202677779026,-0.07036433377370217
0.025736936027457618,-0.09614597327435988,0.07372369588263804,0.019174118975088947,-0.0220220848043902,-0.008037536814121908,0.014589223384681297,-0.05376607885659197
0.026010228401276782,-0.09302346226150583,0.08011411595972516,0.017408963495407118,-0.016053055053345523,-0.010549726466496252,0.008689687964836032,-0.04042164816984724
0.02566637681120941,-0.09859368700464284,0.07587988811133549,0.014103868788725073,-0.01293238209345805,-0.0146168058462592,0.011275667780306258,-0.054337521516072934
0.026845585720539567,-0.09897083946696848,0.07779418773630808,0.020219081121552778,-0.02172345257158683,-0.014245230965602812,0.004122152430078937,-0.05679648985608246
0.033298067820167386,-0.10282157898608726,0.0824948226582758,0.021625871993887665,-0.021277867568461627,-0.01817575044818934,0.004293716168025979,-0.0656710507510629
