0.1055581351222066,0.6704035351135548,0.10266617885079736,0.14865074158378896,0.11113348424217952,0.10267573745449109,0.07661734525089475,0.7763211067144399
0.09387321019736942,0.6845469148184824,0.10788824858315384,0.1462149194977407,0.10812506924868584,0.12649335650804194,0.08149831508711043,0.7562058862437313
0.0837195794912225,0.6664298420726689,0.07914942464650458,0.11538687791453708,0.10340911295157,0.1058414235514065,0.05633839130096213,0.7767480584205562
0.08920923070882097,0.6372227069707852,0.05539021547120427,0.09648146763779193,0.07888504145504587,0.07150994280636107,0.03264917721143969,0.7584949619439444
0.06601981355415301,0.6565010688371302,0.04120779772977428,0.08422857685488673,0.06186145270205642,0.058739487970375905,0.011199862651471567,0.7543174102646626
0.09300391497825,0.7027153262121629,0.10543200620565908,0.13345137702153426,0.10914482051005074,0.12530721404503065,0.09606441510670485,0.7290179090704376
0.1017466924098579,0.6592965484755461,0.10532686231730921,0.1364828536317224,0.11045246631064011,0.13968516865744887,0.09220680460509564,0.7187975806178175
0.0913266529726227,0.644245863576614,0.0991736026628481,0.13137213815777277,0.1102434989399015,0.12394633391401375,0.08557799694257366,0.7826929364863887
0.08305040726461052,0.6497256333606699,0.06407739848672622,0.09764996346625093,0.09878474865996618,0.10111735419947804,0.048904582633841266,0.7725190187940482
0.049894820098284796,0.6557216528787628,0.03855119534316633,0.07606054055936126,0.06252523441602804,0.06523805939364463,0.015076929409628157,0.7655283991367343
0.05508737386025499,0.6614818508724861,0.032588581107331295,0.07046243381750532,0.06705857209427604,0.0668952678287484,0.016550764190081838,0.7272179499597995
0.09030382783624394,0.7391929134290545,0.09299263884311113,0.1412612334491794,0.12621073247465464,0.1606388317560127,0.11567851267571469,0.8172880548246246
0.09139954252057454,0.7232030491421713,0.09805690311255406,0.14832577498180613,0.14178355761760353,0.16555785783750498,0.13915608456358777,0.8215434230555502
0.08569020756966489,0.7482303540256874,0.09336984134386135,0.1268940919278182,0.13637936734534323,0.1678576918244945,0.1361878330892764,0.805635310897957
0.07070541727025892,0.7327229850854141,0.07337213259521126,0.11248201943498753,0.11493354784527886,0.12677858981351475,0.0985653532731599,0.7438103858247249
0.05629216336231114,0.6848464586795817,0.03943075679759922,0.08767708356114325,0.07956432630295784,0.10250822679085307,0.07539110020866766,0.7500709019825557
0.0477534583331964,0.6843956400552793,0.06038588235141825,0.08899394646897973,0.09827505985214868,0.08900366832954654,0.07701062468387632,0.7530163914130898
0.09209466013270903,0.7443808154445943,0.10365620100351115,0.13955794347772202,0.1504417035059546,0.15636011057716037,0.16988779625824962,0.7952276722953668
0.07716740618414193,0.7457318335507379,0.08660510785479143,0.13611445027476568,0.1534028404179438,0.16838807619698817,0.16657803563475146,0.8035233840664443
0.07646003275714432,0.7438750350284348,0.07197090675717482,0.11610827632357319,0.13792548592592932,0.16360354757874232,0.15606299235069335,0.7864102760086599
0.06578366257094992,0.7155640217541548,0.04192601053305299,0.09525123100759636,0.12787954538528842,0.13445463190491533,0.1213787151054659,0.8543261610715132
0.05011387074589834,0.6940604381939637,0.03719704933542267,0.06264543279602239,0.1027015773429544,0.11022851063250129,0.07918724829511266,0.8075462839589778
0.05595118892717395,0.7484040774711141,0.041459007664091725,0.08597962960618141,0.12188526276764049,0.12956629361784971,0.11257085457561603,0.8272233026936285
0.07389345936138413,0.7522986099334235,0.06096226719746422,0.10617425145504811,0.15135857384547013,0.17063910088726592,0.1458835359690332,0.7803571648248653
0.06867135142343406,0.742661271438761,0.07193030712749224,0.11071846520180756,0.13934935324648987,0.16806496396681206,0.14395841467844073,0.783115858694065
0.058436714186719606,0.7321778159098787,0.030305393702635533,0.07791945992972554,0.12895612591476027,0.14240993435363486,0.13127711347203086,0.6596744320184518
0.03787761260116673,0.7140667673237319,0.01268084472024324,0.06157200232661976,0.09753269356062239,0.1269861822037408,0.10685991929874736,0.6878250248058028
0.02246695107583646,0.7707065975676526,0.002714541059776288,0.03392586711585989,0.08335686845718981,0.0825965178069748,0.07097146601792886,0.6700389886626634
0.06605503074585257,0.8424360234442727,0.039620916608604693,0.0857962512294719,0.1275823024762643,0.15110953542895397,0.13051658889023285,0.6266897876960691
0.05713790279871657,0.7545559080620134,0.05634169572001299,0.09500658814340686,0.15828766557808,0.16788816068459897,0.15698704805396047,0.6734722188465904
0.05285335861906937,0.6697939525832864,0.042189532548223135,0.08759270611885973,0.16449700421011387,0.1643045439785748,0.161475292209913,0.7500549705871068
0.03619548575056696,0.6756281565998786,0.0067933064602457086,0.048250592833442935,0.13979902098394065,0.14817908825984347,0.12919381338648084,0.7983065710779198
0.0364250792361842,0.6622700426544814,0.004426069949155084,0.03952010433033736,0.11934031037836133,0.12192427767416508,0.10316697556673537,0.7691675978516006
0.02972016891735718,0.6642225856721402,-0.01469928593859603,0.015776660482539364,0.11475786343966714,0.10476830284036964,0.09061496474445359,0.7941875990029573
0.05911916156628561,0.7155135766396189,0.06299306520924212,0.09359503476976463,0.16982644638251396,0.17580454205827062,0.17438370750995966,0.8187690076953488
0.06055154472356422,0.7083065398903481,0.060421740255116936,0.1092876304613066,0.18924030764680305,0.20211917234137766,0.18322216062673805,0.8130042175581222
0.05433277665944425,0.7027996090534003,0.050572900312140234,0.09273485670129714,0.18031383314277796,0.19073575298277418,0.18796285879431526,0.8050078858767152
0.05781244769004475,0.7229870763527912,0.019608642131850148,0.07067904706757222,0.16351242214304615,0.14724530994500779,0.15885958248016052,0.7183568734775816
0.04321934291310532,0.6979994129052965,-0.005307398178221355,0.03683838718819413,0.12608750267500957,0.12794730137184118,0.1130920746984677,0.7170031603984696
0.03398426641169704,0.709413911582478,-0.015623974718450059,0.0387479272480314,0.12836162057349965,0.11528151507970863,0.10854610858106505,0.6784993491594432
0.06048878738866762,0.7217792652970723,0.043235815758610754,0.07733292830666838,0.18395657926474002,0.16404215885504553,0.17448638011694886,0.7386654230466553
0.05271035368235073,0.7163086628629012,0.04264885968062956,0.06840230209937809,0.1697603035097553,0.16403513117799917,0.18603503290496923,0.7282595106624014
0.048678304083534164,0.7093037549941728,0.024473381908586105,0.04933542351404114,0.1601478978906909,0.1525745342586879,0.16508471579851666,0.699828032324677
0.04291912840008277,0.7169558418193359,0.0017552777985505126,0.020354831428958515,0.12412902042162881,0.1337408042090334,0.1190340824474093,0.7440783207559052
0.02583530339812789,0.7100305385179793,-0.019174081780759612,-0.021132006356811162,0.10681225609826313,0.09178679763300022,0.08498707847547655,0.7306043737467117
0.029495173615439272,0.7521827675690933,-0.004826137110300118,0.011877121736300534,0.1288173771624506,0.12134202649449871,0.12365208768416891,0.7254868198146955
0.05011831940369125,0.7224729353932395,0.022604174051641925,0.03092835263645923,0.14804129564604437,0.14779521886070288,0.1548583750602185,0.7042173397714803
0.05132177509364563,0.7449096933247871,0.008205556190044299,0.03886537113901349,0.1387632779433476,0.1487210344893397,0.14277709160047872,0.7277905336568993
0.03971575891907316,0.7234281621844173,-0.0020973220619032616,0.01573171941130422,0.12175624958363063,0.11243668509274524,0.12519691264438537,0.7371674714040661
0.024530861706358608,0.7481374820464541,-0.028106050553120425,-0.002481510402303185,0.11240873408556924,0.08903395324590063,0.09077512433175584,0.7196964756189289
0.017454308258695244,0.7394509336614992,-0.021164368640035538,-0.004032438871784605,0.10209284113180991,0.08593762600224464,0.09938931532151937,0.7402874879585016
0.05301075951208968,0.7971835483438311,0.028084147059460572,0.040159606587287636,0.1473130364624398,0.14248241985026702,0.15651741454069146,0.759234088056621
0.05823070738966167,0.7601146618539346,0.02141180330101186,0.036847312963726786,0.1645013275199303,0.13391288178998603,0.1569032800925681,0.7138193075273006
0.03844282836871051,0.783898001729241,-0.002159815523911575,0.015796612127704245,0.11561980848128177,0.11239755767303125,0.13287602062264647,0.7385676735772106
0.024916573494621962,0.7777522412854789,-0.02505174246857196,-0.00900415702818994,0.10972303388468578,0.08903588987530775,0.10480694148370817,0.7439192155731509
0.019407250984861135,0.7359178440247621,-0.05301312484115839,-0.035078610350304226,0.08926102643090805,0.0618228385482019,0.06833913595631862,0.671214954873947
0.03205211678610556,0.7277369564218777,-0.012602480477029658,0.0071147512254818475,0.11449323510853723,0.09684410754230277,0.09994661807242887,0.6737883273867868
0.05290437719397416,0.7684772579199526,0.01774266888194733,0.0373228900281657,0.13751538187826298,0.1562074339215471,0.17297016205181068,0.6961187219095493
0.04902070388966499,0.7764114593228553,0.01581398963694149,0.03152165766615441,0.15553940869927732,0.14554992745431508,0.1751230427845175,0.7397040481705496
0.046942679013928394,0.7442184037917482,-0.013231383089732974,0.015017305640196089,0.13986422220072117,0.1213665997085797,0.1454569427021539,0.7570883774231263
0.025835945292195937,0.7254256225687804,-0.013897867142691967,-0.008606533771821906,0.11706692574393578,0.10905962141014768,0.1053521676802203,0.771916320181887
0.013704032445701507,0.7007405481020547,-0.05365784205431519,-0.023394597018706945,0.0822173567660466,0.06503780222011789,0.07383866671459738,0.7324974866360343
0.039772409699194745,0.7743547378969511,-0.0027348875170579356,0.03452416159425639,0.14827357536744354,0.13603394934827756,0.14567486015367204,0.7902973489327432
0.05049216491675543,0.7744274518572735,0.013283540102875876,0.05320947765773037,0.17259506055403862,0.16141405533340414,0.16535250513032354,0.8120718192912361
0.04817803278265731,0.7588960422795906,0.015746863248951307,0.038459876133613916,0.1567497320697658,0.15374392100811804,0.1686147628434858,0.7690292752041673
0.029793993247490366,0.737973928762609,-0.011793565474534277,0.010059379620847679,0.13664275888672714,0.12912501794820594,0.1292793140943395,0.775691285120202
0.01583310882901578,0.7286126159227182,-0.030546861590981626,-0.015613542850605846,0.11590560634718435,0.09498291835739657,0.09404606527233629,0.7654547209065456
2.6437080151498415E-4,0.7323686620904846,-0.059345537587527974,-0.031006902970421153,0.08803660128747345,0.07098375351460863,0.07158125618019945,0.7869991943402397
0.03349864968237008,0.8156702952420513,-0.0015823650042921563,0.03270734424135815,0.14266767299887925,0.13571497011493633,0.1355659182717717,0.7817244518202662
0.04011650672326119,0.7992977177463186,0.002940303429976874,0.027144813193857663,0.14568623380333035,0.14259877142851504,0.16410467196945785,0.7396646556404644
0.03144287353472188,0.7591811514663886,0.0036618838016663695,0.013104403709405393,0.14810567075917735,0.13641013795826254,0.1420375610325608,0.7672438955238227
0.035925362998718555,0.7623471499013043,-0.01961677038896379,-0.003562932431146281,0.1173902004790497,0.10984096366413137,0.09625724104014347,0.7717019752155067
0.022052586973782217,0.7440281360020832,-0.04958905008557655,-0.01874247557949531,0.10040286926078987,0.07913664487382746,0.07633727207445884,0.7698260457671025
0.018081645428558873,0.7427469311608266,-0.05986480393891611,-0.0221211064252464,0.10445436876681571,0.07772755152936209,0.07024513996318012,0.7419185629557782
0.03651801831550633,0.7637580806306166,-0.014218527854384839,0.029009702427865616,0.1403606706628658,0.12342892187766678,0.12504175951791477,0.7455231892956055
0.028260186576077394,0.7384167464910891,-0.003632413179451955,0.0207537786809527,0.14004348753329324,0.11905354877229869,0.10794438836154,0.762155688714102
0.026771447471431658,0.7553680609638136,-0.01641754644917149,-0.003984173179972811,0.12731551376108258,0.10659487090530453,0.09606634713859663,0.771396357325188
0.015372313040246537,0.7305277122253928,-0.04678483624556435,-0.023721923406804214,0.10259704097560488,0.07395084336945128,0.07195290565068198,0.791742362947752
0.004570667798851192,0.726248396453474,-0.06608122140826819,-0.04615998043311391,0.09350258179545341,0.05598566663390925,0.0029506854440181462,0.8198377398885046
-0.003473315081294704,0.7059027187117202,-0.036483842861037286,-0.023140575417687638,0.09904405016714317,0.08087589336687864,0.05152836925667487,0.77736910450331
0.02517830870736902,0.7528199063543015,-0.018621182699861617,0.009596098105155755,0.14204421083784677,0.12099500678072136,0.12875186232341404,0.8275562664557364
0.029483697949381653,0.7682008404430489,-0.0118341748990873,0.021806025347601482,0.1417253556286609,0.11834966393611564,0.11025865957349226,0.871611059414303
0.02860458093869363,0.7822031905437303,-0.041750069338203764,-0.00232415839797395,0.13746111132230174,0.09994317290561991,0.08692727290378115,0.8553625201527015
0.015579804478541385,0.7366587855743594,-0.06401060033148986,-0.03201496979607494,0.10908877543014144,0.07550280173211878,0.05058995629772776,0.8214774563129845
-0.007388597217306164,0.7171943353487091,-0.09528817828573716,-0.056399842642245734,0.08100440881558404,0.03196765355875762,0.004331236119036969,0.7762766801829106
0.010456298675475621,0.7514172765035094,-0.04086152571592769,-0.005871563646979665,0.11633474164968097,0.06619406352190838,0.07338047488981717,0.8293820079123895
0.02662992442732507,0.8134963967162107,-0.041013390681986055,0.010479583330295712,0.14292428597601423,0.09381428642442102,0.09167200998335578,0.8149961491034757
0.027033939028190478,0.807816719982816,-0.03224659249997505,-0.005051013877095624,0.1405401553615911,0.09894210730880246,0.09359666236632465,0.8490003598830401
0.008350898603646807,0.7959242586323504,-0.05217675586827113,-0.022274968218792716,0.10976918043184374,0.06531387928296978,0.06907521150309241,0.8041050057446683
0.005812069041035179,0.7553722874133745,-0.07751398010482462,-0.03531615645469923,0.0859212858740947,0.03862837332396454,0.026748370350918333,0.8053549172692641
0.009200294970345342,0.750881721985649,-0.06941949264295091,-0.03698185909578277,0.09018615274154208,0.029540132460998948,0.02626305296068628,0.8244671618590655
0.021970867143724176,0.8035524474499428,-0.029361057794734184,0.004582429987371985,0.12701229294909946,0.10385449415136666,0.09208149908501094,0.8434832599925797
0.04208349324894426,0.7960450501538175,-0.01900277157111718,0.0023682739176253734,0.14281797024462112,0.10698950250584502,0.0964511117552803,0.8470024513341183
0.03205360469647324,0.794672870529879,-0.03383590074521586,-0.00418806345339874,0.13336994939142566,0.08900298040257537,0.07366769268982021,0.8311977378499501
0.013841157153123281,0.7911181346217886,-0.06220383599602846,-0.04260661334222709,0.10593473805500338,0.06930597794457542,0.038127578239740736,0.8568667479314735
0.001319601672479962,0.7838171299288141,-0.07284391902369453,-0.06128224371597134,0.08498565605710674,0.04506028986922933,0.012006137490331293,0.8329984774926087
0.014907842617461009,0.7654258193771061,-0.0517122109205065,-0.029992961468082203,0.11228781088071033,0.051487051135784126,0.03404773459192119,0.8425868044759061
0.03442241457923035,0.8499269876100646,-0.013825472265778403,0.002525664328855118,0.13042325958902326,0.1005352486688636,0.08558451746380744,0.8550153471832848
0.046521832152965785,0.8264732622395848,-0.021058496974373373,0.009438655036590592,0.14912945378758155,0.10869090960576169,0.10251077570406229,0.8592290105364349
0.03371733128944534,0.8139797241263724,-0.020180838447013665,0.004749467635300207,0.14075081222069122,0.10359339032467668,0.08321561534536188,0.8876514802582965
0.029419186979079654,0.7886728117528594,-0.0439670616119857,-0.018805480770806137,0.11909399242566286,0.05784269784321728,0.0512655613432298,0.8729923975027237
0.027671189433092616,0.78828648909582,-0.07328258439562647,-0.04956379931165257,0.09299534364306863,0.04639971611415764,0.005502956568802991,0.8615486993688761
0.03269054624158171,0.8185462343502533,-0.042124199626408634,-0.0038574110872291794,0.11503402083461013,0.06283294212695015,0.05746532123069913,0.8632852609419592
0.06079439370690533,0.8384492843818864,-0.009362667499880137,0.016385781838200674,0.1400141411519414,0.09952708746604384,0.09707011117197159,0.9160383454464095
0.05936663778119201,0.8560198090828715,-0.0035690707573358157,0.01599618318831079,0.1485359284452242,0.11247861211983293,0.09408589344496464,0.9023033244125093
0.06067638560419585,0.839220187434925,-0.027314846483061817,0.015437126027352316,0.12550022675234015,0.0900469980084511,0.059739013664807654,0.8966999468441572
0.02916649760739847,0.821714734496654,-0.037253083085318585,-0.0015118614080630425,0.1081196438141828,0.0658171193464,0.03215829518268928,0.8428236617046905
0.032790358310793334,0.7852572048085311,-0.05875079214994385,-0.0199012280989279,0.08155870711447083,0.041634360790608144,0.007921348297562901,0.8439236787096279
0.05853527544407863,0.8564755662896382,0.012010278056986769,0.015733610382348384,0.13235206121656193,0.08853428972492684,0.08091373904663617,0.871461453957472
0.06213787815453667,0.8276964751485296,-0.007240532985500357,0.025123584369555814,0.1360186093229613,0.11135231828338713,0.09548124541745225,0.8769469453136849
0.05991273441274494,0.7928320464083997,0.003316948964789874,0.03443728034670919,0.12900004398332388,0.09213285665636177,0.07397253329879025,0.83124705426247
0.04830260714782021,0.7807760550889264,-0.032281943864858643,0.012078273792735409,0.10832761015457984,0.07010049843141138,0.05414315068899235,0.790573510159336
0.0297718980297027,0.7978923871960617,-0.04576223615108722,-0.0210986356825459,0.08478964034228964,0.02892652341806024,0.026273703606863315,0.7951021068007271
0.036854013078710245,0.8091233384403467,-0.026619550280203887,0.008561901526031597,0.11268126710312196,0.0614919204302563,0.035164161568007286,0.8532788627396395
0.06162285403010964,0.8849329669267948,0.005409090270019462,0.053215343260395856,0.14383525089556942,0.1143366407459873,0.10917384682709759,0.8909212268516636
0.06954205887087107,0.8208422777498448,0.01417565282181604,0.06076453909892867,0.15500940001736205,0.1151346946077442,0.11142468042194446,0.8438270125500804
0.06254809677939653,0.7903007940385552,-0.002983421367768721,0.03369867398923276,0.13136013994573764,0.100072742294474,0.07269287592678692,0.8415250347091091
0.04358579603094376,0.7867881044368261,-0.0038625615301979654,0.01904011140364526,0.11211198751585659,0.07432996598019591,0.04933140062169427,0.8424738088666204
0.03112920940156723,0.8339686840707038,-0.05427138629450571,-0.020532271611139356,0.09927820522749457,0.04836705953281634,0.02841049772749951,0.9179735523582224
0.04305608728254697,0.8687221497453436,-0.017194673964940854,0.020631720128584236,0.12452188833010809,0.0693096927623436,0.06597171461684141,0.9168981001257888
0.06956058991903344,0.8384871654908679,0.028783001812661777,0.052890336942326144,0.15199312643596857,0.12766770989561727,0.11515578183734101,0.9103624310152807
0.0610649882948166,0.8199701155913761,0.010692657558902745,0.05882437357846786,0.15784766226497124,0.1344898162869394,0.096708415609586,0.8389513251216343
0.055639670590060225,0.8291081849454349,0.006272447550925304,0.05342649610928467,0.14446432322045125,0.11610734478470947,0.09351952989709682,0.9035295673476208
0.05770733697527127,0.8363518863629836,-0.023113913189428615,0.026746600985916965,0.1358054858213664,0.08880212520589444,0.057241240115601576,0.9432712086254105
0.03547306204344593,0.8317644531913557,-0.049777358831750634,-9.115687345538796E-4,0.09991344082100401,0.05929277480025426,0.03323399159979425,0.9073222412092895
0.050555451209304283,0.7762890016246502,-0.024805011094129248,0.01587178007124804,0.1243699829779819,0.08277210127040935,0.050381834280883,0.8519479552763795
0.06476546065916372,0.8224221251604499,0.010769468962372701,0.06027161133210189,0.13725782114778176,0.1216283264251756,0.10091443685941343,0.7946089341756237
0.07643263503803994,0.8227187628965686,0.014022531707580686,0.05883430096572297,0.16218201406371985,0.12126409058308212,0.12010768630560656,0.8681292850926703
0.048712755889345774,0.8428174266900345,0.0028150832108342206,0.03885957110879988,0.1386559161467626,0.11084130732671829,0.08951216673329643,0.9475340746140128
0.042173504980533814,0.8308584360789971,-0.02279152084951387,0.012601758588498322,0.12134539623151432,0.0799281197134291,0.05795149704955949,0.9117896915896928
0.037703063407883944,0.7810289920762418,-0.054247399238275255,-0.010437979573379986,0.09887056229748718,0.04780872761980907,0.023652256645672158,0.8316384148437906
0.060901124458002553,0.7945475227917465,-0.018936696545899814,0.010307509657190813,0.11978637277520898,0.08111763674881366,0.06561303634295411,0.8340152364739339
0.061279124525124545,0.86207064838024,0.0058137981154638314,0.04074562517106476,0.17323675270171346,0.11894063237380126,0.1025181629091337,0.8936057186665102
0.04169415408655021,0.872075904462758,-0.0069185351215544574,0.030459715911772867,0.16057685869263866,0.13080728556144308,0.09383679099418578,0.9445576886891782
0.04364557779079641,0.8268667278958844,-0.01752835880334811,0.010173030902916944,0.13134515593580448,0.09236051051741599,0.06272901506836301,0.9164511747688341
0.031164406836640342,0.8149827481850465,-0.03627094026275515,-0.004197374289535381,0.08405323844133447,0.05692445888570205,0.03412385699047647,0.7994469512480952
0.018016105187199146,0.7821216951779443,-0.058509638062275375,-0.019384413298789507,0.08616449464302267,0.03127717021169892,0.005107825643288129,0.8201453804127908
0.04862009149269611,0.8719917048911935,0.002219172174977466,0.042797195412469444,0.14448291411803368,0.11259620156463222,0.10087874282542493,0.909992048472971
0.053424980543231027,0.9003542564368362,1.4483515090641657E-4,0.05131555454249547,0.15524216350404557,0.10747264761080753,0.09980894748506662,0.9275502397365875
0.046246598057188684,0.8595884302597919,-0.01265287784428221,0.037960102239706604,0.14340700924355723,0.09162856302224874,0.08911181355706446,0.8318172603716031
0.03144370853777456,0.77304548910264,-0.02330044107861682,0.010615655599559648,0.1152453227163425,0.06502285385449148,0.04781393095550947,0.7723390558522846
0.030329466934982487,0.7746389030619254,-0.056470307181354165,-0.020330047192526995,0.08056398318535046,0.039737181969726434,0.01570674625268594,0.8067781079467599
0.0131205223993056,0.8107084812343124,-0.06080129588666192,-0.022189618324894834,0.09532022183739185,0.04043348670303354,0.006643265410747645,0.8688344050056226
0.04478466163417617,0.8429734384593153,-0.015518462907323116,0.028878912830296123,0.15804470602214368,0.10475496990437265,0.09282344816922322,0.868116729474504
0.046481335064493326,0.7721525913810036,-0.01843691333007549,0.02493578561571704,0.15440234464273717,0.10877951740568187,0.09227393255614913,0.8288093402059559
0.03915331450872005,0.7907762264806848,-0.034599892511108406,0.030575559533699434,0.12910585321598794,0.09765512352286784,0.08174036694275577,0.8195944317378309
0.028435230144351623,0.7964050109389502,-0.04285541870687814,-0.012026440286355598,0.13439929075628781,0.06481069391418719,0.04588125980682615,0.8893628116437818
0.00934197166585369,0.8385778709075251,-0.06893169177563736,-0.028873536119560242,0.10347977831078965,0.04292573667163489,0.017897795241539727,0.9323774285538593
0.020229855545069304,0.8444663809981714,-0.07668964460688743,-0.03531978462688651,0.10347078009034116,0.03992104470355506,0.017174052781775227,0.9236411119877002
0.03416053744965302,0.8059373812658559,-0.027832002297775,0.01458912665990016,0.14103214166281566,0.10181813631055181,0.09867957493473616,0.8781303232080515
0.04619890037647226,0.8558228059010778,-0.022075979514469796,0.02013819612815029,0.14920062952242372,0.09707171771718791,0.09469246718563361,0.8760204441398262
0.035825319049105825,0.8154200966360581,-0.05404555011533417,-0.0038970691245018957,0.14544814565595143,0.09322145609951973,0.07168316497449506,0.9346360964153981
0.028263132309094524,0.8696998326237017,-0.06292929262962138,-0.04851567389853925,0.12071329029065628,0.05634405369306297,0.041738464769789055,0.9658457048652
0.00745426086194459,0.8145045196177481,-0.08921281886698162,-0.06679525459951949,0.09560819421646378,0.036167770570528376,0.0035865186640852385,0.9229294143763473
0.015058112358173984,0.7798192383071665,-0.08228554865950156,-0.04349650740918666,0.09984643048841704,0.03910574657611624,0.01655122583496948,0.8095533649479738
0.04229337692987205,0.8413362054521466,-0.048091042562429506,-0.0015654306664687075,0.1319030805596088,0.07316491421747581,0.061779914006035025,0.8010934544065467
0.029336864460353444,0.8336409310459084,-0.032537698054863194,0.006555230878590736,0.14292787597235573,0.0960963064835548,0.06716496426214444,0.9098111869421333
0.022399933098395077,0.7967560367290948,-0.061748794176372586,-0.023968381460115557,0.1319804093592299,0.06248787745799565,0.04420356552360065,0.9304247526692029
0.011811410129499227,0.8135271826498435,-0.07744034863810458,-0.04421726779387567,0.11181689217074903,0.04826121475521371,0.019578008949156192,0.8673965370301371
-0.001349593516313472,0.7472872835085131,-0.1193712641228916,-0.08083180461513259,0.07187517200723632,0.004100217579605642,-0.02676225359324322,0.8000657851021307
0.01980900772185715,0.7903314815114357,-0.06890527442676035,-0.023563934432621284,0.11331516430094406,0.062028294712962666,0.04025219771789843,0.8451888833024256
0.037959937948472446,0.8217054682264204,-0.05264196273460172,-0.007993009807613612,0.14110497335204278,0.1020996843410873,0.0748392122176165,0.9294348604637209
0.028910579556554402,0.8137939880915066,-0.05665957522487919,-0.01202525488982172,0.14709050383072161,0.07987386079535272,0.07580105258120486,0.9140096789247993
0.017128204770916956,0.7840613410294758,-0.0825965651944933,-0.03912294773922654,0.12098514280289774,0.058150472509860746,0.05159302512816871,0.8844060266144502
0.011705463501736398,0.7730704681095242,-0.0932318103459675,-0.06411948928282,0.09110665164670088,0.04097545102083375,1.5753410037491327E-4,0.8540304564604195
0.0016949691543802778,0.7865502097704494,-0.12384556952062645,-0.09027138613951405,0.0802303565569357,0.01196441513960684,-0.018535268428803573,0.8560610812841958
0.03159335292814431,0.8211990042498746,-0.05258157861925103,-0.019310262192516133,0.13536408623521767,0.080602124773103,0.07974572638907984,0.9718482873828787
0.032436276993134366,0.857202062350542,-0.04641737715552809,-0.01939373874005132,0.14420630007899157,0.09741398234037334,0.09133225371637892,0.9315306982641103
0.026944917029648546,0.8347285511514344,-0.04563756432701632,-0.013055774522765075,0.1382799412255534,0.09189760759544223,0.07595674878555451,0.8354481176624069
0.024871696501682385,0.8483940515132486,-0.06774509733755912,-0.029000740439198956,0.10783513881487626,0.07030689926922856,0.051457333289915155,0.8120346084784253
0.004363632108106595,0.8389055771950855,-0.09268243144161556,-0.05562530714714509,0.09131679028282556,0.023676698698142967,0.03390825089109286,0.8339100814401185
4.667313444337168E-5,0.8181185298892,-0.10922147044911089,-0.06932992031705312,0.07377274894327204,0.018075133166080726,0.008885867580621818,0.8935429281018484
0.019419473054415024,0.8651211159324759,-0.058418709189951366,-0.0027030717771538535,0.12103311964164443,0.08568599532692224,0.09158631642834626,0.8668072192847556
0.03433022260839938,0.8338189461592029,-0.051685586004270145,-0.012086706779478377,0.13015276395703354,0.0914606717781107,0.0887087859666317,0.8327872278193075
0.026758321569400365,0.8444354379536345,-0.06574545094325691,-0.02311079687596429,0.12322417883738694,0.08530543714393227,0.0783095891575261,0.863291744761779
0.009097116874629064,0.7923084604716542,-0.08627788314875562,-0.04732168764674805,0.11519231631550648,0.05808763524336802,0.05077239176913436,0.8605566506274409
0.003879847283134673,0.7983143883862968,-0.09631644212177123,-0.06607705046172029,0.07909759663243458,0.032078583136307064,0.013247936683881197,0.8649044501132442
0.006148125827545701,0.8031396352135891,-0.08199599844917184,-0.041513764350822706,0.10390218794363974,0.04046630915315661,0.045933424933731946,0.8498035547060905
0.015557787408172059,0.8685505018282673,-0.06730459206380407,-0.020721154752767847,0.13973617768359206,0.08505318886004319,0.0843478598188479,0.7975764272892987
0.016865190759744193,0.8490949002050084,-0.05462888590675626,-0.022918747894629433,0.12429893222453657,0.07949737032591517,0.07320207731505406,0.8333274496346422
0.018899715743956665,0.841664567267969,-0.07094662134045465,-0.036966660316191426,0.09611000264387062,0.06105942464602979,0.0510233355552796,0.8122939185479061
-0.002412050553798591,0.8368852313918571,-0.09951002790179973,-0.06709742519485812,0.09150489891216876,0.040318210221731945,0.02442744108717209,0.8183438461208877
-0.018960171002605636,0.7966845938265066,-0.1292813646029336,-0.0966622144603964,0.04955409150329929,-1.6324571533742757E-4,-0.00883603352362699,0.8238457609236648
0.015230046984776553,0.8432213325456344,-0.06444931235634387,-0.030649271152614982,0.12612557426081966,0.09263845887395498,0.06195972037139389,0.869526627503421
0.03190921608577892,0.8283182095130782,-0.058708548987153164,-0.025709253830860177,0.13255062603118672,0.1016990892365381,0.07635988468204132,0.8693374646798273
0.023676025049539855,0.7911854877972667,-0.06205100931552835,-0.031825528500694124,0.14030311116791086,0.085852458098201,0.07033404739452072,0.8624103113596822
0.008240613644993578,0.8255830182746817,-0.06428657846416543,-0.054599043607858035,0.11882542111197113,0.058672126256236586,0.026182554926658875,0.9238554637145058
-0.008418455658103709,0.8094230843493092,-0.10260411831048545,-0.07428400226130549,0.08542684270602378,0.04211120667123753,0.022792349672571433,1.0008704926710124
-0.015436660968229163,0.7829895974281523,-0.11264594783839528,-0.09256374293047874,0.07973335345027006,0.02134297580344068,0.007826898951162956,0.9093941842648714
0.009482731021025854,0.7894093232114201,-0.05789761910615397,-0.012011180104880488,0.1389107288572739,0.0912593665788449,0.06793322667690369,0.9098258997318395
0.025614671527994785,0.8002060682806126,-0.049404549213168496,0.001577585168960483,0.1372889373917244,0.10275953348408566,0.07985726612026182,0.8736820933705275
0.009143143016982772,0.8365550736520077,-0.06824409607394158,-0.032300844278336724,0.1445506794737423,0.09444582887146553,0.08030959810470953,0.962533200722184
0.005851252491323854,0.8018484371900217,-0.09102748677257401,-0.04916456177303504,0.12465924298952569,0.06006162102928801,0.03463465804736574,0.9533769941728579
-0.017120953813645545,0.7613276674714442,-0.12071069383929268,-0.0713935233413533,0.0967868396795156,0.03005531597670185,0.003870129249416413,0.9518745178995383
-0.026696582849641395,0.7772282667104413,-0.12431718869268457,-0.09766962339639428,0.06975301161146727,0.01103206793741027,-0.016976682520208772,0.9131067845352717
0.0169331458362076,0.8175862503720082,-0.0648841618885593,-0.03835733208758884,0.12102370408902592,0.0668444896883635,0.04739193600733625,0.9213140534444216
0.02518236108734345,0.8299561533742491,-0.057932678058320086,-0.03317473383641713,0.13002615138659038,0.08107006927183964,0.05858409945863637,0.9373740363056785
0.012589312228918738,0.8208164715549049,-0.06740647219777146,-0.031070612373895225,0.1222942948701218,0.07693615641507237,0.03978126567832926,0.941014924450645
0.0036473191543790738,0.7914999148889497,-0.09230479519596788,-0.059292026010704185,0.10925785066948303,0.042477878598546535,0.017824377980196576,0.956843540314064
-0.016125387040055443,0.7372127667928684,-0.12656225429562531,-0.08603059631723842,0.08236659572413849,0.010161070416575093,-0.02708982548076628,0.8566589970378422
0.008237604792804316,0.7578444608634677,-0.0897418347303203,-0.05626780991807311,0.10101524895810365,0.04732824233925969,0.008314097758239186,0.8968772391628628
0.006515147383900986,0.8116510934387604,-0.07056482177801979,-0.027953942149469387,0.12839529837334646,0.07064280820398156,0.045677656037624956,0.9714669434798303
0.014319830691817834,0.8308174197131345,-0.07832877272055158,-0.05425554077382088,0.12139838830536394,0.07589272794439254,0.0442903495615606,1.004487805450456
0.008311746958824279,0.7614472592004868,-0.10025686136878066,-0.07652041760773093,0.11309308499190274,0.04407864632185721,0.018985084595961994,0.9398424275210041
-0.023900831209035897,0.7091231276317301,-0.11934823867935838,-0.09096338942125796,0.09388091412565973,0.012025444775918213,-0.020330644142280713,0.93159678694418
-0.028606666706399282,0.691426188299999,-0.13768412235715152,-0.11128295596852529,0.06487784486270015,-0.01708433539048195,-0.062221172986793014,0.9827591488521384
0.0050159808517181645,0.7465419923275973,-0.08650384569766001,-0.050476000826712816,0.1244905093151351,0.04836515211503619,0.01719507715403794,1.048202188307042
0.019570885593667462,0.8071098664557697,-0.06463065385943215,-0.018954202943077512,0.13824069743262593,0.08330365402045865,0.05982643279580387,1.0925574773418063
0.020118899174000893,0.7911689286352159,-0.058094405464265406,-0.02089177852675686,0.15364884466399625,0.08056764125177887,0.057680277848394954,1.013144698252103
0.008434450992380276,0.7383660306823782,-0.08459631149516819,-0.04764897666334661,0.12310801286315981,0.041769312338910555,0.014272798887240744,1.0000018746337684
4.4638714096965215E-4,0.7290719976037978,-0.10876041892528762,-0.08252068824023921,0.09060536635803883,0.02707026501666983,-0.01790659837010639,1.0158874992030147
-0.03016451271517428,0.7624142277992821,-0.13925078130969218,-0.11823179245839863,0.056497476507671604,-0.0016301732070829222,-0.0616334506742723,0.9593874920931641
0.00468037485443795,0.8034809590796546,-0.08914559891607031,-0.04725342335429673,0.09932901634904565,0.035018178474077157,-0.005184040394430084,0.9348165523350354
0.026934619949075644,0.7516444567898105,-0.06706460990932608,-0.032502421361764754,0.12246554477576205,0.06388093000885978,0.046278909217799535,0.9638439608459588
0.019622503100181297,0.7715172377816318,-0.05618520147941373,-0.030848157128210704,0.11380632063813745,0.05199717939105502,0.027782805961242857,0.945494112388522
0.011627376135578828,0.7280217913347174,-0.09429603814710623,-0.05476629204470205,0.09824164019320322,0.03802537902074324,-6.828058314432004E-4,0.9919565230923479
8.882373262253225E-4,0.744814012413381,-0.11163948834748236,-0.10249654698685991,0.0765362027048083,0.008544973400541871,-0.02435190827398407,0.9616620009650975
-0.02390422451890042,0.7218269718159778,-0.13620447686865428,-0.09766217051209305,0.06374568484780986,-0.008694700075406443,-0.051256108041352354,0.967257133623174
0.012830046297562889,0.7036889600591154,-0.07257691872704963,-0.04514451700636255,0.1083603111779812,0.05080394089445213,0.014227338896151473,0.9932140697871609
0.01926308502200652,0.767430453773897,-0.07117682603362402,-0.03986179790897504,0.12728621326182313,0.06601336647633985,0.029491151367853376,0.9572521211150762
0.0231224406925517,0.7713094255353337,-0.07870664432657475,-0.04420659895903186,0.0929515945394294,0.04219146860958577,0.02211252257680385,0.9198945191106777
0.006187716234076817,0.8233353985491385,-0.09936604155320646,-0.06360918920388675,0.07516061051746578,0.008218779803726687,-0.018374614737518606,0.8561670882771818
-0.01856917394123217,0.8034891802425435,-0.11923334142768738,-0.09384743783275472,0.045805384925996555,-0.022916456902779565,-0.07049741053557516,0.7759334860129291
-0.011045920620058923,0.7914853754468161,-0.12069480807434017,-0.09766762892756328,0.04319136865605556,-0.025438469188107347,-0.06488073575451184,0.716415725964551
0.014338229797289465,0.8017376286160627,-0.05412398800015769,-0.013690142186119867,0.0941639695826077,0.03835518019399532,0.011871040662233507,0.7886595291690773
0.030766758544800404,0.8829881574683006,-0.07142341589115314,-0.008385186073892497,0.10831682874910825,0.05032715424348026,0.033458531590639,0.8368121894695617
0.015141986639958195,0.8485407230216616,-0.06908662401093303,-0.020403553922347117,0.09426353394419881,0.0314218600279737,0.002757282003529917,0.838254553006753
0.00476108576109904,0.7987474998202553,-0.09834138163442571,-0.0468123135736682,0.06736352841407015,0.0071928431250053914,-0.025247443790749145,0.8170420520046363
-0.006270526920094142,0.7857840065179676,-0.1300632602219978,-0.08490680027630794,0.0344321399042302,-0.048389432716840534,-0.06519268858432264,0.7638340882595221
0.00956707412100002,0.797825990727859,-0.10411697698592146,-0.07441114180434007,0.04296799990632655,-0.014388272104987549,-0.04852662852920673,0.7627520083877096
0.030639802593813045,0.8173085491788329,-0.05514037477609482,-0.01835203124303842,0.09551696519133937,0.03816504661680625,0.013672352468804888,0.8525703617546976
0.031964310182995295,0.8235747235197969,-0.05599910093956201,-0.010558334132226356,0.10069102289401818,0.04971149957941474,0.015866612587070682,0.8248304797937248
0.020346659067639772,0.8179326145104563,-0.0810500632485373,-0.031765921251655456,0.08151695103542904,0.019845254054440393,-0.01739345483705764,0.8052168365838764
-0.0014618413539490933,0.8112112029535153,-0.09230843299958282,-0.055511664663437835,0.035717186374095336,-0.016254259403974698,-0.07064951691431405,0.7839601274146201
-0.002681831047769041,0.7787947381846168,-0.12541824606773788,-0.08606283964622596,0.016349361159776168,-0.049753718738379936,-0.09990492742309967,0.8099629611433653
0.01027106014146247,0.8061012576337693,-0.0960331419431015,-0.04578283415233921,0.03823694096482404,-0.012639469756637966,-0.05612676359463017,0.8279353445253984
0.025110207698435756,0.843721236021116,-0.07345755930426756,-0.021133230561373416,0.07995060001014526,0.021604341640225705,-0.015589821538895177,0.8259047109768064
0.029076576462907518,0.8018907629168309,-0.061745844415000646,-0.021467047239189702,0.07538517543793812,0.026411999931643622,-0.009263840542802288,0.7774067628758656
0.015994541967138978,0.7814853168439294,-0.08476999529763735,-0.034526490579113445,0.04386596773272683,0.0024927408303431803,-0.03814008918051192,0.7819841575493328
0.0023312490215307157,0.7857022909881085,-0.11024727122228678,-0.06470581130144468,0.04275881593427897,-0.02081621916016107,-0.0697124442977587,0.8286744559879947
8.846422911555789E-5,0.8196083593114855,-0.08563385486223993,-0.04245365242666088,0.04119516512263361,-0.018347522912456123,-0.06262545171973177,0.8316661245524954
0.03286583747427351,0.8728608045139892,-0.05031350420149833,0.011555012905612333,0.09139178657501708,0.034253618873779104,-5.625885182000416E-4,0.8082638753346348
0.04462165846785026,0.8478178956975316,-0.04877022086638772,0.00658667891044573,0.09183154952121139,0.03624169365491912,-0.009653114009552221,0.795554718257788
0.02582296457926467,0.8330426546863993,-0.057497181320106845,-0.016938495761550567,0.06175090529730322,0.010671196645450928,-0.03522383403872262,0.8381464641643518
3.893199669347536E-4,0.855292337085523,-0.08753014153934828,-0.04676749468511121,0.04688449253177899,-0.026252082553327834,-0.06852728696962367,0.8492186768566956
-0.002928065106471891,0.8101908697262337,-0.1281886658609751,-0.07212575760458925,0.03568362496649962,-0.051043225007936614,-0.10452565517490776,0.8118364124869822
0.026403579041983972,0.8412112321748167,-0.07388833453159313,-0.01180549595519868,0.07280557675548874,0.012808516993722664,-0.04801821422863939,0.7925508762690877
0.04733974658873066,0.8740768475091576,-0.03266145995226134,0.040297820551427034,0.09166311307582083,0.04448950657323268,0.005226025040282515,0.8275151256849492
0.05359558844231561,0.8426766823700367,-0.01797478275840241,0.030180996608984354,0.09238019734904793,0.03535422254759482,0.005704689345654787,0.839803948704381
0.03883524649157116,0.8513543696161942,-0.03323960210159822,0.014665792584319349,0.08319012622581097,0.03693231761371028,-0.015470466555544852,0.8703529184253255
0.017032749842836096,0.8317732297015549,-0.06580353634039486,-0.010630988248015281,0.05668472060213898,0.010548701613665407,-0.04766536031782841,0.8655949394730511
0.007342458506127272,0.78488739886196,-0.09177451422079637,-0.03588134447494265,0.025618780669973168,-0.03461097199885894,-0.07787937720956412,0.804465577333052
0.04055825653778236,0.8521771225502025,-0.02941273937223402,0.03160133637326982,0.08184690588826996,0.02271091540759587,-0.008774691592907627,0.821207883948554
0.05337286352604844,0.868521498895702,2.556528613088576E-4,0.05137649265106174,0.10656136245095348,0.063394322375289,0.03598199686713422,0.9078262104330104
0.060066482651063624,0.8522367822017164,0.0018205177449332054,0.05933328716408734,0.0968078579853908,0.06435873891714733,0.03564262801226198,0.9060256566532388
0.06012103441817786,0.8601498900969033,-0.03937767659039393,0.04318483739503899,0.09096407932595753,0.034389898289672864,-0.0053100027828585986,0.8975899284398474
0.031760532907310485,0.8368082636868586,-0.05228440360749039,0.008391309433146855,0.05556070716646241,0.014544250312168475,-0.0194566931477341,0.849533686003645
0.014092080792988366,0.81474215825474,-0.0821043456163476,-0.0337303876647539,0.04088400157146058,-0.010250560121045143,-0.060444990018000536,0.8442107324208085
0.0441340023540463,0.8724879642982083,-0.03033114644684602,0.034247990645915556,0.08681706016265033,0.03874959553401189,0.00546133277357128,0.9138590762741735
0.04734653152937531,0.8777427418688982,-0.008693322400381282,0.06063926595445658,0.10550419180602388,0.06422078003329558,0.01818034670449219,0.9332675822838538
0.05571075622650664,0.8720722019375461,-0.0049261966728848085,0.05176088196000187,0.09270142461898483,0.06657593460680068,0.03133165534137247,0.8412492856508346
0.0448796625787222,0.8460607839910775,-0.018788370672421176,0.025203632045859466,0.09564594263692636,0.042698983187084864,0.0017782969559522542,0.8138345205796929
0.024766658501649247,0.8155760112951419,-0.04786789206307589,0.003045967929339881,0.06085506441828563,0.015912078905981068,-0.010242283358668091,0.8736024150839802
0.027232280339131894,0.8596282273705906,-0.04644786122285253,0.014827257298456659,0.04394501996423822,0.002602032832094216,-0.006106662312713345,0.8850871796468536
0.05590640284833071,0.8825807487991086,0.0015192759098767857,0.06351021561145266,0.10547714734306786,0.07462848584489933,0.06832526494427478,0.8851760243527332
0.059883279905418946,0.894942174407291,0.012296946133800415,0.06087258095287107,0.10495188720706163,0.07747299425327611,0.054098717621733995,0.8509832509717905
0.0498558378918377,0.8678153944114906,-0.011126406079766333,0.05983050868629787,0.10432014259208433,0.06045849291518624,0.04845019287135599,0.8728113525339891
0.029703556332727726,0.8085555672281373,-0.030613733412200226,0.022095677276218067,0.07307767680985154,0.03541977211417453,0.020965033769992095,0.8903740412100912
0.018168851410130932,0.8372361544934923,-0.04883004249759462,0.0021356930188173363,0.0587920761696604,-0.0031499156106573434,-0.022859664017613194,0.9067924242704284
0.017446535419407827,0.8439815912778528,-0.04586999180474689,0.01724939670032996,0.059127208740417575,0.0016598761958883511,-0.02402251880904439,0.8109170845721065
0.0640367414502207,0.8456118361501945,0.028295265101964676,0.06430619576541784,0.10641991803216129,0.08458954171923236,0.057047963475216554,0.8457706301029317
0.059973625895019436,0.8569686749070002,0.01631222747163665,0.07557611639616177,0.11181934352632045,0.09282465122051546,0.05977685921060214,0.8657079778631825
0.06254395067058015,0.8840428817939515,0.008888509525901839,0.0678043824772627,0.10553748785192275,0.07577214771553549,0.04970437373991875,0.9054531508858047
0.04687022873317436,0.8389964424687989,-0.015509072662138267,0.03248034695140063,0.0821613586896807,0.03401350656478899,0.016406439609788416,0.8540839625304631
0.02890283313433142,0.822545836036486,-0.03382270057323476,0.015755224028296686,0.05334937893416806,0.013067314321733473,-0.021244308739721572,0.8112893607247108
0.03813223394516522,0.841864058741458,-0.034121535078133584,0.02386443839821546,0.06321457016022794,0.01304917176714427,-0.02872496614932926,0.7871969232462057
0.05991259682822235,0.8976220103176542,0.019224240378005564,0.07094022179469672,0.11905436728807063,0.07389630749510671,0.04513370092791708,0.8658687224829208
0.06962887665824713,0.8649078333481377,0.017086352474596618,0.07675554083728443,0.13784631626714297,0.09165515284274664,0.030418742594105888,0.9090446030810317
0.05719924466034094,0.8652481250265416,0.010637443982134662,0.06086447834481563,0.09344722030651316,0.06371676459965839,0.014666206306645384,0.9133858855477325
0.052145172882144604,0.8345785379735681,-0.014690201202946588,0.043379137502663784,0.08522165784854295,0.04100972195254328,7.398987579533071E-4,0.8502119361777575
0.032085437111146066,0.8471791752688904,-0.03971598201423408,0.016253864224140768,0.05404369192241814,0.008298772078537886,-0.052590356012308916,0.8417808774976003
0.052922121610364505,0.9013502633153592,-0.02215049123691254,0.041710685568869324,0.08112711742352167,0.05051324310335413,-0.013484402656538136,0.9251829137830876
0.06540973140679913,0.8896689590646476,0.019371789567766536,0.06498443408704946,0.11102455640555454,0.07414106259130002,0.02566713225951514,0.9017099337944059
0.05577739353742438,0.8789164532470013,0.014226496178413647,0.07128888761233923,0.10723859003759484,0.07270051487988934,0.017703663850221367,0.8663158569558264
0.056664724235272634,0.8795457278487047,-0.0016459676201011455,0.05106969356308776,0.09074149542696527,0.051577887473203264,0.005269187858811402,0.8296715199452411
0.03232512727860453,0.8207069990642822,-0.026464015756804626,0.027680379017599347,0.08340354322720897,0.02567570023916085,-0.03700629377732821,0.8481478121848998
0.021257056772698762,0.8544283431656907,-0.06505359001778,4.896058695579818E-4,0.048317331066380885,-0.008213337099443092,-0.07323091332933254,0.893897939410086
0.05827301979211109,0.8781711106443436,-0.0013369112717306168,0.06258671385080247,0.10434087526622626,0.05261500610442735,0.018145281304383597,0.9106665898158305
0.061255166723480275,0.8858457730195751,0.026177086187566343,0.08776338237937814,0.11330136249018277,0.08528751971413287,0.03835677071766572,0.8613936639170438
0.059406362664219746,0.8774357308274687,0.012347015318623103,0.08205178878958388,0.11476366760594639,0.0855921037993294,0.05583381574148895,0.82138917322628
0.04101126682048982,0.8654111293492814,-0.008615776264403775,0.05604393014937041,0.10471036700731065,0.05747186807555803,0.032473322960069606,0.8911277093917104
0.028322055433997333,0.8336750121433222,-0.015203657909027295,0.026073012518372334,0.07112364427425999,0.02151293091327593,-0.004944221893999488,0.9213474522878945
0.03038044761121125,0.8089945252999682,-0.0635739145805626,0.011718675668520993,0.0531117806849588,5.935157891372419E-4,-0.03877339565395621,0.8555879233965852
0.054198959747699026,0.8506017510461787,0.007897132315189547,0.07446248157248404,0.11549815368369905,0.07164018358930063,0.03548683427225844,0.8198282671621887
0.06062997163734289,0.8835529183645218,0.007572811912925864,0.09542164358003484,0.1266037528585297,0.09474684824873497,0.08232094153323628,0.8770051536781522
0.05688824695416938,0.9088508532252113,0.012416126418266542,0.08643317548096262,0.12530794091969522,0.10423390619063232,0.07515484447507638,0.9102299890089833
0.062498847152239516,0.9006911024946943,-0.021763597456653617,0.06081569909045185,0.09683495403349131,0.07423016699492996,0.03571575790592416,0.9148357361254882
0.03212576908109399,0.8805067886461478,-0.03961022728894268,0.02290794733873135,0.07620479576320081,0.029573669681614807,-0.014090436081441575,0.8795929952803748
0.008304859914060877,0.8650345703206749,-0.0821131633546045,-0.003025581963237236,0.050392590217407524,0.009062941344996292,-0.04886084136103337,0.827135797030623
0.04794129264689136,0.9160639902381223,-0.005582083330077199,0.06562942881629413,0.12605804284707292,0.09918893395506564,0.041686590520102366,0.9856419883555949
0.05861620851098669,0.9017659486366387,-0.02477200135322807,0.07774103087393391,0.13266218264099353,0.09497092102857274,0.042494993610055105,0.9918201096627471
0.058835251810387706,0.8960795057668933,-0.008734637527260012,0.05910708605906157,0.12602296631586707,0.09732566516941582,0.04660477078019686,0.9522696566755315
0.04387231883533075,0.8891585151342948,-0.03464620800595817,0.03642321272094546,0.09904955307663203,0.06111280635403804,0.028798933412009356,0.8832909249930198
0.02650432349610613,0.8682725206797612,-0.06676760326529341,-0.007295694753856371,0.07751439311415279,0.044047942639120215,-0.01868545116292631,0.8674774324049783
0.018231236261704805,0.9060126620999579,-0.0774457249932508,0.004435632723057976,0.0669753015975619,0.03284619688138019,-0.001167924622642552,0.9275556640880905
0.048870679842280884,0.9542608475506883,-0.024052598456562494,0.055303102591280164,0.10758705916843905,0.08594626645778096,0.05095395063127517,0.9367205298109355
0.04894535945398486,0.9191285331794312,-0.028141814765956508,0.03874932034590574,0.11568639368976685,0.07676707704999466,0.05276697748911212,0.8442821216883543
0.03621007197003591,0.9126519207476185,-0.042521717285671536,0.029413977434518016,0.09257532419229224,0.07104458706116522,0.036920240796384486,0.8400944757548967
0.024655582398576004,0.8644748021392139,-0.06371516350137674,0.0041462588986411935,0.07195831616761644,0.03489320385611329,-0.006824572082475329,0.868125041548531
0.008794007598415645,0.859737712172271,-0.09455371360300696,-0.025844798155544267,0.06226481838497682,0.007406904695573982,-0.02363833597918214,0.9171073846562455
0.010270420501837681,0.8858596728587216,-0.08542098283639582,-0.012036622979643972,0.061954411110685344,0.02851650771380143,-0.024616332388051176,0.8886689643763407
0.05004174513156375,0.9096370420254509,-0.03399691629811532,0.041157115005520335,0.11398491442011695,0.09428491767958314,0.05549546903927013,0.8668556256210881
0.04877384008556633,0.915554441532679,-0.030522750737266534,0.038375305459031055,0.1202580614737929,0.09322864084403977,0.06468443397183866,0.853541886690666
0.04602907628414654,0.9032382794339424,-0.05664066457948551,0.03632741726585555,0.11065477709659426,0.08334833345767786,0.04902708359926308,0.9231985422760604
0.033677709453570286,0.9068855857350153,-0.061329997302364346,0.010126559510711432,0.08728340961851455,0.06826871968469449,0.011282057309912405,0.909961758536653
0.007145432989832609,0.8762142784244715,-0.09789563830474446,-0.01874311062829032,0.06895158886507934,0.01744841556746091,-0.024834308039849685,0.902099599246477
0.009755812827444726,0.8765045655390821,-0.08759623989431002,-0.013746462164975751,0.06741777660291622,0.02870854627971036,-0.024794174754624577,0.9014177138396526
0.040868742990660324,0.9340589145077574,-0.026657000607267237,0.03933331874462682,0.12672006779380124,0.10729151304815517,0.059643465629739045,0.8985380301194691
0.046320143670977074,0.9371111827928216,-0.03387623519128707,0.043431033761256205,0.12743454379455002,0.09694763120415767,0.07218762192187676,0.9099192754533659
0.03326910642292081,0.9208974496236215,-0.04818374484701606,0.018112368762431413,0.11256518234362482,0.08352039603191125,0.04570363343618592,0.9494666194323338
0.022603974091216988,0.9100403332803523,-0.06926617760485314,0.00102170670876626,0.07702110233600364,0.05277809982642889,0.008803632859008021,0.9075501560187786
0.008628235964012932,0.8658730225062007,-0.09230414773510431,-0.040435713705246755,0.033415049373636,0.01423606460732741,-0.037517506627915115,0.8398375638696174
0.006334963755256901,0.8638096586026649,-0.080639584875606,-0.025935971839815008,0.05722404445939125,0.026395113851060727,-0.04238908127253172,0.8729729875496994
0.04762786422005218,0.9413552423514142,-0.04831546619471983,0.010757951773000148,0.09829059787799993,0.07501472472601749,0.029238327181685956,0.8785025025138384
0.042095853095489404,0.9191978279691524,-0.048472072312100316,0.016706891298671298,0.10176339294526272,0.09536318171554616,0.03845731643757783,0.8658756036467589
0.027293353863917177,0.9059949290986016,-0.057350649119270576,0.001472095225668017,0.0829906362836563,0.0699030882181685,0.014767065191677585,0.8754032538248954
0.009416154737306226,0.9204204513772063,-0.09408150872160788,-0.02204436232675315,0.06547561838353083,0.04182921177893762,-0.011698373217117914,0.8797586224219109
0.005920582126684945,0.8907732873594209,-0.10225569614890065,-0.053469270590640716,0.04052981644902141,0.001915055075143371,-0.057286774523648776,0.8655148561804743
0.028666553440842114,0.9320379179631154,-0.061896480411343345,-0.004225034274751074,0.07679027099134497,0.05631115500444406,0.009301042284518666,0.8806648753593903
0.041625014656202095,0.9052573156454072,-0.03404956712286797,0.019390480585193073,0.09019490085354838,0.07128754582798509,0.021402294833940134,0.8226099369432487
0.03237648879856694,0.9111628391854997,-0.05924118219686306,0.005421885851160202,0.09551288123862989,0.06696170878145002,0.00971027674240091,0.8295226076177267
0.022086203427809717,0.9234793772815799,-0.08442538748903405,-0.011080345936305122,0.08497493343657606,0.04868872411461231,-0.01314150367070054,0.8826814883826314
0.003437446957927264,0.8771588242454069,-0.10277433969500788,-0.04626670904463091,0.04429225137809026,0.02296830484176327,-0.04793733288177624,0.8705946103288645
-0.01848327899453696,0.8387934051058612,-0.12501196100092998,-0.06496476448152405,0.023902089490221,-0.022538548398484574,-0.08297953217643494,0.8287314046745573
0.016734479204358207,0.8888602035744344,-0.06766722376965298,0.006194145025853649,0.06266108354136357,0.041117645936473775,-0.027287454777923582,0.8404172464973614
0.040603977740005404,0.9107704719809325,-0.054225014881731884,0.018066814340518014,0.08598586661698188,0.07379244109442158,0.030629316027908374,0.9251125239103724
0.03898479758487722,0.949519973761111,-0.05220450074136404,0.009913023243395241,0.09515185744493725,0.07951056002651201,0.017626143511986492,0.9207310187070373
0.012592295817858234,0.8686689340712034,-0.08015066878108042,-0.01865818733831202,0.07963243072060357,0.04295332724185901,-0.012846230329988545,0.9667170537694952
-1.0043316603334539E-4,0.8370311532803393,-0.09899659818060022,-0.034476017747484565,0.0459149780405724,0.006069646911436366,-0.04669178315459238,0.9673058106332257
-0.009543319739854285,0.7605560663091174,-0.1333263782592466,-0.09024326367899566,0.019070617243549966,-0.01899340588685702,-0.08049381257896006,0.9006766293918567
0.016963892420970413,0.782178890396037,-0.06400820296621937,-0.008920331283263363,0.08414244017735788,0.05759525748096235,0.01199304028151249,1.053682867386394
0.040639343490034584,0.8166691217769224,-0.03805657073167406,0.013081787287248344,0.11576027585107176,0.07376673510126763,0.04820755051155263,1.105594036992194
0.03290198791639323,0.7777789137895326,-0.046710411029842136,0.009526699751645735,0.12004374457589131,0.07746708602307341,0.015915449025709735,1.065174060388729
0.01849567805772806,0.7809644578432927,-0.05474288138690803,-0.01716886815659499,0.08317365562807175,0.037651569646951974,-0.01850531655212347,0.9428404780764797
-0.0026860080130261576,0.7955553324866292,-0.07979979672068696,-0.05360867081375894,0.04570134822150762,0.011383416205504794,-0.04783571033670577,0.8954933227881928
-0.021660959265531386,0.7919815670478633,-0.12379480007981765,-0.07533183653480406,0.02719716115594816,-0.023797439240472368,-0.07887345779117003,1.0004877525147442
0.0013692018473172832,0.8261413274514832,-0.07302877671002614,-0.0219216904709549,0.07081627944774037,0.03095147970906661,-0.013316668706192305,1.0817274450072638
0.03111146815279834,0.8572653107585636,-0.04416164355898764,-8.708904865442399E-4,0.0891067623880214,0.04698531142942744,0.007198103174394496,0.994341839106282
0.028282222336174213,0.8283370468782106,-0.05302640985266254,0.012265035140529642,0.09042128598422508,0.057480504101012235,0.007144736663269463,0.9243339121774754
0.012603102946574556,0.8295327889616175,-0.06836944814187916,-0.013223073701701558,0.07009126993799682,0.025300546178042255,-0.022888511030034323,0.9185190438514718
0.00625534977398133,0.8642158778116398,-0.09194707907074288,-0.034743856199768205,0.03722203342146774,-0.009100338559057805,-0.07410445295410588,1.0052484922657117
-0.012956280325151179,0.8546679994828899,-0.0975024387401231,-0.05673721294717502,0.032381771608645304,-0.009039762034204094,-0.08660721363346631,0.9724216031990092
0.028040853244176277,0.8711591111440733,-0.04188808446499923,0.02391421451571691,0.09409125427771828,0.051498512275426477,-0.0056225846441509955,0.9805177930232
0.019259085838734494,0.8342572219766721,-0.024977909706173956,0.0182971862428701,0.08697038596276901,0.06496052451058033,-0.007705525305657554,0.9367844093478769
0.01798694657015327,0.8405186995698098,-0.03448432130976283,0.0030265052275335333,0.08226035762144823,0.04468850977997172,-0.007571463161868645,0.9727650871360911
0.001680873252117266,0.8595098624267556,-0.07411454423568467,-0.017571935691429348,0.0639308867775216,0.015322025056227935,-0.03337703974123634,1.0133612211915868
-0.008725701447486094,0.8111934558897769,-0.10742352086580476,-0.053303803760516834,0.02262774172149244,-0.008392341923863778,-0.0808311539736626,0.9209844224372249
-0.014002566108535596,0.811247494451156,-0.09902386166410078,-0.044131317160371636,0.01670377682303732,-0.016485614854070848,-0.08732012726112486,0.9230760027408678
0.03306889068332408,0.8437456536387806,-0.0231356088407615,0.020713730357879753,0.07796364676592198,0.057251543759317826,0.012958620365364439,0.8945628686729343
0.038109267277392805,0.8952030118121159,-0.025119547683276643,0.029704760519933458,0.10342650496715071,0.07905987270846743,0.02003782170086163,1.0369138428360742
0.03167917176509842,0.894202195019718,-0.02052373514798436,0.0199374259067419,0.09418792359234873,0.06787738877280831,0.026098307153210293,1.0787507385764388
0.007484583572385175,0.8707880203906744,-0.03689035509298105,-0.01597848685840989,0.07125059040953902,0.02769671373610381,-0.024238502079782454,0.9854422858539189
-0.006191919139543914,0.7866262846849303,-0.08347862332241428,-0.03804108517642041,0.0445008887530476,0.0026711655376074808,-0.06597829242484714,0.8382895699038478
0.0017091228932239722,0.8332703558298641,-0.08190660248059572,-0.03174171090144986,0.037833259977895474,0.002572152211209444,-0.05933789646189785,0.8386761554294415
0.04166132779604606,0.9570933707712318,0.001332562902862848,0.024554048335008686,0.09536099550574706,0.06700629805744182,0.018115954703147988,0.9427648577005084
0.04317013564140357,0.9390758197334488,-0.026632916682265837,0.04053796996914623,0.09783670982528808,0.06752342296262527,0.03913731444210524,0.9181351096180338
0.030462969271199083,0.9186851961906075,-0.03767686604251515,0.010201733133746263,0.07885286985297392,0.05293702699848359,-0.0014158416254453686,0.8117040279573488
0.012498242405675772,0.8939180222849444,-0.0375346451777086,-0.007038558214249735,0.044451334806389256,0.02415805088351246,-0.034353892010051956,0.7535448540947578
0.007257563586929812,0.869612352188703,-0.07908441012632193,-0.04238287687855019,0.05080698048827196,6.332715404407892E-4,-0.05330430486036349,0.8637526311435729
0.005203716336522585,0.9285276146685337,-0.07261250431562448,-0.020717365070221535,0.05101712413261705,5.433053821402657E-4,-0.047860259091170275,0.8764243696701445
0.05361756680255157,1.0003983859690662,-0.011158024066038122,0.03619623801361877,0.08628663050420984,0.06012849440165894,0.005683963174639047,0.8532943058800992
0.03180291612338176,0.9338875504395815,-0.004266886548238026,0.026850619038678133,0.09430498708833682,0.06295581331835408,0.006830027985910289,0.69805227483755
0.03606241183297138,0.9452550685044208,-0.01382454859466569,0.017522959882710343,0.07191523130194494,0.03881012991630658,-0.0014618383640281666,0.6776154331107748
0.01776317501314777,0.9247889556579686,-0.044299670144762826,-4.7500979614043556E-4,0.05267423894076309,0.013946936771359449,-0.02240884117159666,0.8081813875246884
-0.004586075517248627,0.971147419662445,-0.08907978420807129,-0.03588016815356517,0.03769036914393453,-0.01686750171960416,-0.0583685843078892,0.8629078663865718
0.04113310648436581,0.9727468927898456,-0.006868794414005742,0.045758560281529595,0.07727300365993744,0.042816158014644196,0.0023173729999365717,0.7933848919218474
0.05007097564442556,0.8816922372661607,0.007214570534279268,0.0604817966778781,0.08678361423972691,0.07658921289767538,0.02451250497604681,0.6635179021758524
0.041664091393993186,0.8886948626640734,0.014373178096640902,0.055087620047740114,0.08382520050241431,0.07558031232497234,0.029810292458983072,0.6513693402794598
0.02996485842935654,0.9240467741212292,-0.02575439670683037,0.04607810126790602,0.08089716282235611,0.045114444722398145,0.002583589982890107,0.782259948742546
0.014009580588285756,0.9279347138310238,-0.04007865513729641,0.006433217071830703,0.07057808670118175,0.0180413879066829,-0.03379751492389685,0.8679323416074695
0.004959504481634604,0.8950735465889028,-0.06053081479926584,-0.015958642221773366,0.041158477146861834,-0.01326955959446944,-0.06170457744584751,0.7775556629710416
0.040190794851142644,0.8635676726153938,0.018286144152863056,0.057429440430099364,0.07759083603428009,0.05744894697370369,0.024264674433983092,0.6822747737056799
0.06090095246696316,0.9025605955608341,0.031544338482411,0.0751508940402786,0.09831477802493356,0.08578034211574251,0.04301865828216892,0.7186873679813072
0.06010175737730184,0.9555383146641367,0.011902678198083166,0.08689275499232195,0.0909997961857982,0.08516641401602215,0.035576937832496346,0.8808065705385724
0.043746826398681875,0.9563395350284545,-0.00830029603789881,0.049528456520567844,0.08233231805470179,0.05358007366915689,0.01155510182679273,0.8419328772004544
0.02575729064998964,0.8637001961769261,-0.025913164681866423,0.027097122507589062,0.055536957479453,0.030780230775179822,-0.03673062737335042,0.6673982315291781
0.003010206200685305,0.8144075687164717,-0.051389366102382684,7.999205590883902E-4,0.01305328922626078,-0.022871980681586253,-0.06826193695935319,0.6932008660423247
0.05593411784941586,0.9176685537208671,0.02670377829403176,0.08421201242064319,0.08279610921889158,0.06984277975727403,0.026839153491437135,0.7429213784212993
0.0706795813293849,0.9545941626654282,0.035354015911987724,0.09260070614554679,0.09819902141141487,0.07653675548174131,0.0525864050169998,0.8882982622739377
0.06330882386707666,0.9664872148796058,0.03019879662720164,0.08799041952171761,0.0988197674984753,0.06568243238140847,0.028822465767865225,0.8609313947138242
0.05377510514575194,0.8772748617197051,0.00467286601448363,0.06859280815461374,0.06648732746507767,0.03354194971924374,-0.010001103699442472,0.7133637554508558
0.025393037995559017,0.8343428721136487,-0.018965351826245546,0.029543541620776465,0.03173606868084849,-8.015368051983641E-4,-0.04730739708232299,0.6992795936002518
0.010502477024762556,0.8619404208513529,-0.04730458560287722,0.003299922795042452,0.01204492779532138,-0.007283486688644575,-0.07328130424851284,0.763978062391378
0.061463118612438555,0.953111066154124,0.03247655855453782,0.08729575631196386,0.08681885417267729,0.05952070740225832,0.016885930035681927,0.8342161919713134
0.0558853286913032,0.942442370621936,0.028746750949864487,0.08704325481978774,0.07789138463857657,0.06696947459289361,0.014515674398460944,0.7820360492248504
0.06171931268405936,0.876522704966188,0.01806703136113255,0.07533840016848818,0.07152261607432697,0.05778005808625966,-0.0012850862285297025,0.6680284776924743
0.04108704619105867,0.8783704219512013,-0.011453310321613903,0.054825615954121706,0.04923776137253516,0.015404351642875125,-0.03079644787684644,0.6751395847184353
0.027370903709933208,0.89374291629336,-0.03803567488292349,0.020475571369211,0.03354425119189398,-0.00421815118751276,-0.04817381500044245,0.8052585749750447
0.023651581398864297,0.9002781019021551,-0.012969826967562633,0.04981106045046951,0.04033664943198937,0.008840281858387712,-0.044553467574904214,0.7923143001689408
0.06452872106793177,0.9210764589748373,0.044260487784966544,0.09866184580327998,0.09284485665464785,0.05702043708595772,0.018171325426373692,0.7288589705263379
0.05896923439426646,0.9136233221164193,0.025733607873168127,0.10291676325909407,0.07254476042961913,0.05680028238576491,0.020518453345953223,0.6634839817102353
0.04653226904721905,0.8794200549160571,0.019071848711592346,0.07686144318655524,0.06413763613716042,0.0359407681419348,0.012656909491077643,0.7083626419793546
0.039749428282438784,0.9007754179333413,-0.024368233370256415,0.04375966515238467,0.043676534664971955,0.010661392506662693,-0.024301703165240423,0.7939506761040719
0.011736715047141657,0.8866425072728789,-0.04459052165286331,0.0071550785694006955,0.02437876619736035,-0.02099076953407563,-0.07372330296234993,0.801433355223845
0.03314697443441489,0.9083460145255796,-0.0150007581681095,0.0449867893751565,0.042038989070765996,-7.739853487512172E-4,-0.0523316479244569,0.721442845903908
0.05859842098978263,0.8964629650106652,0.04829723828209375,0.10776061443342637,0.09274783408139024,0.06116862374551551,0.035336262705183,0.7153198729581914
0.0723937922202712,0.8983234152605791,0.036166921965166965,0.11463581250408318,0.0950095002770956,0.06936155686975509,0.0281579643344134,0.8174168054090485
0.05442423126645978,0.9291110492179482,0.005737331082521128,0.08920187164065085,0.0767640049074895,0.05663703148799603,0.016774485955663398,0.9041407681388451
0.03174860549039361,0.8933983857775745,-0.005496733165994774,0.06681623944572306,0.05374750069958598,0.032085146340218265,-0.024732326001372318,0.801881963341216
0.021220107284552037,0.8420398067936457,-0.0328583969977759,0.028059763711279426,0.028630832216694643,-0.003150430211269688,-0.06854328576705102,0.7466536352727797
0.035836647321972746,0.8663198890199464,-0.006905758330936024,0.06339728046675162,0.030959589874921496,0.01986097715894843,-0.023196699874100085,0.7388292131671349
0.06540534869933608,0.9439125796181801,0.05250574194814791,0.12885281951635968,0.10002773486747134,0.08176909095952933,0.042188727736302084,0.8574316527699789
0.07546517125924984,0.9480586366598027,0.03800014986707477,0.11369092704357216,0.10812400872625144,0.0835949296488488,0.04060292716867139,0.9110250349697921
0.06083833926862317,0.9097864670727078,0.04269706817626647,0.08913000127446227,0.08268788709819767,0.07290323177698275,0.013331034507674021,0.8462978165532447
0.04029689458567177,0.888326628528551,0.0018883496917655328,0.0644491887394151,0.04828658529459022,0.030521069891125185,-0.01943193193327329,0.7428198373866666
0.024904100143937864,0.8545806753439705,-0.022275265013314807,0.04579088834044738,0.038690818857586934,-0.0032508502046228373,-0.05470693617806816,0.7139746160650253
0.021895615814511087,0.9080999045712774,-0.0036313793524783223,0.05230248106597628,0.04572480107288505,0.018999098910863824,-0.05412643786748821,0.7794446586349018
0.06454582310644028,0.9158125317687492,0.046219114308009374,0.08698345556566556,0.09876288503349029,0.0809737075360024,0.018272054411889935,0.8366798008363039
0.06380111484039781,0.9058928508242021,0.03126430559768699,0.10055266712366777,0.08654598795092078,0.07997839293600321,0.025674594764111876,0.779280177069858
0.05363114137109661,0.8363647425509274,0.026133996260403896,0.07117049862265226,0.07286822307988952,0.06233282080195915,-0.0033742150483978663,0.738143485186053
0.03492860229124198,0.8448534888852058,-0.0057290336194867515,0.05355241920652433,0.05867232320924644,0.03747530783435556,-0.025538790184678983,0.8148000308304855
0.01856119413204629,0.9088096075592431,-0.04761625486225139,0.01391675765671847,0.037954639060433025,0.001779028660214438,-0.05017436915528148,0.822850407895514
0.05289933581873442,0.9224988613236819,0.0056833535882295306,0.08540744979953024,0.08670906787238887,0.06165852181201806,9.50777037023078E-4,0.8042956309113948
0.05694900177427498,0.9074424839453764,0.0286419573857591,0.08387411577023644,0.09389710246045471,0.09198642842893885,0.03771783579215078,0.7423079518952431
0.05847216360422723,0.8857287122102114,0.030710793191834687,0.07730911196123806,0.09621888337152393,0.08092194460285816,0.02506864379800537,0.7931716122447533
0.04439747334819695,0.8874221853671802,-0.005910035556467354,0.05999547558498789,0.0754688043506805,0.05617220721683144,-0.0037058067993772127,0.8487578339142262
0.018972487453166667,0.8738795219639505,-0.024519942393240117,0.013713971064868722,0.05064444101125097,0.021386850966574257,-0.023808387086472215,0.8799808952196327
4.560363358524213E-4,0.8533511467261568,-0.06383434676653973,-0.014164066634352367,0.017519164270117012,-0.00951035035754063,-0.07426755663606957,0.8118904463122658
0.04715011869413542,0.8965702544711066,0.01169531157330857,0.07942812416194395,0.08599885132188789,0.0645012472553633,0.010170545269930508,0.8199103481520377
0.0662207053650225,0.8939536453869978,0.027929600862015326,0.0809398271237159,0.10434903532446849,0.09719781644603498,0.053830960170635864,0.8410955319537019
0.0677463733606741,0.9138530195987488,0.027110241297308435,0.07588694997440837,0.11033669139467571,0.09504091126360019,0.04794872911300091,0.9062851878401843
0.04672507556552455,0.8773992420007194,-0.0031011287344468058,0.06215638109000391,0.08872351708727479,0.08201065642258022,0.021174211408968465,0.916394145923729
0.03306975473025704,0.882986491158956,-0.02662856404214083,0.023605748360969875,0.051074457487858625,0.044924222232606496,-0.018632486643591194,0.8122952711820232
0.01783818548131067,0.8357254057987179,-0.05571477620970304,-0.02068455531919351,0.03576677200981407,0.004950270489920179,-0.044252969862344865,0.8122464004703791
0.044274929866932794,0.863841292136676,1.482808362857612E-4,0.054725350348328296,0.08620734565310612,0.07674168346319217,0.025449771728878176,0.8406576581779203
0.06659900688215158,0.9264309380063066,0.03290298348426144,0.08472228997067906,0.1223335052033368,0.10720606921562807,0.06519418680457725,0.8964433800687215
0.057324080738015946,0.877770461865478,0.01798610381089942,0.07701504961667141,0.10997995049717169,0.11677324545186081,0.06126950939387173,0.8883695840745727
0.05265739487142212,0.8773099428926673,0.006180909090756323,0.053032110587409316,0.0841206978259145,0.08193343232313943,0.0337781132430958,0.8124391765115866
0.037837651218422634,0.8718200272298279,-0.023102277841613512,0.02745342026209119,0.06661983978807669,0.057742813705347666,0.004682395585251145,0.8093646679386984
0.016239707682100896,0.835436617029059,-0.061439843000523735,-0.0049221592541887245,0.028201221613961304,0.014328702760385037,-0.043878299663025144,0.8986437713421304
0.04027016195790277,0.8957214508005812,0.0069859896916828245,0.04251883654156576,0.06995725989848241,0.07571912164040871,0.011042245424539994,0.8979227010718024
0.06643430453808095,0.9275646177458311,0.021441470445192158,0.07940641500638385,0.10897998317131198,0.11379908172833549,0.05721108705643404,0.8112207038102763
0.06066027170465757,0.8951123174047458,0.02436422031575734,0.0841923179843271,0.1137616645715375,0.11415609774335662,0.06447682426893496,0.8280877956939963
0.05048846541213146,0.8921344464796941,0.009112150494611143,0.07512376596737512,0.09759763315018968,0.08546081519033495,0.037278168074355446,0.8485132605197367
0.036321791945186956,0.9017679718158305,-0.014281059783320435,0.025163476066575804,0.07624655508439165,0.06819796374394478,-0.003302909902045216,0.8795405957400678
0.01788137656249348,0.8672019874968129,-0.05763411451929989,-0.0031407355130508284,0.04041676777300341,0.027995760019261445,-0.03563653399708904,0.8403399831372832
0.038616475125775714,0.8771311947566504,-0.001857516872352943,0.0526815004053533,0.07440883070747333,0.07991237873997965,0.021130868781554672,0.7907460663461494
0.05910171346810832,0.8679901220401826,0.01633219860733215,0.06020660618159166,0.10277173733233845,0.10685603319052822,0.04060488965984136,0.8215547550063033
0.050718461142309636,0.9069076344273274,0.02524894184406314,0.0751701074180488,0.09256318145278794,0.11566123517414839,0.04836790453979947,0.8442433122184935
0.040904320149937015,0.8944064692242183,-0.0051179738464623365,0.0341996298692569,0.07902301143199883,0.08247487032273368,0.024336005977116305,0.8693151060145089
0.032221530618189984,0.8877628632358351,-0.03704115560167209,0.012956958158083867,0.058892640234196436,0.0404946418874196,-0.005627965425601369,0.7949815675392757
-0.0014051171264995075,0.8062343237651299,-0.07313401768044585,-0.02980197692661563,0.021632996699976283,0.0168201133602329,-0.04958097431005029,0.7413840091008407
0.041602103527220734,0.896882552124551,-0.00782320765916944,0.04236952207569777,0.0726911010486061,0.07098237662431756,0.00956881483269937,0.7977211302787454
0.06381001706829653,0.9105326524394659,0.03489489804201002,0.082243035561944,0.11136840126258474,0.11395795876729309,0.06826695594908025,0.8912411003577165
0.05363526828428347,0.8996259126088115,0.026469388403520654,0.08866793872721135,0.11637576728555844,0.13237899558388622,0.07324856838708337,0.8282474637914555
0.04306816815583022,0.8484329961427289,0.01517474814289504,0.05806992556345976,0.07988437429678381,0.1012092518505462,0.047506177579293186,0.7976540725595193
0.023274885204042403,0.8356909664820908,-0.02370011188567526,0.02837317271662861,0.06974700557927067,0.06329473479355227,0.02044301220118091,0.7502088913297428
0.007235315160289974,0.8453779645825383,-0.050322985412170965,-0.005103809724556969,0.043727872587616234,0.038845689757203025,-0.032072641553511534,0.8062225249690991
0.032726694829040184,0.8914938011886169,-0.017837187776523416,0.04135285253440503,0.0770470688122222,0.08544506497242388,0.03005311393309864,0.8587175816977889
0.06498252768689282,0.8945822931470924,0.03480766392352821,0.09713103832164732,0.11895456577939233,0.14796363421371092,0.09863592916313267,0.7984678562442785
0.057238659245370783,0.8419066572159748,0.03397497941995708,0.09196548152872439,0.11955525340927825,0.14484527623676016,0.08505849821569093,0.7895601516239376
0.05247475504598461,0.86980552298637,0.02606718828667185,0.08304987586171107,0.10444053780818223,0.12250579158980661,0.07595641268319045,0.7672146803317175
0.041003402699985966,0.8795817074586193,-0.012836116362277676,0.04948878703177184,0.0845891312699233,0.10421977418926609,0.03281908807993241,0.8853472539031025
0.023238040280370766,0.8612265958049702,-0.034981333258030455,0.025567024683766593,0.05915346215701794,0.055432872987252205,0.015373080430833795,0.8839756211290474
0.01651037564640614,0.8349290615574764,-0.02629974026684742,0.0284221922178925,0.04952862248998242,0.060763291590645224,0.01662905206858628,0.7859366343781455
0.06438752319290758,0.8583884575708941,0.033698092059741655,0.11328839918661869,0.10723967926293204,0.14453347468144156,0.094629405214986,0.7731713765368546
0.07488083176284177,0.8774952853410857,0.045776018027174785,0.11237969400932747,0.12831247000392013,0.15581878788916476,0.10804212114531044,0.8203227820213701
0.062125804517299585,0.9451144673914291,0.03279267497836721,0.1024935045312652,0.10508980225863701,0.13686025111385022,0.08653418760731936,0.8816899563209789
0.041717921656101074,0.8699515219477276,0.009623493607954729,0.06440860834551719,0.09004701849204573,0.10257110198389875,0.053955634295190534,0.7971654039443195
0.03756860591632187,0.8223614306402905,-0.02464787235615433,0.023802698424771725,0.0521285394774442,0.08012463176838865,0.0012160617902502136,0.7549754299654887
0.020998421796275465,0.7980726602237749,-0.028798856699032295,0.014327487461325158,0.0434376497613967,0.04812269189284982,-0.008276776864762253,0.7341428846941495
0.06681029405959418,0.8886854405888062,0.03916278055372038,0.09327724287324163,0.09341062812438364,0.12594406564769237,0.0751187162689039,0.8103049546677638
0.06525366258049496,0.9115985421787397,0.026882268790414676,0.09975080569377125,0.11028331981116168,0.14061035323347415,0.0786624593230001,0.8486555951237592
0.05058406513532082,0.8515455827173778,0.02490502352076874,0.08768457018873707,0.09860665115336964,0.11650978334274432,0.06567274111482525,0.7913382892442032
0.038927521820101986,0.8298531393897098,-0.0023648966144367406,0.06745079443165784,0.0815502618954046,0.09601747018250119,0.03149080212433309,0.73739053202246
0.03445479298464196,0.8179574160560946,-0.019572489461531544,0.027956397948737145,0.04746564133448102,0.060483685631938955,-0.0037955504493658388,0.760340261331637
0.039842838189791945,0.8714465840303451,-0.01656174827419674,0.06596726027887652,0.07243518916855163,0.08623434921228079,0.019333431267609075,0.8123073089799986
0.07956932453226653,0.8831812847118036,0.053029459511007924,0.11717048543733326,0.10909731255756738,0.13305291098831276,0.07950192137129802,0.8358655977569203
0.06625489966328708,0.876596480196528,0.05175247234301001,0.11344065884098466,0.09425839786080258,0.13769816271911842,0.0825751608484719,0.7744363812756293
0.056553600572953375,0.8541256445095458,0.02223072790945504,0.08820068393612145,0.07334753250556891,0.11875827703920365,0.04825206496429398,0.7593301625252573
0.0429172480621569,0.8774548059195694,0.001479256575662631,0.06376759406695237,0.06327918905154378,0.0766174724873988,0.021150049024358113,0.8373484317540208
0.021652262447835115,0.8614138524641458,-0.03757897123381428,0.025385851558534313,0.04899431802554033,0.04954267969406495,-0.02018781072009402,0.8671855346746871
0.02608319196044096,0.8463984475190576,-0.011279595194620488,0.047931596310784745,0.047081395509418096,0.06685340837322565,-0.013557962961303776,0.8135973091433415
0.06923002286476064,0.8638041124494135,0.057302243895820795,0.12043766812152003,0.10217914475918027,0.1387111087256914,0.06699644062337899,0.7908969440018148
0.08391384564360632,0.85118337244497,0.05852986887350513,0.13693179498447539,0.11522762130211556,0.1380496763051634,0.08395194348874177,0.748734298612035
0.07397664771684463,0.8762680509279681,0.05295349507447695,0.12304767144354906,0.10922034023633832,0.12420267803638704,0.06538037627684702,0.8575380630323702
0.056213275691147147,0.8687775514071501,0.01850770465785706,0.09297975817844584,0.09879750100112848,0.11433810025303988,0.02839204734591721,0.8769272360643284
0.036218724727393334,0.8395837930104376,-0.008911058198058477,0.05828751153629868,0.05728623956978726,0.07359641056165367,-7.444423647528446E-4,0.787780105923119
0.0413189590048935,0.791837029678127,-0.018314898263894756,0.05923908587089777,0.04510661739665712,0.0521311740455722,-0.02007052023052213,0.7445496258871692
0.07131754188452472,0.8451785417030795,0.06518241908394735,0.14179994094535284,0.11078711055720275,0.13608994767219038,0.07017856568379609,0.7754507797581369
0.07943877593692697,0.8893314205022528,0.0680146206689952,0.14980484294411758,0.1123755222386654,0.14924593157513058,0.0883657616605916,0.8461625865665003
0.073912164100589,0.8968517270031434,0.04977680774088317,0.12090051082441015,0.10226505103529776,0.14340571446294542,0.05666675446208993,0.883488612893011
0.06283861241425596,0.8646479486684074,0.033574873413362454,0.09242426552140821,0.08524425458183209,0.09546597657711953,0.016787872156707656,0.743178637214718
0.04938020843727504,0.820756831076197,0.009362906159236262,0.06012206761230026,0.0672427798331564,0.06467560345521137,-0.029389423499165915,0.7058785988294191
0.03241153778130872,0.8269249528125593,-0.014343494698555777,0.0600633732114593,0.0427479776420305,0.03560152332974132,-0.0512386279922875,0.7350595172549143
0.07838557270120242,0.8652308114421078,0.050244236926321545,0.12780681543362746,0.09363546569041128,0.11765466736851919,0.03139479074082848,0.7813552506569755
0.07338802528469617,0.8664947029047724,0.06804975712188177,0.1303231815499227,0.09622743279484275,0.12823614033006328,0.046848000472230755,0.748630699517223
0.07487583620084665,0.8222052736140839,0.05820653494887145,0.1124755969505579,0.08763879820728816,0.11562248412276305,0.021506979124726076,0.6814922919470249
0.06191834469648843,0.8408648798656871,0.02733351125127016,0.08756954601388649,0.07401114149250285,0.08535870527965349,0.005091831935106874,0.7027358106543824
0.04097981295001298,0.8243308742216818,-0.0011868387014289745,0.06553638449252228,0.041502419640980795,0.055816109778335586,-0.027286884615648065,0.7811456673703435
0.06008056287516552,0.8551346687763611,0.05127504533793681,0.11142819522003015,0.08071240302416721,0.10229279661604274,0.02449849730370456,0.7875090162255415
0.07719445300342355,0.8681796911126516,0.08010045370113313,0.14763406763207157,0.10768502886692392,0.14371148651355467,0.062054114479296096,0.7551613644132207
0.08871635198641545,0.8347410953791522,0.06883136112475736,0.13135716725113608,0.10880401625375992,0.13368524950055186,0.05455284225790227,0.7028224853209448
0.08082133826298046,0.8279123734710392,0.045355578431745563,0.11794358224868509,0.08842694113520898,0.12141951041351073,0.03807393191055503,0.7397314586062961
0.0564928142307743,0.8435991815453077,0.019157542139575334,0.09135761002544866,0.07493492727148762,0.09905602430459713,0.013668802746912779,0.8523142867228114
0.030313512464070665,0.7960568776587739,0.00426917222889204,0.06223987754794711,0.05473441104799525,0.06162909896931353,-0.024943207595896837,0.7634915389503873
0.08073679703872892,0.8358784989826203,0.06968747986257451,0.1340744539793602,0.09687140024566954,0.12824259140600203,0.0463143770417798,0.6917999878556245
0.09914803769213858,0.8476830785412408,0.10579517233360891,0.16846725454862121,0.12566570586555537,0.1592443712875082,0.07591648779748475,0.7290344062907222
0.10091926450732087,0.8370645442095226,0.1053588948949922,0.1594035478066989,0.13875400117607478,0.16563315742983598,0.08975062414743014,0.843567166467999
0.08610846156651249,0.8678230362240744,0.07603754218723745,0.13850305323049136,0.11170052230576286,0.14148675815310857,0.07053261550046903,0.8136091375133545
0.06693363177188637,0.8501478366067842,0.04878614393025723,0.10090273149891935,0.07900648009286036,0.10451292406030932,0.021604452956897807,0.7496616137198675
0.05324037221334592,0.8262154834521753,0.0149632699525666,0.07555135741315452,0.05759045276711289,0.07736354406931877,-0.014425561240873814,0.7122474157236476
0.08599167838457478,0.845437769045548,0.08332444168846198,0.1409578743288811,0.10598195929376202,0.1453189033431091,0.055713060561051894,0.7781944354804667
0.09660409647314899,0.8918671530667179,0.08789213807723388,0.1537960211223698,0.14984546557053216,0.16868350352467112,0.08666515234000818,0.7937337183326968
0.1002788482385898,0.8967497503550362,0.09831400115665424,0.15658791532409194,0.13704576271879174,0.165633136542907,0.07584806677401155,0.7713862044316098
0.07779299464846469,0.8527493387738111,0.07809819988400696,0.12949721791760993,0.12258319996273451,0.1426752172506699,0.057093183852752694,0.7260740302459247
0.05792432139113716,0.8359745947948352,0.038080536870570385,0.10611711813504789,0.10679193706774448,0.12464996033667305,0.025041016061653168,0.6905377165957278
0.05251221852584286,0.8724593036154554,0.050864194158416844,0.11183804688917441,0.0998067494484727,0.11843974363273997,0.03577097645935749,0.7550104095956091
0.09066409300180707,0.9006953491016388,0.07584973184526851,0.15327797003304294,0.14758306983886146,0.17657295362290332,0.10476781738117005,0.7894776404766638
0.08996838409691499,0.8934457305497515,0.08793746099557632,0.14961486681993683,0.14232431972195103,0.17429759196447667,0.10709782046465613,0.7477364665761832
0.07896878059151304,0.8666514103029982,0.07180571119195896,0.14152007935193361,0.13491282716680292,0.1707473100254848,0.08912426593817323,0.7009739173141677
0.06690383308587974,0.8194391975392381,0.04787071758743229,0.09986646561590423,0.11192564881253232,0.14410708994802368,0.06048138813424283,0.693167924552863
0.04713584393924027,0.8322357384444833,0.010778565321669964,0.07416476256756505,0.08301865541672278,0.11856803682558634,0.027247237668153984,0.7041199273061981
0.05924309210603091,0.8747301312072432,0.0551402055458852,0.12192122266256199,0.12452949983576052,0.16055346656508385,0.08612212023892934,0.7413029996044294
0.07503678282356707,0.8535824341341319,0.08616240736930515,0.15752261988176594,0.1513423556696117,0.19837127294638254,0.13592406833719956,0.7185361008503462
0.08563845730708936,0.8297193987101859,0.0837090080632148,0.1539476896530763,0.15577005256973295,0.20886177991540197,0.133923665642086,0.6944981220706123
0.06719853508517128,0.837576171898445,0.057488981465297,0.12293303949191868,0.13840782137158772,0.1952731473622419,0.14293017701507751,0.7379231197750526
0.05091052507738559,0.8394818904767919,0.04505352442831725,0.11060139379208331,0.13251900416992918,0.152714031742925,0.0923886192826516,0.7505805459403599
0.03200013696822726,0.8279337214735739,-0.0041843256287755915,0.06550565917967396,0.1069017986500367,0.11504936793608449,0.05866947298335203,0.7010542380885556
0.057617031202987404,0.8262692208410907,0.0509955931467038,0.11554175347439613,0.14608359704423374,0.1775226452965177,0.12436426751313968,0.6802388993389297
0.06986347959889909,0.8580312257534287,0.06414165354693495,0.14388608314851184,0.17816768685590784,0.21709382141696304,0.16695439295089504,0.6923052360187925
0.05942828027909251,0.8629618105288194,0.049026866486715136,0.12870554394025607,0.16914793516620089,0.20725892960317777,0.16741319727180087,0.7247187249256701
0.05251346074691707,0.8517675065700163,0.03798009444098071,0.09916522821852157,0.14341182962642074,0.19139471743212197,0.13666424810906622,0.7548129940924022
0.04540161781025794,0.8182938640578262,0.017596999998608476,0.07628438764028227,0.1358708106874303,0.17601340163617477,0.10494703247070358,0.7060880224782647
0.01955447056562227,0.823713437559691,-0.022827102145774436,0.04414504355714441,0.09440574386175965,0.12774547462027183,0.05563685019037957,0.7174553973663326
0.040615099350606254,0.8684761516539139,0.014440313218651336,0.07914980760539202,0.1404694273735496,0.16801967480892044,0.09625465490416844,0.7210538267070732
0.05754686142153308,0.8818945604455063,0.040775159461519356,0.0953201704175194,0.17355805846877198,0.1969548093777061,0.1576262311323101,0.7506326981298223
0.05879533409763764,0.8614043707930746,0.03160469804149316,0.0890425834398971,0.16907357420910238,0.19810853346803106,0.1490287209339091,0.7440590412451492
0.04539674835739391,0.8239454441916977,0.011005660151058432,0.07788776623663084,0.13733850998675706,0.18010266421305088,0.12280574417964683,0.6889988517460346
0.025132311591452263,0.7794403012873683,-0.004804181418259194,0.0644864078901168,0.12348261804579626,0.16045234832117225,0.11391600408575872,0.6741176330425028
0.029136678354938356,0.7899411232806822,-0.01249050773461424,0.06202641132830347,0.11548311497090319,0.13932182032514306,0.10653598965836598,0.7073192689704159
0.05489485609088912,0.8714324605629875,0.030320158967710262,0.1071897062339188,0.1751916213067932,0.19719728215277516,0.16488147856046642,0.7352680962344157
0.05665740946947473,0.82654916448872,0.026835050537072816,0.10754059031157667,0.158277911284078,0.206881390635145,0.17968185101659753,0.7214100318792059
0.04944959131209146,0.7867948000978553,0.022301596720342647,0.08802190052437459,0.14034662378349202,0.1781169981675654,0.15756193718303402,0.6586438336417302
0.03667432288546183,0.8210694382697631,0.001084527778729591,0.05192158491597574,0.14048174382057405,0.148721801505331,0.12581051625798134,0.7016711649598946
0.029817063267349744,0.7712123474069226,-0.02363628642315657,0.025351848858650963,0.09752196311625912,0.13170083275811106,0.07635217076376728,0.6937966484564513
0.04520723431279064,0.8185619137473279,-0.013024660379761585,0.055657028308779145,0.14255572942322564,0.16479419553047675,0.1086175052735278,0.7565580193777958
0.07234663869529487,0.8235502818644667,0.027854301211277452,0.10072900652581199,0.16839515647153253,0.21069728912907315,0.16746977789720585,0.7151952415059124
0.05690237587303924,0.8232589580741154,0.03035042186301702,0.10207580253527573,0.17679242820539248,0.21580992566348398,0.18111553192010013,0.6776182701661575
0.060775294268969784,0.8555115865514547,0.027665461082536057,0.08544418854351829,0.16098481468378745,0.19461050695329227,0.15284290578016502,0.7198617542855028
0.05765649548897425,0.822140500797637,-0.003262050960537032,0.07046369416852348,0.1423819648991729,0.16479127501772853,0.13172124706479493,0.7816676669604757
0.03718629678060518,0.8150419046445496,-0.02901555690197345,0.03896595814633165,0.12292339608568499,0.12996669395498767,0.07846545741692375,0.7578657339330277
0.052223736644439404,0.8191639824904807,0.003547462888719607,0.05679773775317333,0.1252071649330704,0.1445877570214105,0.0824870775099799,0.7028081304381857
0.06913761443329486,0.8141707309692264,0.03880523730534196,0.10964633261395847,0.17290218652049147,0.19493587884260632,0.14246924236138053,0.6873021088770787
0.06312544877282697,0.8333664738018034,0.02649000242045267,0.10137303407114712,0.1762699577177518,0.18981164751775675,0.14964233447727784,0.7659070561104738
0.06462064834460372,0.8292329560918056,0.024012497897898173,0.07582517917959064,0.1558673303299415,0.18194978105850612,0.12482481805015883,0.7524929878857434
0.05279271769750134,0.8059891466216381,0.006906959376825477,0.07512147978536417,0.13711878376997963,0.15849565435564264,0.10562637926145337,0.7432116196663858
0.038931674672794486,0.7726485713744714,-0.011154245155670064,0.05182223330740237,0.11163045538888186,0.1398944092176042,0.0890682072400984,0.6560682265426475
0.06381453220073843,0.7679754440710244,0.028250752214758444,0.08794938051210094,0.14896838898107242,0.18083272133045347,0.13552535703709842,0.6432843996583288
0.07155206920299427,0.8140670518784565,0.0474753333069384,0.10760870425006694,0.15941962279247504,0.19791181930353366,0.15535830100891468,0.6612457757285923
0.07176776675838316,0.8189680572887137,0.021800380778406795,0.10075823305007453,0.1581620494648836,0.2021251953576768,0.15600571582814807,0.6974314828095914
0.06314698423116859,0.7883151306590477,0.010408238948805647,0.07703443714595576,0.1508636583810214,0.16480796659536487,0.13000143925229843,0.7405578285951402
0.04102499986129389,0.7187536175467293,0.0031156034869638787,0.052229273024434544,0.12460953666634074,0.13829798544632801,0.10454215642998393,0.6617345237898007
0.035233946383254305,0.7759027955703692,-0.033397007069381354,0.032527127985183646,0.10637823233104515,0.12447726918564846,0.08772652005256101,0.7027959150460397
0.06972363368265395,0.830331668688817,0.03552622638970396,0.09852162124639396,0.18848338530191586,0.20307791186081423,0.16517912712495073,0.7583750120260224
0.0804980565140592,0.8283277192748174,0.04898015980937022,0.10788129940705832,0.18605867111721464,0.21447539074146565,0.17328639228166448,0.7752812570843992
0.0715963317662955,0.8308786987187131,0.053612589656883494,0.09964726613300749,0.17721991458378836,0.2010135472480642,0.15212618948385145,0.7034148063643851
0.0636706379060192,0.7857692725059864,0.01731701383171737,0.08729292547831878,0.14857919860908414,0.173941597364326,0.13906174608806837,0.6584907689617262
0.04364744908310675,0.7915517557026472,-0.013270865596316196,0.06504511661107489,0.1397875246901993,0.164308370922848,0.11317367163675833,0.7213092177029332
0.028948151706415157,0.77263925379223,-0.028454828954040286,0.03276075033600019,0.12517732817287486,0.14277768540593946,0.07931143254319181,0.7812774046808795
0.06170243370033012,0.8287098223096626,0.031267798326806706,0.1068882561913515,0.17185473700315976,0.20346779559023626,0.1524246862344654,0.7265185653234044
0.06828018522329658,0.7895928152646672,0.05304762638543122,0.11365547285945732,0.17920041738996406,0.21124519712403286,0.15358936806026052,0.6875062757631291
0.06956452054711804,0.7858569910696649,0.044770913416324346,0.10921192224233285,0.16926410994724983,0.21364636197443418,0.1574089716573572,0.6811067504130494
0.05834688874302086,0.8037437138412117,0.028006809771010967,0.08441605829200793,0.15826331916059383,0.18015345660551293,0.1305232703178331,0.7557135410780527
0.05359196098312576,0.8059593862827045,0.009236137360375282,0.062057686644682246,0.14091835662878904,0.14430634465888148,0.0928052775733239,0.7550124276601103
0.047758141386542254,0.8025147808129347,-0.0073399563052103595,0.04277063503597891,0.10190639362806218,0.14260702443387108,0.06829721659871392,0.6897888693690521
0.057593248802806536,0.801800492243906,0.03492787248274197,0.10791632653663076,0.171210000849912,0.18644554029519864,0.13727081222372528,0.6569387641412705
0.0686018515615982,0.8001439279986811,0.0367153371660626,0.10508341841567079,0.17263404068352478,0.2038944795080436,0.14381512282186104,0.6792222695027127
0.0577699713187044,0.7945003633094252,0.02768811515809014,0.09173598941487246,0.16630047669679793,0.18349961189990957,0.12493644162994809,0.7597448054798382
0.042964960370490496,0.8243852327916952,0.008293502414114728,0.07168681471109783,0.1431302103789763,0.17818574844888704,0.11242324144980877,0.736152525746209
0.04067836772768889,0.7645714147100672,-0.004464688561960648,0.04863930746625347,0.12409091695247465,0.1394382836155968,0.08049308306253831,0.6605567884077223
0.04585230202975104,0.7737929899246572,0.01101258696941856,0.05663309301188758,0.1443585631713844,0.16273997297380305,0.09141131160915858,0.6440688938455097
0.07594094880130452,0.8099423354165586,0.043568685282737205,0.09964511234061091,0.17746551232728766,0.19618402195018517,0.1653677518964702,0.7045670499729141
0.06040944083827746,0.8386552311329126,0.039462485866955985,0.10968697281820677,0.18292060486265974,0.200551032617309,0.1497530893998013,0.7599308970545235
0.06082556781652755,0.7820901854478186,0.01652994478075811,0.06980458024559165,0.1660128548550189,0.18695561235841762,0.11043741654880987,0.7590539377753193
0.04704670434930649,0.7489702642373802,0.002522180304586136,0.05540843908460362,0.14151586818949527,0.15361220264970843,0.10187646421300692,0.6534949669659613
0.025981084280606997,0.7278187045866227,-0.014245219327132791,0.041046028251268046,0.11652826804868545,0.12668210952769843,0.047771150368686496,0.6376797908182537
0.056991844414398696,0.7538521282980115,0.03443294478316422,0.10864595583012521,0.16548197414602,0.1824576720742264,0.11680442517194671,0.6898730949815632
0.0797913909563416,0.8040914650171717,0.06110717770044064,0.11871994919335026,0.18357341807407554,0.22441756326244677,0.16669947676376656,0.7634072944695047
0.0725730093395567,0.8000147908122723,0.06687831643866107,0.11816714621832058,0.1943939010196296,0.21793593967412717,0.16913143972014075,0.6972697417654575
0.06224492475610041,0.7679010196029113,0.04426173067136977,0.09778977891847537,0.17905447958211457,0.20216803755843007,0.11882047441602211,0.6574200884759257
0.05633137750994702,0.7311910120401045,0.009847860858047338,0.07923228364395304,0.1575479678884706,0.1707988722031372,0.1053910266689765,0.6923431239879335
0.04020203223271369,0.775043396788869,-0.012256536728227239,0.055024008910701194,0.13321651601362164,0.149389000110924,0.06253690956761442,0.7416395615697928
0.056586642325350184,0.8099280141415305,0.040257825783425794,0.09152457925007344,0.1698084212922589,0.19880783212108263,0.12864850828652016,0.7453176825360779
0.08022941107354524,0.7891449963000684,0.06725670636595361,0.12205542980004344,0.20020954774561525,0.23013857355975367,0.171467911515676,0.7092864767978054
0.07266893066222244,0.7686368524837274,0.059213304117183715,0.11935328748661897,0.19439847056762202,0.22462394457304974,0.15841473596928632,0.6317425860254765
0.07117057148905084,0.791052344812936,0.0439627999518886,0.09953262116825005,0.19453497514291765,0.20493265124143853,0.14741628346232882,0.734180088763235
0.059207566784994975,0.8108771890042811,0.017276529652452636,0.0871767646651442,0.16784157550984274,0.17923353708851122,0.11642757011184428,0.773899067914972
0.04176671630415324,0.7673499260592139,-0.008872043559510765,0.04189022285563126,0.1302253595486866,0.13933210704431373,0.07082488533254755,0.741156726322465
0.05507281797494358,0.7583109225843166,0.040097947284423854,0.08643355908172307,0.1585194946703713,0.19362010292315582,0.13580912006252993,0.6633117859845968
0.06016385811119476,0.794223654294273,0.05305678451092715,0.0954088174050424,0.1955808176241485,0.21656131033601178,0.15245763763856318,0.6462389879198848
0.0622362318256824,0.8001944996262251,0.04027017510730276,0.10685940584165908,0.19439907698258221,0.22049210690147464,0.15543054871661344,0.7314092252573297
0.06321653561771662,0.7639667109403556,0.03391028000675823,0.08982336644823447,0.16610213452244235,0.18785184084339063,0.13166392687722964,0.7265905938630108
0.04115116610267154,0.7774508428453026,7.045319252347282E-4,0.05945964813438515,0.1595854764222881,0.16515594191435062,0.08558336341133801,0.6919941355777952
0.04373352349411254,0.7283204198388936,0.015591423448536312,0.08503658915410017,0.1617632266586919,0.16611692122690175,0.11025745110820695,0.5982568909616217
0.06634203477814143,0.7925032038062394,0.046459339000882484,0.10866635225486534,0.18895668930172527,0.20970516810492001,0.16211918809141176,0.6357983928419625
0.06622256533574762,0.827296496303933,0.05561618650291607,0.10694916129309834,0.1913028332052464,0.22111993321967982,0.16020588938529218,0.7225059913623281
0.051185383214229364,0.7986075259785068,0.03481070787291485,0.08534145343552604,0.1724503998259779,0.2002712962394845,0.12898960810772184,0.7084471059546241
0.037976702867322056,0.7783403010695332,0.010765689392734508,0.061421300863917186,0.15466923494047605,0.16342967233570602,0.08865910616730385,0.6451951770867719
0.019462241684278934,0.7489911999218973,-0.015917983682943247,0.036714095589768674,0.12198883122702776,0.12463865518966076,0.06490565111672958,0.5948728015201715
0.052308111732464635,0.7509703376373228,0.0315691308125111,0.08186358558239473,0.17943870149555716,0.19244464201478761,0.1260027882658993,0.6137480213076696
0.05839799962415984,0.8158058513701464,0.04648919774043645,0.0987153481692354,0.21544598109232474,0.2167103387806392,0.1708774143291052,0.7452961718837333
0.05903749978742069,0.7970396602512257,0.03623896612884132,0.08771294546964499,0.19725895745324984,0.22035231130607996,0.16193299890596283,0.7133973038719472
0.058908466996808906,0.7501712320117135,0.02045653500826642,0.06464929101916837,0.1803078056941784,0.18596451185797627,0.11883853380544115,0.6617569065746972
0.03633103526734401,0.7596781302618908,0.010587658918198406,0.04018303201972161,0.14895547320862282,0.149370473829623,0.0952356645769195,0.6398392138904894
0.033106863292935704,0.7344161090927179,-0.023090327549624107,0.02652963701166351,0.14195511285504916,0.12964155661900523,0.06351326447606452,0.6801369669697569
0.05970082597082963,0.7935215991762548,0.038956935662639545,0.09658030972802817,0.21050506300839675,0.21708942066580497,0.14567129226743009,0.7348473531976173
0.0578302434547737,0.7815702158217671,0.06336638772122233,0.0999492054654303,0.20882558989279743,0.2132500834116875,0.14247531665640897,0.7008792235885264
0.05746854120294302,0.7518572853225594,0.034818660783495735,0.08351727646367617,0.19571368139622142,0.20356700657273943,0.13905931708682515,0.6600822013826753
0.05163097367064045,0.7458042679544454,0.018574614533785623,0.06573448621390555,0.17070514942463397,0.17057920726943498,0.10427191745040185,0.6941187897683329
0.03507687420558033,0.7624491219629271,-0.004529074010973359,0.03398168615062472,0.14698124666063941,0.1402510246915484,0.07459422665805006,0.6970286934360875
0.026183590227231025,0.7777315672830393,9.658178501415036E-4,0.02744653972742275,0.15663761115095456,0.12505109521755003,0.06156249592858137,0.7450722489087712
0.05411130341238337,0.7859817136242905,0.037583425346038285,0.07739523583277882,0.1891287616603044,0.17211917148142705,0.12483060980617433,0.7329575445679198
0.05366841014068164,0.7834597752093956,0.02717021292321493,0.0763787736132299,0.2029649177582233,0.19860053476661624,0.13458204031120777,0.6239097324044208
0.06318726894444886,0.8110261594403322,0.007689769647204383,0.0610427601224359,0.18665333036139917,0.17811567921383156,0.11095922739393509,0.6966939818365846
0.046034309953349006,0.7771264690118506,0.001729979238915454,0.04976333016758141,0.17159177698651634,0.15494933178196443,0.09227575332086259,0.7120851386136087
0.029635677814942234,0.7766539316718493,-0.03389461438555483,0.025683804542008058,0.15392529608725844,0.12444847290990751,0.060575272808241175,0.6738114397557402
0.040659574626176205,0.7801962863993684,0.004745078331103718,0.054296832280298274,0.16876594967246047,0.15624382075584203,0.0878931590157769,0.6281424969488758
0.058880466662418245,0.7691589851059346,0.021694551348041425,0.06398894658306192,0.18563196572418783,0.17486471292099723,0.11385820171267445,0.6059632863878586
0.05633304606042597,0.810955447386757,0.026687271647021414,0.06472644207029364,0.18228489328290304,0.18662480642092263,0.1139678929911065,0.6713529125904165
0.03742153565057556,0.8005761464256526,0.0032839367055010854,0.05350013262421149,0.17340050223229161,0.151446724885469,0.07520390758672682,0.7196209946595058
0.022435129094720885,0.7427420660862785,-0.010039943436526493,0.0202529666608172,0.14926829829461982,0.1164307499875367,0.047109057236335926,0.6247602856603164
0.02061909529066523,0.7716826449328026,-0.02157673786630449,0.023902712998312068,0.13990439285985082,0.11924375234256523,0.039798873960601534,0.5565631620031832
0.051072295494100285,0.8062234122502961,0.026015458789521204,0.07378107405478777,0.18684662101672983,0.18107111396937317,0.11159474254113316,0.6403640224231716
0.0623077136852086,0.8094973557599255,0.024838346755826406,0.07988161667260092,0.19677090174623793,0.18752134795835682,0.1285671710167124,0.6902144168044008
0.04200680227117518,0.7801584134572509,0.017131739862449147,0.0771378228883073,0.20378713387369368,0.17509334543818267,0.12293256938411018,0.6479142655868992
0.043021903382320495,0.7920076715919345,-0.006447933785108196,0.053098815521947146,0.16603344175275783,0.1517789406995547,0.07865894059996574,0.5799963438196825
0.02655918496155758,0.7130843889250151,-0.007981799447006414,0.021074030814156455,0.14542513786671782,0.13134935746015752,0.05751076198410719,0.5994252552537642
0.030935296607217666,0.7667871025963153,0.002131730517311245,0.034902309903839544,0.156657643586328,0.13679973287417932,0.06855542449331004,0.7033103343068176
0.052751961301159174,0.787687977687512,0.03384557253592207,0.09443573748891936,0.20525770663730147,0.20854468133599288,0.15160429273370282,0.7155922149519603
0.058185677000456966,0.7997642344647111,0.033356814478698114,0.09790765309493349,0.21626414692145712,0.2193044681408985,0.1603693449294903,0.6832841595754796
0.05017272094498157,0.7605190736660701,0.025676021402122322,0.07023060561548378,0.19666694770675375,0.19788590978238593,0.13878917046457906,0.6670410125273267
0.049370305441635655,0.7690170133895122,0.014077817959837795,0.04294489359145441,0.18975059974849223,0.17919521955855977,0.11030424235994728,0.6836919536805385
0.026425419747944556,0.7312534578221404,-0.00455002212032909,0.025351061446086304,0.16459653337775174,0.1504656415726018,0.08133050385207244,0.6964259910737786
0.04746904890429896,0.7568115952663959,0.010143808215724992,0.052427960101216205,0.17981060950585906,0.17298801571211278,0.10367894619014922,0.7226920598051023
0.07236300716290271,0.7866777209513706,0.051201913659334485,0.0869937961682479,0.20501416765521793,0.2180679870168983,0.15127653822509882,0.6351679992062654
0.0600682327825982,0.7791595702984472,0.041480470487141055,0.07047038912739957,0.2119942197278899,0.2104397397636158,0.147739932721065,0.5634287277165452
0.05401079820997968,0.8016315045823075,0.024406299847908985,0.06936010944789474,0.19319448761518587,0.2063511593565461,0.12883916829754644,0.5917324244791886
0.048921315987448866,0.7825155838964443,-5.37652904939347E-4,0.046874609728628225,0.1759567172398692,0.17981669066900516,0.11327390380719522,0.6421304079053474
0.033341027652646626,0.7823675969675074,-0.012573096741185985,0.039944607881407496,0.15443331650750208,0.16751442307343534,0.08658047291791342,0.6001423601842637
0.050936545089488916,0.808994996184051,0.020622593738851856,0.08567789211164027,0.18641987388229486,0.2060852133513116,0.13814293118247895,0.563545165571912
0.056629580938288196,0.7779453306109207,0.023920925233598348,0.08602411150104813,0.21113139566164354,0.22427287330077111,0.16946354489683282,0.5933787038944878
0.06477864951393798,0.8025353064251841,0.029530647839589277,0.0856870839479742,0.20500920544329565,0.21532053901494816,0.1576786987422679,0.6711288480316371
0.04898413768582561,0.8004817643659059,0.012262800982419275,0.06507225805761076,0.18546516006087865,0.19564590949384683,0.1338958161822242,0.722874141039472
0.04520061929897316,0.7608417178143526,-0.006972699586234127,0.03230464540475507,0.16497050752954412,0.16945457067230166,0.08468829509740054,0.6863417925022882
0.03247845037969975,0.7268587218098224,-0.012308449419687749,0.04045002323574651,0.15098398752415199,0.1633869859162267,0.083042324695339,0.625600883754117
0.062006177580266504,0.7745404951863389,0.03076135268020557,0.09154568551068983,0.21062172405548402,0.23336125466552365,0.16003886621106966,0.6318270183337489
0.06763620746305025,0.7641317754816778,0.04139473494028533,0.09477978713665058,0.2270259003977305,0.2475246464131743,0.17730980563072463,0.7376801812940242
0.06725587401845459,0.7316306418181204,0.04387071352231891,0.07236763101137424,0.22506820391199733,0.2242432254374857,0.14882584486094988,0.7471769990647789
0.04829567220197892,0.7664411693775026,0.015039719985244402,0.04903930886366666,0.18895682023564642,0.19912493176109755,0.13075977109942644,0.7151139489335578
0.040510234676470185,0.6928928659700622,-0.012724713629090811,0.03204455354379479,0.16685340202536736,0.16866094857956207,0.08774242670284955,0.6744243765531956
0.05025222713586351,0.7211732673448398,0.009114349341313312,0.05504099783758365,0.17200307610564627,0.18594076923313876,0.09346108618325637,0.6717812605285642
0.0877926298230487,0.7946858694063579,0.042595277556245995,0.10841686701254696,0.23542313053041491,0.2298264686333284,0.16122155394413903,0.7238819644827446
0.08781812305210317,0.7901379566211718,0.049348984338703696,0.11338087842795878,0.22602288612307742,0.24776446606051972,0.17393798528592652,0.6924753713170689
0.08119979500626397,0.7274442092039402,0.05083340801930026,0.09932432908438943,0.21690662660360732,0.22368627998363275,0.15632542888848452,0.591538770659362
0.06752205962938251,0.7325590786414679,0.01848825880170302,0.07081987529859239,0.18408596288844817,0.18905063085953622,0.11597025150063389,0.6011783010186816
0.056280162254471265,0.7244525973073115,0.0024558116312358097,0.02602901884415774,0.16411945783173265,0.1556828068329761,0.06745572502042065,0.6938763368951368
0.0652521582692873,0.7275598898423158,0.032749064662117675,0.06272592759500174,0.1786556314416302,0.17385096734236644,0.08843220940579485,0.6984837677157
0.09244956614764094,0.7708500882022381,0.07394043546760978,0.1084395697976081,0.21128931663856734,0.227880391412403,0.1425298977114802,0.6729200881113288
0.09463448461210326,0.7219280190774765,0.07029222471454462,0.11463260770416654,0.20266765782044055,0.23108542866869736,0.14333957592494434,0.5727489643088075
0.09717249932007635,0.7088897009449179,0.049885542535301565,0.10615452488452055,0.20285317011516815,0.21902712722998732,0.12348052843468801,0.6257609504673958
0.08046665286873715,0.7151781752129366,0.04569697023225761,0.08201252809011977,0.19974254347380763,0.19866125586755196,0.10806155151418723,0.7128677971648032
0.060876209449366475,0.6908344287556685,0.017640779744360315,0.04890489266006476,0.18143940284210147,0.16474069342715414,0.06889406375483714,0.6829007729809439
0.10144224796016486,0.6977251227377997,0.06830082122112245,0.1127331881598616,0.2181919572779436,0.21637110870737875,0.11982515081238573,0.6378404007046203
0.10816279111835937,0.7025336122979955,0.09034085916489588,0.12013407463053329,0.21747457345431934,0.22921866376478522,0.13494241578354924,0.5660094673888361
0.11188030669746206,0.7386413733449064,0.08161267474818452,0.11705480913226701,0.21624032343024732,0.22469663684146332,0.11905035188005211,0.6439837781184311
0.09582584337803302,0.7527561054854662,0.05161170386193604,0.09793918211651775,0.19426579161437224,0.19642979669330907,0.10639443157365856,0.6820625225593397
0.0783602250242174,0.7293484535602138,0.03074654952676867,0.07154847498112797,0.1687226565327587,0.16177059674557479,0.073734672796588,0.6356178648341002
0.062270527922550015,0.6553660578774875,0.016080419799513676,0.046087299930707225,0.13307844221941814,0.1417170010043046,0.02847203634935708,0.5717671245306578
0.09852329720536579,0.7113160452694106,0.08320057786215229,0.11257278860650026,0.20459621358359562,0.20983725290630847,0.12557704282041085,0.6053696345605584
0.1139497112710769,0.7624852868862091,0.10078851016448251,0.12655885764924374,0.23392710212182172,0.23991175722133048,0.1381681783150683,0.6848211197475709
0.12111096336224833,0.7418398831428571,0.08772616442262451,0.12315977979441155,0.22243455202978865,0.21401659403335532,0.13378494665583504,0.6595483419352616
0.08827297292817474,0.7024740295757819,0.05627320911285523,0.10005217792705952,0.20914657135016076,0.20004793279400146,0.08235521226786638,0.6122104543158114
0.0782479270948295,0.6650440899641076,0.035458673311441806,0.07449349250225734,0.16183716932953146,0.17467722236393374,0.04776819256858203,0.5555346399945833
0.05389048513791175,0.6777211138792151,0.007978557040012815,0.051747949131754054,0.1444733453380197,0.13316090177190154,0.015213898768747165,0.6338357714090399
0.10495696293859473,0.7502263470183536,0.07873803257922855,0.12005274098848466,0.21338519208025783,0.2178007293588238,0.09554794494042111,0.6880993151539437
0.10130966652898671,0.7535393857591475,0.0778277121707705,0.12670316731535172,0.2224132887008296,0.22592898441471054,0.12369892658047447,0.6758593815930826
0.0951219203171846,0.7147781768244004,0.06856974002100995,0.11609183349527993,0.20462998238024316,0.21801174406658927,0.0910905387775449,0.6188739709598601
0.08810364858721556,0.7074908278368419,0.05825567712592654,0.08573834553008801,0.19756032281867555,0.1867373015065203,0.05910766263124005,0.589956159977563
0.07016694850542882,0.7019483411348101,0.03596511240352708,0.06589616215704748,0.17102409073307254,0.1607464134610081,0.03889561849505335,0.6262464673834791
0.07614605377941602,0.6929562417379759,0.04999424636671665,0.07502468155198307,0.16716626154948708,0.1704269722982737,0.052402388427217755,0.6853492005917527
0.09828051747888386,0.7067785059603663,0.0743910087653184,0.12846693410629123,0.2129949962667218,0.21196642975315783,0.11863487950745136,0.60664869126927
0.08628258738839129,0.7091476170983784,0.08797529753432556,0.12881119924780637,0.2013068006882736,0.2023126215648836,0.10028732110539304,0.4906022890740949
0.08002749093079416,0.6970892093926462,0.049228264428653856,0.10499395255776173,0.1768720111956039,0.18802216431037994,0.08659487278043966,0.4943913733384654
0.07584380407182952,0.7091519876953282,0.031648822321860504,0.0709131354617593,0.15541229422241773,0.161431965734056,0.05011930434920699,0.5747863667415056
0.04044291258782114,0.6304573195902174,-0.004555924023324796,0.03889091952376646,0.1334453616774957,0.11667489114155781,0.014126592542380705,0.5527288695396977
0.07014137165923462,0.6710509183660295,0.03317028574851691,0.08030225721228279,0.14575839111227823,0.16512884890553078,0.04026491635310101,0.44323760985449634
0.09274488942183048,0.6989348253345613,0.08138601962268442,0.12938009294784625,0.1960851499022423,0.20448456003972512,0.1079339278329579,0.4074738876720959
0.08654055076473202,0.6760279259777412,0.07629355838420053,0.12778260763056276,0.201484781642241,0.209679038074004,0.11009734096688926,0.46328718663292695
0.08431273428074304,0.7524313735608075,0.050663463202097046,0.10450654935081928,0.1949562964618089,0.19689492820427543,0.10700047687673134,0.5619718865836445
0.0709101136351458,0.7445072869049347,0.03525772375390527,0.07550242513232029,0.15514225949375574,0.1577516896291001,0.0658186947895822,0.4329677897040234
0.04196449760018169,0.6691188581660452,-0.016313768727539167,0.033727318741218586,0.12668373270605204,0.11971364255233558,0.027236699676970164,0.3896912267274478
0.06725693080991044,0.6773989252911089,0.02836208714517806,0.06772657301479545,0.14718324433740518,0.15314942132332393,0.061901619549561325,0.44613588715033436
0.06940531583415267,0.7323096977470742,0.06362957205359199,0.10356547392489451,0.20048181627860331,0.22552990844147733,0.12418051049690028,0.5334330425087533
0.08197107095433538,0.7181166001377832,0.067357256398558,0.12184954753974993,0.20759255932946646,0.23640830253660283,0.13467771213359483,0.6011554643493686
0.06938960723160213,0.656167488254776,0.04137479558653849,0.07324886297271375,0.18438331455557264,0.20406673227989366,0.10104725706554964,0.4554277059284863
0.03892176386606387,0.6104548765603736,0.01745789021082119,0.044533888220021356,0.14635482841588351,0.16305848196353043,0.06484460256959151,0.378786937728701
0.033624153887951945,0.611933517699892,-0.003480299136858164,0.05344928985280966,0.1517974988370622,0.14324037501262712,0.048946354880239865,0.45495416161374463
0.07155181601311496,0.6998634792480962,0.06049518127321752,0.10686342374277948,0.21255438685695668,0.21976451734594807,0.11464637176554995,0.5321402308027996
0.06158029153699274,0.690679049263176,0.047986816014869545,0.101626816676885,0.21389052170030554,0.22015046282036743,0.1235315655561611,0.4751825977533105
0.0485829458880255,0.6436843082115722,0.03900301355570766,0.07871278487699576,0.16872237453751912,0.19519196659867621,0.11821380553305914,0.3979496816422727
0.032546161379124756,0.5879514981180091,0.01108179884901879,0.05357909677263866,0.1564794259315851,0.16211752110350267,0.07772738334497055,0.37946025376629855
0.019093791100656825,0.6046795578660978,-0.024173039785295766,0.01718848313509039,0.1447968524777708,0.13000961144297507,0.04621934088002652,0.4462578811161179
0.047076663074822216,0.6621742334835854,0.011326705992197513,0.06160986786296005,0.16426781977202048,0.1744812041158543,0.08979479346654846,0.4643449037188079
0.07413125695419641,0.6804625842781861,0.04924817661262924,0.09769883465789395,0.20115289857019486,0.2280364336973716,0.13780678321504597,0.4609076682466335
0.0569850503822273,0.6379846747901188,0.041904205584038026,0.09185575426429551,0.20154767321231135,0.23831713194439733,0.1563486931301361,0.3883633055322938
0.05883666275916633,0.6320465676602146,0.0246482804408556,0.0666587560283245,0.19071630318295227,0.20671654844600393,0.13292715836521024,0.4601485377469521
0.04143465377821217,0.6556081393999665,-6.030855429617293E-4,0.058599059254361256,0.17560948189365194,0.1947267537743814,0.0958994426443898,0.525418677824999
0.02088836762967731,0.6864389632074983,-0.031028077920247435,0.011618533435083945,0.1470373158009826,0.15429398242022935,0.05229863926997691,0.5414626395208051
0.033537050963771034,0.6544272661564889,0.022258315034717795,0.0740040774413668,0.180362259557995,0.21303896466952418,0.11950706289339272,0.4657477969667571
0.06481489006613175,0.6545163682391838,0.055850940777266087,0.0952796795922868,0.22339616265314668,0.24521986141780475,0.15998141858572298,0.3960960409661734
0.06235205445189969,0.6495804512037407,0.042714798796621344,0.09821922071421675,0.20943524395212537,0.2516364335274068,0.16095796914961852,0.47848446097896263
0.046953783574522096,0.7186410759072761,0.044686016451385466,0.0796489046790196,0.20941784621124487,0.23020077492707097,0.14408168481344752,0.5701042936761533
0.03850689890699427,0.6480513943765479,-0.003725058793092411,0.05484752463358608,0.15668182782061035,0.19480524322693427,0.11190657522644053,0.487337599434988
0.014934171132170397,0.5864236727449262,-0.03739208918169015,0.01475438756280599,0.13264017056455152,0.15334336343385174,0.0626790546096741,0.36926131800219714
0.0559769808948446,0.6495422905254434,0.02642822591487844,0.08439918477073502,0.18282202174238577,0.22030078323538718,0.13715401260488966,0.38440264608170593
0.06729925451025535,0.6818673326718165,0.0538798502676382,0.10756178772901798,0.19572097842304925,0.2590950419809628,0.17030467726465706,0.4613005199384787
0.06615908950776755,0.688461690685084,0.05237779043298912,0.09874947029829347,0.20400872484733337,0.26069098486399417,0.17838696928281814,0.4752183647717676
0.03763516503317786,0.6686079856349115,0.015034946121405374,0.05784353133444649,0.19056574997516612,0.22876723579738922,0.1470328544216777,0.46988640823240346
0.04840941342908077,0.6536800279829562,-0.0017737732039331544,0.04429090642506976,0.15886898973487323,0.19613829576581315,0.10319184258714842,0.3986813391240346
0.04416209634304498,0.6618107065982952,0.007796545909352574,0.05906388321960505,0.16699133370086658,0.20656667254872804,0.11493580274307863,0.4021380533585146
0.0650660181431958,0.6837252975799364,0.050722256728795746,0.0952422794372157,0.2043707179379636,0.25124595963681123,0.1805897465809883,0.5236552854575856
0.07841074351252375,0.709968214308646,0.0466733582798736,0.10993637725187431,0.2116334277184431,0.24504350154141244,0.18516509365454287,0.5077255033990347
0.05889211051229719,0.6913005917467566,0.022487076410541332,0.08226946910185176,0.20181655104118074,0.2245850214858384,0.14689781842775568,0.431426115319357
0.04006164945779348,0.641922421969847,-0.008434944832597649,0.0606983882297633,0.16547517956994007,0.1948953643867215,0.1152397091383202,0.34805279919907695
0.020095737138163393,0.6577448839933184,-0.023990049361078916,0.0273206381115681,0.1304682385098889,0.1717321246631041,0.0810598872368521,0.41307268858019053
0.06865991311601365,0.7025239948728255,0.043243672526334355,0.09578365194644997,0.19627798797857274,0.24196403916894857,0.17046506859212274,0.49054689386354294
0.0717749724176951,0.7258888375776313,0.053760755398497034,0.12195372343053446,0.21452338395473203,0.27559722377711326,0.18616611841272357,0.4944396764314284
0.059228859217615,0.683149735104132,0.0383582075654715,0.11726652300088254,0.20490350940823304,0.25204367505377057,0.17551456717348077,0.37607500240504604
0.056478258278514784,0.6618191402763384,0.032840167930630826,0.09840300624990411,0.1899789650314397,0.23935253945153434,0.1465070002892854,0.382481165339267
0.046797345582175194,0.6517697841236966,-0.003848420943219095,0.05693229600797563,0.16403464454547176,0.20927156981350564,0.11563207872880067,0.470895417422568
0.04082176774117596,0.6880056913299747,-0.012974134512493053,0.04338386833701093,0.14306895893607666,0.17309573428141453,0.08499654308985902,0.49768827655386333
0.07219657579524734,0.7462087351616469,0.04676174981924842,0.11494223113842238,0.20256672151951557,0.2545163238784571,0.16040828744643656,0.40587989729053536
0.07524082829657153,0.7330459291550349,0.07129335274472175,0.1347262758133146,0.21466814388663852,0.25421347868369154,0.17817341128190758,0.4100353372572266
0.08390257295007042,0.6851742525092007,0.06929676016806294,0.12121698616782957,0.22055536123812744,0.27052710522646156,0.18402757661426147,0.46347632623599516
0.07475798673354038,0.7079515645520984,0.03802850838631937,0.10071421836094749,0.19227125129141934,0.23673670023222512,0.15537207360366267,0.4560342135649483
0.05941852960576608,0.6872672181661836,0.022988451366309247,0.08139451922858487,0.15799468615722692,0.19417140443124317,0.11952061030850786,0.46283063697690374
0.036359299324755845,0.621219560241574,-0.01170758504801895,0.04512671037735547,0.11593838794880461,0.15462334514797513,0.07888314388293254,0.4167409223134476
0.06083973414815303,0.710209010515175,0.05021043557736301,0.10628473545064114,0.16855037500298992,0.21606868387163,0.13697329502658548,0.3995265588968124
0.08185465845084307,0.7182715458700996,0.06263209227607722,0.12490065424446271,0.21289951788381356,0.24663667117890242,0.16698865669967594,0.47616238150345813
