0.11439915818834946,0.5709723724045921,0.1832000041435916,0.17561087544807033,0.15157274138483576,0.16647153779566828,0.158465102603301,0.7049268508794702
0.10439062437740991,0.5850625636579498,0.18713373924282056,0.17434515429529726,0.15170386631034463,0.18271970398887763,0.16105025781660962,0.6881116961183105
0.09416512991727546,0.565328947451072,0.16160934252230164,0.14678606866773572,0.1437331388100653,0.16229878414160717,0.13728393867828276,0.7003909100400325
0.09228610418511886,0.5368477530725497,0.14060021477669293,0.12704796861503678,0.12181564159956125,0.13410227196644592,0.10976174710159275,0.6843364427613933
0.07311622704594782,0.549387206730588,0.11758309804112402,0.11232268819800757,0.10517530987267835,0.1226556593823025,0.09632132758286441,0.6745664330228238
0.10314049096052173,0.5967774910678627,0.1821809575648995,0.16421444842983068,0.1551689754717266,0.1860273386875887,0.17662292708105376,0.6657779307652264
0.10862313968431538,0.5621091028067094,0.1777595974467857,0.1684153321380969,0.15795610805786725,0.19700846037395048,0.1735061136406984,0.6581292512926815
0.10026478802799607,0.5495515054824494,0.17335661297786564,0.15597853528869066,0.1535460011957096,0.18612034517048398,0.16662944554632456,0.7109685512468265
0.0888323289647888,0.5463618801291823,0.1460381601560676,0.1275855577080238,0.13812886028067445,0.1634467942432217,0.1366891279683817,0.6971735213469644
0.057982582048884124,0.5439779367053458,0.1061177687841322,0.0968397613676002,0.10721153413374837,0.1250896079347782,0.09992990852891127,0.6859286278623046
0.06236375098632026,0.551020976132521,0.10730157214221492,0.10037072672526787,0.11016149676650122,0.12518948714219047,0.10076552445521188,0.6566847984647789
0.09796218559606203,0.6288729608485452,0.17479023568436505,0.17364156248770146,0.17348265297448998,0.21553233405824374,0.20013092805243665,0.7446293113655156
0.10090711317833037,0.6139307233162143,0.18803706726571107,0.1754863915799361,0.1869444378363416,0.22353988190973967,0.21679769999395943,0.7495209470459561
0.09415088883904879,0.6303090659886943,0.1719427141748472,0.15605803085140849,0.17966952033039021,0.21780641853271074,0.21086323877707913,0.7335048720877608
0.07578348087529402,0.6152823740193654,0.15231961738772276,0.13123241043380476,0.1553159486218146,0.1843038919511325,0.17552380745562607,0.6772908158236757
0.06110108930979915,0.5668383064194378,0.12268613354130557,0.10694976071699003,0.12588133326521606,0.1543184976415805,0.14975555327187504,0.677487933345985
0.05443898821059597,0.5703847838659442,0.13388593377162727,0.11535445156914893,0.13832681554022452,0.14858371468477022,0.15470932647129498,0.6804404164921884
0.09705144392448914,0.6286590827306534,0.18664554287335833,0.1634365599776802,0.19187035698488467,0.21627006574090102,0.23660394992534517,0.7276368787382732
0.08617970260812734,0.6274220386988546,0.1708537979257722,0.16100860660055902,0.19474768369060702,0.22298277706927067,0.2418228719609718,0.733521409024051
0.08484921219925368,0.6252587884385797,0.16138886275479503,0.1362190758356472,0.1811889104320037,0.21637948250454303,0.22651215170058375,0.7140507535751832
0.07390454139173706,0.5980408656256467,0.1280962117584145,0.11742871691438445,0.1664364321071098,0.18998836205248648,0.19552964720096722,0.7678737591837816
0.05525596118464081,0.5741322992739004,0.1075500922950248,0.08665725228277651,0.14346808586023949,0.16548919689869906,0.15238886189952652,0.7203956283859654
0.06320864099715473,0.6204573815422054,0.12284145575833796,0.10926083305431317,0.16516462199376747,0.1892110316963009,0.18877588218415242,0.744474806676937
0.082719395328925,0.6306990317957473,0.1430924746683799,0.1262911236650771,0.19276092442268175,0.22743798635778326,0.22277262210118312,0.7100475780553365
0.07648832143749476,0.6207314466251622,0.1434902003342918,0.1296042706600293,0.1781931533818336,0.21854247344310807,0.21841598878127833,0.7129809391574785
0.06415823540030136,0.6065774498585677,0.11676535639154487,0.09723272051606503,0.1645661010927939,0.19775468985041408,0.20313063059372105,0.607631242725318
0.04593659033017007,0.5898181763922626,0.0934020999996938,0.0769668238808033,0.1372161565234528,0.18336774244399642,0.17616638513123167,0.627748640912495
0.033078430379639714,0.6306345597889281,0.09312346426664816,0.05220871190654193,0.12182795360816684,0.13584617084544837,0.13682437462668912,0.6046989300551018
0.07026477576119759,0.7036198705211888,0.13209508447388654,0.11152267111763345,0.1711614063312607,0.2035272096690091,0.19841205694052627,0.5813137165614779
0.06498597724169049,0.6303606711479371,0.1382186794855389,0.11338865404983142,0.19403855105887916,0.22143222332780482,0.22596528356282086,0.6235149176866219
0.05789297303861124,0.5641265430834391,0.11387159612025831,0.10658052045121261,0.20159950551220368,0.21384076146379982,0.23035267789004965,0.6838688221794316
0.04589010088355918,0.5633521768516756,0.08846222795890099,0.06999111771324484,0.1791261249204591,0.1979071679361886,0.19405901556094923,0.7191490850384894
0.04288159310678503,0.5470936444373914,0.08258654173784347,0.0643955010487588,0.15609395905602527,0.17332002892286785,0.17134880625561916,0.6911536566866762
0.039966280382405524,0.5512417616900857,0.07280795971259672,0.043847987434588245,0.1541017835932807,0.16091145027642745,0.16384192510756296,0.7122204491185368
0.07085514050054695,0.609389682697428,0.14269253417391897,0.12363519321217763,0.21186206060838736,0.23008604456448628,0.24457788110643752,0.7477349632121378
0.07522718751436624,0.6027274985242586,0.15013632186468923,0.13718395459838956,0.2297374384648146,0.2566136753753367,0.261573435647784,0.7436308433051874
0.07001884862967273,0.59832583292863,0.14039057293571242,0.12322335701691889,0.22294036705765075,0.2382599641560546,0.25802138186992407,0.7375237037366746
0.06778792196911526,0.6092653400477658,0.11116860953693583,0.09199788295373856,0.19779982560122733,0.1933839640010382,0.22173741995273322,0.6574005372292752
0.049243678718916,0.583614001084953,0.07634698636281764,0.06134389825973553,0.16185971362692994,0.17136434164401887,0.17535303072822664,0.6499059542783134
0.0416989735721366,0.5938479619858281,0.07484369857020867,0.06619460656105901,0.16161828790928595,0.16711671367162195,0.17900250045444246,0.6173095372506167
0.07213412276828432,0.6132038067843523,0.13144040431966164,0.10569065463657758,0.2176954503079896,0.21564880609013062,0.23584334623417136,0.6738738400565522
0.06577817777411879,0.6035515053736165,0.12344089599860938,0.0890418011869645,0.20509273550720925,0.21040637478896954,0.24301355155650572,0.6636597157916208
0.059670761856971746,0.5968186313154975,0.10431581628645861,0.07429422595797655,0.18931610403717772,0.1928539659548966,0.22019196042357844,0.6353955728482539
0.05573553737186009,0.5978409786324275,0.08846982443242371,0.04287798870149254,0.15344766250859188,0.16997088314830672,0.17512375341216013,0.6635444439268801
0.03564488863275384,0.5871238387987608,0.05700192570594225,0.006206642812868646,0.13230514911206676,0.13203666490758645,0.1411379831841032,0.647627377398259
0.04438226352561038,0.6290082602371465,0.09187584285485653,0.04562951242489879,0.15849724559022804,0.16473558403303123,0.1832332778393484,0.6525665737242882
0.06328596229898603,0.610747205998777,0.10907083380709509,0.0645987719336474,0.17735955503760517,0.1906941036640854,0.21179802988449992,0.6367575746662314
0.061804879427300584,0.6280987304891668,0.10340773903043018,0.06535643963191204,0.1643103847855195,0.1896403777159348,0.19891531740470053,0.6513044529491967
0.05346802936579592,0.6036293190810065,0.08339030413142305,0.04253604819940482,0.15192191935518412,0.15292853186418157,0.18021188348140216,0.6590203099507339
0.038057076213219306,0.6201960802486927,0.05557109401158385,0.02277877743849084,0.1325390228913244,0.13001133994271993,0.15182933024737116,0.6397726846755407
0.03537800281483865,0.6153347758267569,0.06825269943617598,0.023708185942390533,0.12645200727509906,0.13039718972453215,0.15651474247824948,0.6550883041044562
0.06299572492870312,0.6706291298197908,0.11235689889272679,0.07178833337921742,0.17337811358242777,0.1854354561471451,0.2147556763859753,0.6827278212453722
0.06411868240129502,0.6405196050020652,0.11007531130119093,0.06470877332735564,0.18303808912651554,0.1767736337494681,0.21341419509880039,0.6426519098691527
0.05288866404921929,0.6523476355426792,0.08730132673763827,0.04691658371771303,0.1447580157954525,0.15803307515478346,0.19189560835775676,0.6581579511980777
0.03883000965266945,0.6460263919368628,0.06980166134395263,0.019575272215308873,0.13230452789646135,0.13044919595613394,0.15778497348748213,0.6537252953886834
0.029123369365022994,0.6044164005836922,0.039553866618198444,-0.00403765212409048,0.1115868946139449,0.10306560527906042,0.11964225699020248,0.592122969645761
0.04380746259032745,0.612257753442352,0.0823039208903012,0.04514845188344993,0.1401848928236641,0.143723160649795,0.16330804790042164,0.6084768771819726
0.06431461290927928,0.6474364481844609,0.10763807705008063,0.07297083111016414,0.16924453782055265,0.19626133620083067,0.220803514261586,0.630139704131824
0.06138096008296523,0.6521642961229729,0.10976623421492301,0.06461017480318776,0.18033989594852284,0.19204056065573166,0.22797742380848565,0.6666051509549817
0.05999964099939727,0.6240874886304268,0.0804326690809395,0.04643523850529545,0.16151429207497076,0.16193810446299833,0.19549557138235357,0.6758307195759918
0.037973870271414044,0.603631910262232,0.06808715983087456,0.023687393752618878,0.13680347414577806,0.14471200800528838,0.1546853510134335,0.6797650810890654
0.02464935292708271,0.5799188461677353,0.03226364523105259,0.0049185199770945195,0.10797554483439832,0.10546664564990281,0.1251967631142638,0.6423046600622548
0.05481035295095086,0.6511124855405894,0.09556616796671177,0.06635871193516993,0.17155073877434474,0.17535479471232784,0.2031534134150342,0.7033080467844095
0.06378826817241046,0.6545301246953945,0.10883422680419823,0.08256156193275807,0.1949932040413193,0.19972602028463618,0.21926797131578596,0.7248022053176961
0.06414993629678549,0.6426037841291524,0.1077483030828559,0.07121384740086892,0.17921477493504562,0.1940627778041685,0.22030806574564044,0.6907201588759018
0.04395905215247066,0.619517953350267,0.0858974500840971,0.04426193765787783,0.15834696113692626,0.16330753523737476,0.18250480422400933,0.6891849447696892
0.03079255452754723,0.604740281138895,0.05976731981152713,0.020709927728239284,0.13718624958906903,0.1345027900089954,0.1468871836208585,0.6731358103677689
0.019159712456470124,0.6058116662929907,0.03593604824951882,0.004384973663736139,0.11154683875672756,0.1054509202136688,0.12396265112564986,0.688083295714849
0.05240348679668583,0.6875589742753729,0.09744331669651668,0.06444391570306054,0.16676723788488557,0.17593959012668015,0.1927599842106095,0.6970779652579725
0.061169455692301304,0.6742541622889779,0.10401932218533186,0.06325091808617983,0.17392837619831714,0.18058355054662947,0.21316200189460915,0.664025156910874
0.051784891078096376,0.6408732369446418,0.10268612863533474,0.05068229444873723,0.17073870621446724,0.17173540537193566,0.19348367509539705,0.681908720733811
0.050936039037999765,0.6400437992789916,0.06825514788705994,0.0334980580250404,0.14659561133789578,0.14782857632797924,0.15361420665646788,0.6821840609050025
0.03870112449261418,0.620476166646209,0.05132518653451331,0.013566876317449534,0.12499929021026121,0.11696401851896379,0.13386693539324987,0.6784106895482006
0.03378980698800321,0.6213026611132981,0.05204526356145384,0.01492532680963839,0.1251554758722939,0.11894056354483817,0.12824383452104274,0.65266741100513
0.05361891546141544,0.6481874629289439,0.09247761693474779,0.06138566607056932,0.16839692901383282,0.16671578179148866,0.18463172402371844,0.6658827829629336
0.04790520276695369,0.6281403625566953,0.09379112726177631,0.062310412928724496,0.16538194262010147,0.16011557845131336,0.16583859351001656,0.6779086005270928
0.0454203591318604,0.6358661845134685,0.07717295304976007,0.03131375612635899,0.15356242229838743,0.14709204190548542,0.15230773542565806,0.6840968531823403
0.030700973971713508,0.6133031519417599,0.056253825237300985,0.007586209793030492,0.12478865929256626,0.1136979960125781,0.12738720083909244,0.6937066450149639
0.018582440512385955,0.6035882649484012,0.02945244527799601,-0.011389577150656652,0.11270251567893612,0.09658166564323259,0.07434611471264423,0.7079965303720204
0.021195093483453255,0.5953639714345464,0.06190370390048422,0.017209818063766674,0.12591426584059576,0.12466783659278824,0.11792973924049954,0.6841094165890454
0.04750885657031574,0.6400259182151897,0.0852691082885915,0.05093218932889613,0.16580501351602306,0.1650314251295425,0.19199741289485278,0.7337332163623453
0.04945480029077352,0.6531434813419761,0.08764316335020919,0.06264315565329973,0.17209236111620047,0.16916462669962262,0.17640783960182851,0.7688564990555008
0.04643682239684103,0.6566289195074998,0.06423778388078952,0.038210710825507054,0.16241785527433378,0.14350442720928644,0.15069749337285965,0.7517798904758909
0.032996802630372205,0.6177650879758946,0.03927859130824954,0.005297786366744543,0.13275708958330282,0.11824039839710859,0.11319763608603248,0.7136560243538562
0.011903396963371587,0.5960993433409347,0.011303008584050117,-0.02196212760579716,0.10303824449756138,0.07740758816511925,0.07185477157651307,0.6746585307478911
0.029232424641264486,0.6337503455030009,0.056240083387038106,0.030530259585565673,0.13902298839032778,0.11955861698827268,0.13846672695860426,0.7271245466392651
0.04375005912147028,0.6839532133559175,0.07139147129313803,0.04673400341275194,0.16622645845612757,0.14650160200583615,0.1599733615268702,0.7195392336427644
0.04539281093752477,0.6796861408507614,0.07414120074750205,0.037970787882804266,0.16295234306520523,0.14570090691251997,0.16326010559443166,0.7467005956050853
0.031114037440375317,0.6663656453677891,0.05287733075653915,0.01736855406780433,0.13416490415995422,0.11351602485760964,0.13735077137514481,0.7027611135551448
0.022390890658078318,0.6304444624525984,0.024383980526927154,-0.0018976962683786916,0.10984406411900544,0.0887894717874691,0.09361175574360979,0.699863597981248
0.029688498812599287,0.6280062263886093,0.032232334201464055,-0.0018135035353876103,0.11056462584751467,0.0807840411024538,0.09605297402481257,0.7148111705074707
0.04225791712425257,0.6794476762781358,0.07916978817286976,0.04763146036694764,0.15132950369467849,0.15399224914708895,0.16811639940174097,0.7450960365630065
0.05961247582638641,0.6749311721653043,0.08898199465636247,0.046369384020047186,0.16698219581827312,0.15312620543056543,0.16819284009307092,0.7461716793629525
0.05038484744910471,0.6733351804742504,0.07451130319773666,0.037573812064726514,0.1503499125028553,0.13556128049284913,0.1465009506663159,0.7284579056815791
0.03642734516294585,0.6635730472196033,0.04710083236126459,4.151402300811499E-4,0.12566361371319318,0.11545144911590632,0.10945582850698303,0.7422080078961306
0.02372677455185063,0.6527185173517315,0.031115792571829767,-0.018269570468171084,0.10503490777116442,0.08956896534788612,0.08429537092485752,0.7195526889265687
0.04117003425355488,0.6459866961725663,0.056464735395255664,0.01631660435387601,0.12997819204907934,0.10511478893315726,0.10793718001344127,0.7368835607359635
0.06184766433085123,0.7231801354212763,0.09498953570436815,0.05674023192359701,0.15527410901265554,0.15187182619752385,0.16469343307173595,0.7532506294574929
0.07020565702655315,0.7027617307869913,0.0930502114788165,0.05507852081690516,0.1707571069763907,0.1567477563454509,0.1765344542693374,0.7543973654869572
0.05871258452419226,0.6887153942800297,0.09228917235288438,0.04735971833258623,0.16166514563876996,0.1497666820178342,0.1575278710198981,0.7743945867747205
0.05219521927913573,0.6663046590802424,0.06822969786132682,0.02420052339481441,0.1356500825374529,0.10919982690982771,0.12222508527386836,0.7585136677275701
0.048720327151332135,0.6608719874228693,0.03643511501641769,-0.0050323524344702,0.10962808402016386,0.09113286554406684,0.07871634754705466,0.7404640875209237
0.05482408236437097,0.6960484342687638,0.07343680826667276,0.04226063749873452,0.13535498252680658,0.11821315646167965,0.13302382082032926,0.7534649892751066
0.08474022981309706,0.7146789436701675,0.1037453933922919,0.06103246219104111,0.1637408767576889,0.15156874893715222,0.16957673922973576,0.801424060534738
0.08341570130204598,0.7292600333838365,0.11198075347093148,0.06366608593446679,0.16489085127466913,0.15790632203695334,0.1700229859233994,0.788726134510825
0.08086161212013547,0.7103493646455452,0.08931720261047897,0.055279725037783646,0.14811700832424657,0.13583169787044416,0.13378975844263366,0.779017179048765
0.055215646776099817,0.6925861909653704,0.07110384560793961,0.036072479242104494,0.1252510583678642,0.11598754485253943,0.10212832644762307,0.7294518813550452
0.05217242183744223,0.6589805831710044,0.05623525311062668,0.02109952610116645,0.102104778767408,0.08993090477130176,0.08256555142381503,0.7301478196079674
0.08150002882005204,0.7285129964444408,0.1165086373496314,0.06309527499255117,0.1529805840649238,0.14100349691947778,0.15648433775040532,0.7614219379348648
0.08471193481058731,0.7028030577825511,0.10742461205995366,0.06788522466043874,0.15702419973447979,0.15866702027561697,0.16840212436815882,0.7703011881025343
0.07869383042156718,0.673714891341241,0.09883941753147603,0.07381780392249013,0.14735062301598306,0.13768474147711068,0.1521894507272361,0.7261187252089243
0.06689741530474014,0.658010513905597,0.06915231754533588,0.052370888528158965,0.12686093669951456,0.1171369863669052,0.12596124278879678,0.6893509239997981
0.0477281209857084,0.6676023604972373,0.05745378775651478,0.02248490963412493,0.10026146922449473,0.07736683220588737,0.09723489845654108,0.6868780530091629
0.05945261814911851,0.6812335599104627,0.08410562592031481,0.04685082411070026,0.12745899351646453,0.11109480332793964,0.1117741892443676,0.7411412096204935
0.08060313054263357,0.750216721449976,0.12068065688061623,0.09375623396471586,0.16384377265774747,0.1615750488137741,0.18422862510441929,0.7767185813809898
0.08673577407993861,0.7020974202362374,0.12142643056281081,0.09965239531023198,0.17247122172786702,0.16310250885535324,0.18139589659416577,0.7425389849978048
0.08052020438485252,0.6717236201551139,0.1084145133513336,0.07327897086253118,0.14950358354788207,0.14427458847912836,0.14878124885460298,0.7365297088980406
0.06405592950236977,0.6612956759571544,0.09712353364016225,0.05599110351565581,0.13047702099864972,0.11810760769113243,0.11941531766731431,0.7325843390411627
0.05047194830850843,0.6958679804295912,0.05966479639102686,0.023915417225249983,0.11773304592844139,0.09339331318160213,0.09835076453710231,0.7879671983574679
0.06460425811737258,0.7339062914912995,0.09834744133137302,0.06273637489967065,0.14164680785118522,0.11958985812333753,0.13805259038491255,0.7960787959833959
0.0878072748744872,0.7123949385422061,0.13640684345748755,0.09411929081266301,0.1737867814072821,0.17227885363592846,0.18476984066420082,0.7973989820168814
0.08649459501741996,0.6970116454238829,0.12049974145593939,0.09875808441170686,0.17318920497486767,0.17288222313808888,0.17113682535314484,0.7374381089900264
0.07656249655570695,0.7005927573672804,0.11109453701916451,0.08984195129959435,0.16231384055964024,0.15819233879995015,0.16248509914799147,0.7854239618966793
0.07214883447790933,0.7033425811973468,0.08931555643603029,0.06283439508389237,0.15011292582008537,0.12892727964068806,0.12713636726789881,0.8164641208474012
0.05485599709782109,0.6927759837327496,0.059739990870433565,0.03507406114821974,0.11741929807203152,0.10070977582961069,0.10123855599180356,0.7770314074053215
0.06421376574256511,0.654474322969203,0.0881840694261927,0.054819912911919,0.1394135554302604,0.1253821751833315,0.12180128017955123,0.7387905211689563
0.08185190659404927,0.6991045939242574,0.11898207931176596,0.0959162839020005,0.1585781145821452,0.166375369214355,0.16790346864768457,0.6993575830927747
0.09087524454044774,0.6998480300088317,0.12656793107090983,0.09496739076105118,0.17532357802779788,0.1611906160162061,0.18348504768620194,0.7585627695832485
0.06911222419793824,0.7110969851928538,0.10995988771515745,0.07258454673691891,0.15412737422753306,0.15110441758914742,0.15007932303048563,0.8170501834076302
0.06323895271364403,0.6967148186321984,0.08608322965962949,0.04874482746184702,0.13216182681486838,0.11871220774191533,0.12142221103356754,0.7832441178300784
0.052022789300043226,0.6505792989058848,0.04372853688647977,0.023481745315168643,0.1103059120324194,0.0866610874558911,0.08847654193669396,0.7109896983330889
0.06842177209710743,0.670610861198383,0.0890552106549692,0.050366055852939656,0.1337101126766908,0.12405116015724023,0.13387080321151695,0.7251409519912351
0.07353821907455066,0.7267674701792806,0.11559515660684143,0.0750399396429501,0.17912271886538678,0.15637890711086072,0.1661937647275684,0.777892749722506
0.06282718459290726,0.734098515855291,0.10686616710512986,0.07529520184978468,0.17286488384628326,0.16514081237977216,0.15972671980213357,0.8187139329110487
0.06517268238212845,0.6943732454152871,0.08591855198853993,0.04617847687201736,0.1421545248477394,0.1273264247357267,0.12869109610837592,0.7877548718469143
0.04939754816813188,0.6784246352901435,0.063670038675796,0.03465070665428035,0.10377379396265439,0.09041721487354715,0.0916756468065002,0.6848977120190722
0.035971692065729616,0.6513919759199641,0.04350995648807061,0.02058445260955753,0.10014596560889716,0.07124988037614759,0.07395231428699285,0.7036206698713552
0.06850704096288714,0.7352675597604219,0.10903478197685991,0.0809409463181835,0.15860186361427273,0.14922672011590427,0.16706885968220148,0.7878930834133453
0.07506242837441325,0.7581721726039041,0.11499984994934204,0.09137405814353444,0.1662287406642276,0.1466439439344783,0.16664986695301165,0.8035418057165603
0.06426763320332438,0.721834987792354,0.09703267596599083,0.07163744302846356,0.15408006563839602,0.12884899166680713,0.15100621865183617,0.7223297865627045
0.04768676888263653,0.6499809016108137,0.07362828765235119,0.04809956587059176,0.12385190982715545,0.1040718770451994,0.111769862513204,0.6672383726768865
0.0488982075288997,0.644809458514008,0.047831551818495396,0.02262477684825943,0.09355594887298391,0.07985279446038665,0.07941285924530099,0.6872188621545142
0.03411422949424896,0.6760284377131398,0.042537458727338294,0.018856841382975262,0.10629345417697827,0.07422787082911504,0.07805252809289452,0.7438161150167651
0.06215564289665973,0.7147768728225679,0.10073751772033586,0.07636966097672648,0.1671383048680793,0.143186207724425,0.15816084518606907,0.7546878802332551
0.06396036678612585,0.6581126793987748,0.09378284955418384,0.07151340512635779,0.16508375824328103,0.14722624528941036,0.15996208054133187,0.7204887948785034
0.05857354562246428,0.6661518038791016,0.07560446802976034,0.06667858966063564,0.14498963187590014,0.13453463548091166,0.14305054316664323,0.7110932597866694
0.050455567857835296,0.6692185975787769,0.06162016723816364,0.03392858940260067,0.13950246870590738,0.1036879190654924,0.11168781537788677,0.7626844508803874
0.030526514376809255,0.6979899489195767,0.03761398718859457,0.011174546042159846,0.11323674716462828,0.08075040055237764,0.08480984852455298,0.7917091059727618
0.04064558670375304,0.7030715276899877,0.03893693792665877,0.013002496678265911,0.11391732891055001,0.08086974494068958,0.08119222032423144,0.786320581025551
0.05456824835173825,0.6831084445482497,0.07771197502842822,0.05959510564847488,0.1552736199228528,0.13594024495696222,0.158472724555429,0.7603956419608542
0.06617468440342467,0.7241828291778346,0.08983615388149907,0.06479424282008378,0.1582587939334608,0.13259092782914317,0.15401099927097786,0.7557774051516102
0.056808745209688906,0.6847016983631353,0.06717576573849245,0.04145397146275635,0.15230754294384527,0.12739136442643256,0.12812610115842535,0.7999730717010285
0.04922045436342043,0.7289594241771458,0.039200275506519985,-6.538864767201211E-4,0.13246590944187564,0.0903874889002369,0.10262203875952214,0.8188313739081713
0.026827834569671458,0.6797227420383785,0.01735757502316089,-0.02239615388433904,0.10249798600855578,0.06669981745769024,0.0649772708452444,0.7754081554802976
0.03445286958886724,0.6559252378174024,0.025701694650029208,0.005883387188590099,0.10759953238181179,0.0732588085589142,0.07526695586423639,0.6914866692780604
0.05776059175886328,0.7091265344371789,0.06962425050920602,0.04370923768559788,0.14119321642748023,0.10805989722799453,0.12027406105188501,0.6930174174663267
0.051079137944893604,0.701753180728061,0.0670867807565585,0.04412318372215036,0.14644439892013533,0.1282908794371571,0.1321275431082765,0.7798904453746669
0.044839838202931824,0.6702717406627223,0.05334248923242265,0.02077564355855147,0.13742774670303465,0.09560724351530082,0.10141048290037201,0.7893370786018584
0.029551554017554042,0.6766804336948486,0.024251957245802522,-0.0027045864481452034,0.11404468058614392,0.07536282357749494,0.07350577797606479,0.7328725863912008
0.01635278562594579,0.617526533926913,-0.007656065141788002,-0.03655465263011787,0.07830890071695187,0.03343595753911415,0.030740322553641484,0.6695329926431632
0.04214632454939444,0.6623677306654938,0.038459610526713664,0.020980914342268394,0.12242198581916734,0.09338431555510719,0.10126210762051693,0.719564692423763
0.053468132345233274,0.6954428302919339,0.062192315085403925,0.03742400587954845,0.1478895293460138,0.12916258208877227,0.13233778128194423,0.7936074582602065
0.05081153387627353,0.6860971607595686,0.052732723695998976,0.028697278013546962,0.14961440870198864,0.1112602803726224,0.13269882048107134,0.7790910705675536
0.035779719388658926,0.6564902549080096,0.02598309534738584,0.003695755976300716,0.12335769058675047,0.08385979112591499,0.10221746102089535,0.7474225742556143
0.029128059017643967,0.6420221691206999,0.005714749617730913,-0.024911444630285738,0.09380656342000818,0.06500413681025992,0.05794884754881088,0.7167686409929518
0.02032083819815608,0.6509036921073912,-0.020845045086344827,-0.045667713269750145,0.07899976311821963,0.037633337863597995,0.03899105135376396,0.7153936497267013
0.04807928530534923,0.6955226293606062,0.0527923018001743,0.02360119087647917,0.13862633821738538,0.11103115679324894,0.1315200059538601,0.822954508340578
0.05428528877473442,0.723074775217635,0.06924774271798462,0.02744989482212471,0.14996856994625074,0.12583542599810604,0.14582258248584484,0.7900360213675578
0.04746074179965641,0.7027813734156323,0.06295939394793784,0.029103888176890934,0.14170798374020604,0.11680874569054368,0.12231328205801659,0.7120590811008628
0.044560443354589446,0.7113554736113279,0.044429928552591647,0.011072471056311536,0.11213044888731909,0.09244614715895291,0.0986952433178225,0.6851789414482276
0.02696822961959594,0.6990885385266442,0.013814518714328289,-0.014485088347370972,0.09492967146270143,0.04989061454172136,0.07771841962916978,0.6969836007709327
0.02009496873561658,0.6778964467432775,0.0062728685098951825,-0.029226383421204517,0.07652022203246439,0.039419850878978854,0.05423610894125535,0.7428115097739633
0.044788686467710156,0.729645078838818,0.05694336125858455,0.03973086711077548,0.12862244794356337,0.11195157022084043,0.1359360026678652,0.7358084016814197
0.05712275642662705,0.7033104049263097,0.0646049941687889,0.0306147942125171,0.13505064968493224,0.11378507346592584,0.133801973464959,0.7103592168182289
0.050711226699823975,0.7091719248484829,0.0465910098919944,0.017064224296179924,0.12380978875497253,0.10722371140134551,0.12172060712009747,0.7271975891241791
0.03133570860218535,0.6602991664936559,0.017461720853298918,-0.005673367809749953,0.10728795157781866,0.07827414388802671,0.09083857196416828,0.7214157029232249
0.02555255268540557,0.6633562601341599,0.010047417073476311,-0.026836171170180965,0.08095465832150289,0.05368642879040497,0.058770016018210296,0.7206734174237355
0.03273497012743539,0.6738766112091863,0.030280981061459655,0.001856578665613319,0.10621677032932492,0.07086705180723119,0.09069972342491253,0.7148254559838614
0.0388368658615387,0.7310211457950025,0.051198614995230665,0.02028793775425531,0.14284278383796614,0.10849554709017199,0.1324882150984431,0.6794813403132837
0.04263786471026863,0.7101887932413741,0.05308354499753396,0.022304991131872984,0.12562086552958665,0.10476292711682966,0.11823080518039777,0.7081361300685773
0.04087478371579448,0.702621227806947,0.046407032119124114,0.0014427640661744748,0.10167768571362414,0.08003846992644882,0.08898954029067266,0.6869517835212219
0.017688355775458152,0.694457132637916,0.015514912802289393,-0.021763142868292985,0.08880823812711067,0.0599430419948131,0.06955255471039257,0.6843232642925843
0.007685278102431376,0.6567938665834521,-0.01786632827893493,-0.051421071259958255,0.05265643975006993,0.024388101356615323,0.033716047126037416,0.6850768584606203
0.03883583351373625,0.7085161202836554,0.04585405041847605,0.01879131148174111,0.1276780810674002,0.1140835365255915,0.11264539751447307,0.7364058770575717
0.053820859617372666,0.6975437648208127,0.054925773319557794,0.023056567694279776,0.1363682624547202,0.12559618765381111,0.1261630773720205,0.7391624020932841
0.048745304320070945,0.6662515585667201,0.05221412061015893,0.01373136266284588,0.1432843544282542,0.11027775152432925,0.11931299883225222,0.7300036095284805
0.03258108329430786,0.6875612322521559,0.03362724024538999,-0.007226837836778535,0.11905799730069572,0.07868315715022696,0.07465556013012015,0.7731767833657488
0.014166010150748035,0.6700825378946484,-3.270743428761269E-4,-0.03043812188138907,0.08901191349878651,0.06422655941741726,0.07098682761447334,0.8322887620808218
0.008951623473889796,0.6502481397060733,-0.010763608138813163,-0.044543627021784576,0.08171514492377663,0.046155555695153894,0.05268632773852608,0.7569509560581498
0.03559825324715663,0.664318208115949,0.0532063524770989,0.03539156615487579,0.14064353845379707,0.1174211327948719,0.11785341026186485,0.7712129784896045
0.04497736064843272,0.6730453514728922,0.061243114670028194,0.039169836506235456,0.14287355587211534,0.12676331719014938,0.128664988356666,0.7443351880205276
0.03766561141538332,0.7043281470142282,0.040632876486221575,0.014479407321193703,0.14639508112795732,0.11576461556209466,0.12788698629188125,0.8145228218626468
0.026685850989699597,0.6681239449155619,0.020979928558591154,-0.01121212741128097,0.12621038496654907,0.08183900800637481,0.0873191374899959,0.7984149859720927
0.006625333326890272,0.6317908564598513,-0.003313559952366013,-0.031570943564883824,0.0961305069596671,0.051486843793686406,0.05117919805501276,0.7913393588243833
-6.291403608638807E-5,0.6429908801537456,-0.010640785323013047,-0.047169674450064134,0.07624953750457568,0.03503070129225512,0.034887260118800834,0.7596357332536288
0.038243777031861166,0.6847802697233896,0.045393318561230286,0.012320049231317194,0.12692936125899867,0.09269685974254598,0.09913782742103697,0.7767508969190164
0.04394329579743188,0.6957447518920765,0.052689629395569315,0.012790477242956198,0.1363787248473995,0.10597187378482814,0.11498662863979206,0.7928593322756581
0.038664379817247393,0.6859502140147458,0.036741489770107175,0.011829246441247734,0.12895547135351676,0.10436599871984423,0.09367231876239876,0.7932075039287909
0.025321849388849186,0.659754680002266,0.013774573783944713,-0.015070287004881958,0.10991060781942669,0.06795854420819421,0.06566567862985141,0.8002370083317847
0.007348315352601796,0.6092680472907808,-0.024627914398379983,-0.048652703944972286,0.0830728954936467,0.032578177785735574,0.023237780468924114,0.7135699980062871
0.027414378763788723,0.6359165517382557,0.020762801841487544,-0.005511621213403879,0.10530473413367239,0.07406342488529559,0.07131163428844776,0.7546941665248148
0.03420832059146027,0.6823330795818509,0.040171250480211,0.016744953177704188,0.13620662529233987,0.09999521290555408,0.10640636442572632,0.8183748864469935
0.040621487813737034,0.6965906653510177,0.04059451060754614,-0.0033798410149781244,0.12988609927428243,0.10220798701579054,0.10036870585755131,0.847790738106859
0.030465061723777415,0.6358964632386472,0.012411311746714074,-0.025257891666231262,0.11650029888302994,0.07590257029043798,0.07379379080172846,0.7904029987116118
0.003606339046267299,0.5850068256408457,-0.01689330194373216,-0.045490804570061036,0.09301355917389258,0.03830823117498546,0.0353092106932084,0.7718124273814415
-0.0057069637239492085,0.5694961848847464,-0.04300844825852322,-0.06684070676117848,0.06557318545637976,0.010163870647989081,-0.004791276160662841,0.8099550259290305
0.028252226842576823,0.6270829627645523,0.031072030359346442,-0.0017131855653535824,0.12975455795156193,0.08018160216593814,0.07620630625859949,0.8804228609974718
0.041886855693056245,0.6794104979341967,0.046385173371074576,0.024950253610780977,0.14401289872698766,0.11071004644839469,0.11425635332882321,0.9154952048777535
0.04355994266013099,0.6627923801852975,0.04949558391883335,0.01647516424343784,0.1533245687835791,0.10718054378776937,0.10718701893711684,0.8494383756595181
0.03212216379099709,0.619911439055707,0.013240933899403007,-0.0076920809280929744,0.12209254639872812,0.06941972600593785,0.06604787712286297,0.830746071220741
0.021455857855570058,0.6047442876958546,-0.007471209981847693,-0.03799594661713422,0.09631895471649814,0.048215877984758904,0.033542642283684615,0.8404995675540835
-0.005147834362109662,0.6254695657758728,-0.03911201789771031,-0.07657680685531446,0.05759530909721569,0.020943647817148185,-0.008409995825729294,0.7904746778629116
0.031137345884046277,0.6734470455410718,0.020811690850702114,0.001517016418055829,0.10249624654812989,0.0648849139167129,0.05488534387555922,0.7818942580932922
0.04761315255756504,0.6362061806836862,0.0446502011171883,0.015959948910529882,0.12823681367716747,0.09575173706380741,0.10240943838899738,0.8098591267521753
0.04053855451586179,0.6493404481915138,0.04248391941927938,0.012252360464550357,0.11674264887117136,0.08108497995140913,0.07966144661981167,0.7915784518669803
0.03594524602598775,0.6103280891846671,0.010545512884411648,-0.013782277639746057,0.10341411653016502,0.06289753400970088,0.05125132022392707,0.8235202658455636
0.025123496632047233,0.6189274155635053,-0.01695174903272538,-0.05255986103089547,0.08085346983619497,0.036851439959658894,0.03013013326228567,0.7963385341780127
0.002205572613846577,0.5947988645869251,-0.030408073880075853,-0.0522756953749637,0.06451081458466836,0.019306542549845873,0.005128457395957103,0.7975625384018382
0.03947840795103778,0.5961372503961913,0.029848254466691843,0.0022729118922176564,0.114291805930582,0.08335896928913528,0.07412263126097436,0.8303005151441388
0.04381110528523754,0.6452814194853683,0.03114739126097349,0.005991885228480008,0.12829097987095894,0.09239762095309592,0.08154139818314618,0.7982828003968109
0.04145168701289678,0.6480564962689088,0.03145482412988028,2.928368066362694E-4,0.09727591719535783,0.07056575155893044,0.07144561755248965,0.768428695744632
0.028548968215012037,0.6842215423860893,0.00783520357508076,-0.023293276257228074,0.07636216979490157,0.02944993542458424,0.02959596606091392,0.7067743567755567
0.007077150258213486,0.6614949413160192,-0.01224654369826536,-0.05069653628104546,0.04210707904353496,-0.0010223197605004446,-0.020216741750821964,0.6347037757301641
0.015318155413837327,0.6567629024893331,-0.00871890198982389,-0.04962248132365945,0.04294468277498672,-0.004732103077288302,-0.016374987870452495,0.5881849479137337
0.042010998557167736,0.6802398847877552,0.059202784043189696,0.029427571057000036,0.09871639828607819,0.06653057963395642,0.06786421272255318,0.6623345106698189
0.05524497154251316,0.7446112681699907,0.0494114599891541,0.03633056390428906,0.11153659726861553,0.07689434025028317,0.08426700646030094,0.7036504497146605
0.04638196780166154,0.7135128983373505,0.04292138237317042,0.019459110620997946,0.09850882414930569,0.056039497254380774,0.056881460097872476,0.7004005650264793
0.030800655111890667,0.6657260597238491,0.010356694469571534,-0.010042790706623117,0.06850759394201456,0.027264440007161255,0.024591209058902216,0.6785873767187971
0.013932929924942699,0.6488085475006713,-0.02157654656488485,-0.04083353798077044,0.036617238473419134,-0.021159869174649508,-0.01634757825987109,0.6270917118910337
0.033098140567469056,0.6687051228709157,0.007323690279135833,-0.021326686360388238,0.05071436287304524,0.01539471857703246,0.005729129699223741,0.6317597643973268
0.054591614996370344,0.6914127795621312,0.06113310484522802,0.0262754642805113,0.10360540273750793,0.06602039933230176,0.06876020778125767,0.716814241711446
0.05592490766170053,0.6945425149518462,0.06063683938609321,0.030693082802406207,0.10151604967873695,0.07639868294056848,0.06589159168409524,0.6928679101575137
0.0478056152246953,0.6861191364114559,0.02870625379600278,0.01301513754482058,0.08318052545307897,0.040281063770424716,0.030944142048194505,0.6707791488432637
0.027392593547235645,0.6769782000725826,0.009743359993542408,-0.009631821844814877,0.0386290176828102,0.008159352747605906,-0.01717488493569596,0.644580649752931
0.019230629948321355,0.6421764306639237,-0.018049822547229408,-0.046036985259009566,0.020167535257614395,-0.022001636335542217,-0.0483968264511629,0.6639286919099494
0.034657137256846965,0.6770851096215732,0.019609442778447644,-4.955668656123763E-4,0.046384964091016716,0.018380340500070418,-4.4167177522554113E-4,0.6841995843186952
0.053302278015345594,0.7079561669410516,0.04262192129431905,0.023645810178681344,0.082837944404681,0.05034372591741415,0.035538114376433505,0.693259693633411
0.05374725326518777,0.6765773312184113,0.048835497630049386,0.021448370861489225,0.07924877481501945,0.04713285813241676,0.03727499545046535,0.6530019492063522
0.04035305838180753,0.6542113611966451,0.02695593215824102,0.00793543590268999,0.05111438402876051,0.028438839572519477,0.01480513111962923,0.6480246984504565
0.029298905816340877,0.6543986096858598,0.005940166414437065,-0.020755879489757816,0.04481946117032305,0.004449854973649279,-0.01906400569977834,0.681328750661045
0.02597898598017278,0.6862215726284876,0.025603465367258882,0.002558318929224833,0.04921056947339793,0.007751405376943223,-0.008983979862117512,0.6921175125195892
0.06097756391165558,0.7375793995263586,0.06839315853246827,0.05255721071425288,0.09627848299846407,0.06204649058687408,0.05635310034073302,0.6801675840446515
0.06732643964277636,0.7183890476911218,0.0664675408263612,0.045247222982488795,0.09583700365431633,0.06188010654435401,0.04395458086086465,0.6694888054635535
0.053027008109791204,0.6972943037886278,0.04778402539840124,0.022943015247589783,0.06872551282234766,0.03703944206419568,0.022935120640755452,0.6989083788899019
0.028967595407338093,0.7105139241521206,0.025244522610781972,-0.006663497168883432,0.050263047972466106,0.0023610676064869315,-0.011397494191696687,0.7045357868237114
0.021966627556101535,0.6666441332778901,-0.018819653704625544,-0.03756773682518154,0.036055850479459584,-0.02165988000592673,-0.045751971520750494,0.6681286861859604
0.049320644460383076,0.7077848493681071,0.045978292675444746,0.031895748950109146,0.07617488460690754,0.03818567242038622,0.012372094919590446,0.6652013464495137
0.07363193119318262,0.7428641437597192,0.07132700727982988,0.07581801762403997,0.09732288319669796,0.07371666522971457,0.05817912720635892,0.7009367246343204
0.07666462093084024,0.7135550802181865,0.09173551897502084,0.06940202801116854,0.09977467639385766,0.07096265104843084,0.06054594819968869,0.7075534255854734
0.06382263305061026,0.7138706106612818,0.07224389817646747,0.053019500414106836,0.08659907637989715,0.06261164639627417,0.03841064633352155,0.7253434932593602
0.04223028743269379,0.6924324403365802,0.03905715887048346,0.023773165944893995,0.06228402730306896,0.03465823892593339,0.0031372928108238385,0.7179136730035918
0.028473554155348097,0.6480640516969798,0.011306971478728237,-0.0028448225563116533,0.03030181267864205,-0.00838994304114133,-0.02516604310177859,0.664081184732412
0.06237392527236736,0.7177701701838237,0.08383832367434485,0.06785055570302678,0.08797336515692826,0.058973187929680176,0.04696904896725512,0.6917904653562007
0.07874827071112772,0.7356745084810836,0.10873116315047834,0.08608798689395598,0.11475879067769874,0.09442870459737893,0.08862512960596093,0.7669946438310226
0.0824882209024307,0.7224643087917664,0.10726518880851776,0.09360464358636125,0.10593401895628653,0.08949110642030422,0.08008254562292175,0.7601586542984035
0.07875498495190839,0.7246828783310837,0.07253348252019591,0.06857960816437925,0.09533637709172245,0.060337167896974374,0.046801836589355425,0.749627064078636
0.0524757881065062,0.6968672214261595,0.05322646110973712,0.03383525087907504,0.061409899341766674,0.03490511088891134,0.022630597665031345,0.7027522646168458
0.03787425936124246,0.6726257446666851,0.020832319983197276,5.44586944347239E-4,0.04471981858129946,0.006947350847557999,-0.01500381467263854,0.6974834319128302
0.06789973515780516,0.7314302090294373,0.08302589212122172,0.06823989115587523,0.08965126383871518,0.0657173608930322,0.055651023580087805,0.7625851366514271
0.07267040599098669,0.7401634205502378,0.10008860427487722,0.08942495402881873,0.11312578977183962,0.08692570828656078,0.06485176482769489,0.7819032453683493
0.07719857164138054,0.7331173886452089,0.096828541844383,0.08717866976236772,0.09926270222824612,0.08912114871701034,0.07280744101963682,0.7097864132358552
0.06229419603078239,0.7102023205761903,0.08249582204666232,0.06013377037340698,0.09343500149695519,0.06105374950368115,0.039155401305206616,0.6816445555762363
0.04773227678586263,0.6793986704390278,0.060382183579815146,0.03338590956672273,0.06249949390509829,0.03517275223675411,0.030141555517712755,0.7219955830113622
0.048845587108326496,0.7168959613387784,0.058895290284819095,0.04863088676328743,0.050953571341719045,0.027484231090535213,0.037686067115974095,0.73417134977371
0.07741515810443114,0.7458812339049645,0.11069184408783618,0.09872608095472941,0.1106057237840235,0.0970318562613706,0.10909001377779809,0.7465651728635084
0.0804415499627942,0.755445925254019,0.11878772393333274,0.09571341804221814,0.1102621351380241,0.09437243616950018,0.09407021643736461,0.715836287862033
0.0748190269769814,0.7281918891201398,0.09782192317127833,0.08960770330757008,0.1046539531374235,0.07928576770140933,0.08706014329849661,0.7301000305763437
0.05292331191463821,0.6750147625796544,0.076727806821702,0.05377321815100346,0.08228790201923306,0.05108912470842768,0.05602751138351372,0.7413138766442406
0.042244093905539765,0.690405860637776,0.04883834700223662,0.03409744867202757,0.058101526694175926,0.015163785016430235,0.013664980198802686,0.7458639730707817
0.041430404913280115,0.7046140647743653,0.06407363646143845,0.05006894571273026,0.0648244441838103,0.022093465604934973,0.019018650290037794,0.6739280894151349
0.0833559257944519,0.7178337054824215,0.1281657846781846,0.09721223090819914,0.11102832730235751,0.0984272926066433,0.092330884521754,0.7120730350246254
0.08281630039473431,0.7233135986319823,0.12895647403073948,0.10825256519330619,0.11376430103184147,0.10753071006433262,0.09829168392359378,0.7271616500054725
0.08448462249570346,0.7456654700694706,0.11546945120666048,0.10039204272134233,0.10834731618667506,0.09309171314667565,0.08426729896273977,0.7556796997215813
0.06743225804602404,0.7017629599702373,0.08825438980626177,0.06479398125002518,0.08481082598415257,0.05189664176162191,0.05187554385031102,0.7095445190279692
0.0498264185771963,0.6808634002600428,0.06568850108564793,0.04371700778217717,0.05428181464788423,0.027561647066919655,0.01767644170285508,0.6684476082743198
0.05919842605290715,0.7059116592419908,0.07192481609509785,0.056101750930372105,0.06678282016696212,0.03379186574817417,0.016989587121199936,0.6537407391586832
0.08595716689567687,0.7591532640034214,0.12614440371577665,0.10603063348238766,0.11985067953184837,0.09185427010674663,0.0919120334061488,0.7308090988528525
0.0913051615157722,0.7337587026823255,0.12723742390386752,0.10860524229513695,0.1359422235847611,0.10592074208166741,0.08117352706775446,0.7614164536493787
0.07924916225919285,0.7274729524073419,0.11273580407827057,0.09183619654886475,0.10012495847345718,0.08381482867939069,0.05790284369005623,0.7607982348226378
0.07278161359233194,0.6948260592084057,0.08453504861760336,0.0693738409610232,0.08776520981602322,0.06083398342718424,0.041813730805059325,0.7051749364977088
0.05249675637436578,0.7006095014691753,0.05754081817204669,0.04196268435550944,0.05712184585485362,0.02777511494124607,-0.008013123825431713,0.6953727815859453
0.07463486341358211,0.7571906557483116,0.0895394524111567,0.07801527263502239,0.08494243910951979,0.07202816966124961,0.03427014521166491,0.7710533222585362
0.08666557921086471,0.7506215927950144,0.1269584928352699,0.09809625144149216,0.1202793285393046,0.09127546350058617,0.0712834623324366,0.7569885636668509
0.0834445308830509,0.7423918147310444,0.11690205964353834,0.10172266673471916,0.11170849998808333,0.09353052545194443,0.06552754918587218,0.7264064692477872
0.07908974453226084,0.7349282463059958,0.09341207740475098,0.07826939486213623,0.09294647457447638,0.06867265808858056,0.047089445999254714,0.6927430116315652
0.055158254925648215,0.6854038008417092,0.07151360147583337,0.05747447145218523,0.08204537997983907,0.04368788293525673,0.01041604750225495,0.69999415403532
0.04327458234331784,0.7058259211293715,0.04191954792249758,0.029888038577446263,0.05561136805283406,0.015871665421337583,-0.021981130574364502,0.737051501467878
0.08187143438036534,0.7419989028692371,0.10863139126601129,0.09686448885195327,0.10971944359285532,0.07802701677004957,0.07138159542412052,0.7624741564753321
0.08571189578015087,0.7474223836101073,0.12928667050377354,0.11762963178035407,0.11832277001240608,0.10592032472951066,0.08753160166771833,0.7244339637105479
0.07983736073466144,0.7370093575849486,0.11887659749098925,0.11101680763652579,0.1199301459410368,0.10371610474242735,0.10015161766090284,0.6925432096943158
0.06484921471276683,0.7248465367000231,0.0982208923553593,0.08558052522855843,0.10604277545802421,0.07631556164833267,0.07612769053105073,0.744305196511904
0.05380606020452299,0.6936976826708569,0.08103756053072819,0.056843537513969644,0.07966864544917489,0.043469424277865105,0.04468101047608876,0.7646979634026927
0.048272417380223254,0.6712004128088656,0.03856291227310572,0.04033575652889163,0.058329499391649824,0.021173673304185466,0.0115715794582405,0.705854450338727
0.07945869524969877,0.7216054755723329,0.11461117482506662,0.10358769527516928,0.11888754341304109,0.09761300080092117,0.08281384416546256,0.6899744886563439
0.08399329323973748,0.7471214234879779,0.12069771120760174,0.12251247042534245,0.13468846768903006,0.11946700111209398,0.12613593329285622,0.7417639092350669
0.08255633601407444,0.7649070754818315,0.1139823023051301,0.11389781207871447,0.1305795211010079,0.12698841852496162,0.12220964321652492,0.7634976880205295
0.08241379048595683,0.7545204892742335,0.08708254141858011,0.08685477015141572,0.10489004405965482,0.0881576650834678,0.07753301620495158,0.7579012841379279
0.05352282817022132,0.7316320622870006,0.05763782638210769,0.048937297193819965,0.0779191859712122,0.04409462097049287,0.03321961745745064,0.7225574032254958
0.03445417243478549,0.7127596743548466,0.022823069024847084,0.0210312765875425,0.05202994923024804,0.02723908150853195,0.002073022718117913,0.6791334773927512
0.06835509744125873,0.7708094283475668,0.10481289709407737,0.09180581517661567,0.12858953719112592,0.11874663123371197,0.09021174099342286,0.8166624086792957
0.08128165640267997,0.7606589921548397,0.09141510316271954,0.0978897205295104,0.1280362928748301,0.11186163223032675,0.08689270781650998,0.8219013300447793
0.079219725810005,0.7529373782942175,0.09216518959936155,0.08950971758522819,0.1249958530026094,0.10991505865119494,0.082620721768773,0.7866228495672701
0.06462247321006653,0.7441658565156037,0.06815670104659963,0.059383278154696406,0.10010933460119652,0.07544176478571876,0.06376268396143658,0.7288325722396156
0.04804373033118579,0.7213685103894159,0.04809587839123819,0.023058615561220137,0.07726341984019575,0.05778976752324946,0.02227664432152391,0.7090895579343207
0.04105907710483151,0.755060486648613,0.03939588620563908,0.032649853483251084,0.07520369794291407,0.047599129816069875,0.03684503143992432,0.7637167741787221
0.07227747768488234,0.8016919467516516,0.08878869788451492,0.08276470828503313,0.11279157446338836,0.10201044268053887,0.0946021832101134,0.7805840084214029
0.07564047806504591,0.7741915491503081,0.08290440394393814,0.07404243862407998,0.12145027485799016,0.0955769209972458,0.09007988581253762,0.7064431773030282
0.05833110860241067,0.7636073329461508,0.06311784519966437,0.05930485854945374,0.09436701732069397,0.0824864809423984,0.07219643507361914,0.6934969978218866
0.04507175236349383,0.7189250405953792,0.039739359783172445,0.031920452791265236,0.07342630494829101,0.04983187003625286,0.032828451149397746,0.7099629899249884
0.03290805142866634,0.7103985856726025,0.013056352335884924,0.001532936309170882,0.056476653056515023,0.02054367589074138,0.011879759386137445,0.74727520147081
0.03546978990402562,0.7359440709952758,0.026286163309683697,0.01950110039687035,0.06547116375266876,0.04703428381064788,0.0189896465913099,0.7279867262217515
0.07598280807778335,0.7702004239247398,0.07513265329677701,0.07449891727969202,0.11895489626106213,0.10904830824984443,0.09353206707923598,0.7245438268197373
0.07503455427418138,0.7699029288482686,0.08239811491901647,0.07247305551974766,0.11983372619181017,0.10759888054131926,0.1018058174933295,0.7114615076208053
0.07034836642448763,0.7580954559858155,0.04918868997852986,0.06153060285732237,0.1152573014636072,0.09226430218497834,0.08601107591635426,0.7637265279903184
0.05896715450892863,0.7555424074300339,0.04666325282330953,0.036078280167105244,0.08643962684890208,0.076938081279283,0.05169139071852072,0.7479260922002351
0.03522324622681936,0.7253330297867095,0.01372071546702111,0.006984460543134716,0.06686600007171199,0.03354415577998878,0.0135634661139847,0.7371820970415066
0.037532726434552674,0.7306051463766048,0.027549507809455365,0.01665904123540706,0.06987915992500478,0.04212132307666183,0.01903333104036919,0.7406821560128792
0.07006469706833364,0.7867561906540569,0.08143418029764352,0.07178536442611264,0.12689514252607562,0.1186049442975844,0.0962551230381982,0.7496468939145364
0.07422713338148067,0.789321030745123,0.07947673576600287,0.07315312875629529,0.12856538315450478,0.10834183806417884,0.10916958842361085,0.7581108561524981
0.06039473643762229,0.7742843242171084,0.05814304479551743,0.048490843956100385,0.11344145391778196,0.09294089446082654,0.07872672389223971,0.7827069702173495
0.04534592633352942,0.7585954385238542,0.03869985637998351,0.02503018100272613,0.07587986012771554,0.06081024441720187,0.040277515482924235,0.7416927357744475
0.035175303251631054,0.7153193689957378,0.011481248679053077,-0.009260247629440745,0.03656005647707927,0.024478360895529974,-0.005072794057469056,0.6811954704896039
0.03210823140506944,0.7200529682473968,0.024084351388053177,0.006389297549291673,0.05347214932761344,0.037449877655019795,-0.0015278052990792337,0.7155227347041297
0.07091589631825662,0.7919809625164606,0.0618700410240205,0.04313681665616598,0.10014061376135794,0.08656816273795817,0.06599284953404412,0.7268483241838721
0.06258798515904544,0.7710103810200268,0.06465736645580247,0.04497397914597334,0.09970047841088683,0.09931475781473006,0.07246389627097338,0.7173440587604285
0.05559101179005205,0.7581712227762731,0.045482766447149374,0.029180522308089353,0.08354618779672543,0.07650357327383189,0.042410596647481445,0.7192111932891525
0.035397431331843546,0.764759175093044,0.019678748508853164,0.006050476788152417,0.06624098018016851,0.052224598374109,0.020679355030728486,0.7172015372667462
0.029703113363295973,0.7373581138342564,-0.0021470521525290137,-0.02499769472864922,0.040922175969950104,0.011116757278221935,-0.02115733361882778,0.7020061123667513
0.05212625798912379,0.7796889230791271,0.05393670239125661,0.0315879760013292,0.07897719391747868,0.06712452438346442,0.04453484738745691,0.7273562330971269
0.06746424746625611,0.7626079643698792,0.07303736336885325,0.049311667691608704,0.09454139116662906,0.08319285289745632,0.05886832481547477,0.6834023366553811
0.06022183568383904,0.7657772931309912,0.052971088820584336,0.038897578347014364,0.09711991482843224,0.07838719859306097,0.04961025308021567,0.6850029032976032
0.04827899138706678,0.7691385593125694,0.03250277161782539,0.015777228519826703,0.08309141595282866,0.057211205797350353,0.022180278114325526,0.7259108096288811
0.032720820142227325,0.7260692787363194,0.008265431627191552,-0.013990887475540677,0.04691598842934573,0.030943369515943113,-0.011212401234550029,0.707772462439462
0.007657452347092128,0.6908783526913927,-0.018947301328957514,-0.04111822413840969,0.02320696223146517,-0.009971069306282247,-0.04202954209862184,0.666919000405406
0.04671950268475798,0.748872124621475,0.0509901941575857,0.037404491927642725,0.06956222452920947,0.05462083990683137,0.020264156333349576,0.6948363896221896
0.06330497467360777,0.767310826067499,0.06425559680361301,0.049482495479060334,0.09047875458427837,0.08729025749569484,0.07065053195863681,0.7677492217112485
0.060421566043090805,0.794429535266306,0.0674545792975159,0.04202182844387338,0.09441858232786345,0.08902971231346737,0.06294359815424833,0.7631013825039781
0.0417833340268431,0.7285589253025109,0.02909971662007986,0.016619721488369186,0.07911076945455094,0.05496887439124222,0.028662465553727798,0.7933303398589802
0.02657499294680434,0.6951336990083172,0.0038640585513483594,-0.00760915281691334,0.04510635398796864,0.020939540826323867,-0.004782618405698796,0.7860980745285431
0.01528198935690713,0.6238587651233832,-0.03059043396183604,-0.058400845901635946,0.02320298934485479,-0.003899755808336066,-0.03460660024550432,0.7318956221190426
0.04153350336468434,0.6598029184877987,0.04047530586431469,0.02267553218471153,0.08620648329681958,0.07492558246070742,0.053910994474872596,0.8749089301643113
0.06681208539806073,0.6927093003849455,0.06924136989913901,0.04700398515471102,0.11999640478973696,0.09350817210958504,0.09126195883948146,0.9170341224365293
0.058675334519996875,0.6541944788797492,0.055682635661286756,0.038925642548858844,0.1163901904023652,0.09371206741995537,0.06439098694256794,0.8817115066627521
0.0470773677051569,0.6534757688403081,0.0373006866647317,0.013059854456072415,0.08328944652858467,0.05698798244030323,0.024576403506344362,0.7752703889342569
0.022318861244550535,0.6599456366736903,0.01523748503788186,-0.01926356715119286,0.04990250921886411,0.027247470132900766,-0.006159486935470637,0.7335831063060918
0.0062392658707969804,0.6495392134413759,-0.027170796758751614,-0.04353493113574057,0.025272210475811102,-0.0049293754311259645,-0.03144262101998487,0.8118542603823471
0.032784013675739736,0.6938325556994953,0.03965447817583534,0.017882567132047042,0.07448203361797136,0.051468815934639645,0.03649322667627265,0.8918330211927463
0.05891452583728256,0.7202326953352438,0.0627376111884338,0.037309726607732616,0.09473142349471003,0.06632184256661601,0.05095171997085092,0.8210659814539504
0.051683862543581816,0.6954964168129242,0.05468773826220175,0.04241987786966322,0.09550273274119386,0.07400077122931724,0.049146706473054594,0.7681115787377417
0.034882522119143604,0.6890477138823247,0.03225848458814756,0.017090468491439123,0.07360162619534509,0.04367096964402707,0.020546040351644555,0.7573526129104617
0.03059950413208273,0.7121984254635958,0.01527433122865944,-0.0034941149342764474,0.04349915585301911,0.008991267155451814,-0.02031905909800521,0.8210212751383179
0.01651448370041507,0.7073772027617924,0.00893120851700055,-0.019571807880870845,0.036950741899886896,0.011581260577004333,-0.026932124084146504,0.7955817994648463
0.05371747113792964,0.7324915460323889,0.06890732730978291,0.055303148791612064,0.09304996268626599,0.07115861042396437,0.04885772106386611,0.8125556408546208
0.05084548652760247,0.7021169236699131,0.0762526061561347,0.05138342968391769,0.09228334953600717,0.08256401270933136,0.04568065693843971,0.7786513356445374
0.04841304517619767,0.7073261077443017,0.06726954960662779,0.03876734341766062,0.08618939997058181,0.06468609207508062,0.03967234655518568,0.8044725102361078
0.030668030676766284,0.7173018207423489,0.03609870611285515,0.01120889320703855,0.06872772567392706,0.03659090372601899,0.016065847246733267,0.8333115882604657
0.01827273633200216,0.6689937319891881,0.004191240290277787,-0.020082755554299912,0.02887323343981776,0.010409211887181937,-0.029180772797548618,0.7529193863763408
0.012305763365977057,0.6737406016417551,0.008144992684750552,-0.011702281044558692,0.024007837195317606,0.005520202110750119,-0.03436736631789072,0.7558204875482875
0.05806597212692913,0.7127836674688312,0.0858708520437898,0.05880784461971391,0.08687399847949603,0.07909331515324271,0.061801384296547524,0.7452434688974703
0.061864094644491566,0.7534368832374542,0.08693745778952128,0.065411872713435,0.10914027345991181,0.09805057151717406,0.07366582766200314,0.8628317851646989
0.05709982612804044,0.7520690947985785,0.08942146289023074,0.05446571398352741,0.09779005467830768,0.08822329660899562,0.06951261902150468,0.8931056248976592
0.0383448997987882,0.7273438006748236,0.05838187891270906,0.017632441256436922,0.07483973915741747,0.04540445827105783,0.02424498021962552,0.8118830649959944
0.018846903272502304,0.6518138382400093,0.019924344268647864,-0.007951917607025016,0.0455834922867441,0.016991701960723703,-0.02202385119205017,0.6850585144935593
0.02514719251715826,0.6961743307001256,0.02749597759830784,0.005976224425797594,0.03789510170528365,0.02089110650045413,-0.011140843764521818,0.691437110296634
0.0690167875175503,0.8049967537887739,0.11371780210890357,0.0666513220834666,0.09704346576009286,0.08680310652856862,0.06834252456965437,0.7890067691671441
0.07312227641585943,0.7943788639354745,0.09764995460146822,0.07575069269591062,0.1018046367654787,0.08793462906840407,0.08076013282229218,0.7673813986019613
0.060750669054787196,0.77035276822683,0.08560581038864991,0.04804565359698631,0.08170829741313561,0.0705455728601013,0.04783173579038284,0.675429451968815
0.04117213230464425,0.7465454360101331,0.07128223734701591,0.027473825287082435,0.051418960584913805,0.03874428771008831,0.008809780883620222,0.6257298415115916
0.03649094513190989,0.7181947806757578,0.031134144933046143,-0.0061961199330807515,0.05002562556587907,0.019639237055484128,-0.00826144560856705,0.7104030228570194
0.03475020635948552,0.7751336548458996,0.04615901053722525,0.01560816481424709,0.05304029921493733,0.023347123504852935,0.0017384416520921098,0.7209244380263727
0.0784295885063136,0.8423239650226721,0.11079655864509588,0.07078995247927314,0.09026876957058574,0.07901923713869545,0.057768933719298914,0.7126561996002183
0.06435657714478835,0.7884455713827104,0.10872142646435219,0.06699669991704449,0.09111856415206386,0.07865726881214165,0.05117504642971452,0.585164220854361
0.06306037093976766,0.7907616651896247,0.09435189484889928,0.05244647682532959,0.06878671972516806,0.05431020282745975,0.0333405156126892,0.5662498141812387
0.04414817730890308,0.7720484771131142,0.06848339471017377,0.028578058393568764,0.05595783598146955,0.03160099761788181,0.013007908767899867,0.6679292334908804
0.026975023854868822,0.8014912411294187,0.02541527676589224,-0.0025607311418509374,0.036937000762199676,-0.001585180982348151,-0.015712772500421322,0.7061917465375895
0.07085262235517664,0.822503375725671,0.11421017039317027,0.08374487125605076,0.0865206324299582,0.06710834382244252,0.04925667366282838,0.6636743664388213
0.07849473670139218,0.7499787882222125,0.11758373551409358,0.09745251705606581,0.09191544622040664,0.09181755092043314,0.06489322970240541,0.5617121344429155
0.07123620627430194,0.7519106813128495,0.12152446409552209,0.08742544265980531,0.08511733833491052,0.08800392220531664,0.07306614402630947,0.5476488140103113
0.06044808893836498,0.7787245794254407,0.09242343076937005,0.07511457797326875,0.07933048818400446,0.06105422649670802,0.044491435634467356,0.6527291750701402
0.0459118554378468,0.7787539677127051,0.07518286827834236,0.03627716528428415,0.06854946146287832,0.03116615602216407,0.0047220795036624005,0.7128253751450101
0.03563272696107019,0.7414050043384175,0.05163626225814658,0.016921497709178016,0.039194242978101666,0.002743774378197259,-0.021951517858176547,0.6388381358664339
0.07367910924458904,0.7358043871008543,0.12688365403143237,0.092928375014003,0.08384799360740129,0.07647021876684344,0.06163678945493863,0.5766063355019354
0.09371742717302303,0.7717118359458651,0.14295180988157008,0.11164316613935851,0.10158113484007018,0.09983360754235224,0.08339313898375222,0.6067552093669617
0.08742595979445432,0.8143536944830391,0.1402724715422634,0.11423958114789406,0.10052229748270144,0.09829331683002696,0.07174826514541284,0.737918140467983
0.07407250057890538,0.8060090453455538,0.10685129187253843,0.0836601882609971,0.08401323541680832,0.06577447568697584,0.04661996963364181,0.69824868465139
0.057079609441700714,0.7232554873003058,0.08312649910975936,0.056045855454552304,0.04926481097494412,0.039374998973697665,-9.54670136878305E-5,0.5484625692944111
0.03435222365297494,0.6794662263132155,0.0572314135300575,0.03265371948887065,0.014943954883600064,-0.007658338863779323,-0.03029160407372916,0.5656824692063999
0.08740500777915566,0.780750826712478,0.1383366155317962,0.11546870447723433,0.08852212695932103,0.08427924025452788,0.06550164771397057,0.6200802123337463
0.0999718132487484,0.8126440381967429,0.15950808819318654,0.12670575780016924,0.1041488206835155,0.09314422872916271,0.08941385144638164,0.7414424596886996
0.09378130498689113,0.8168183826856386,0.14495492283212,0.11699193881260765,0.10255562828848827,0.0831064324403678,0.06522876028048297,0.7201497850179506
0.08349157887072872,0.7401852943523266,0.10839543491214686,0.09525761702377378,0.06753048030263012,0.048169144146591895,0.021568464458897096,0.5894622969468172
0.0597152319148842,0.6981467501332692,0.08402785541502386,0.05725528082710542,0.033787445794541106,0.014055145769441597,-0.015461286698385486,0.5703012637566057
0.04114543574860693,0.7172379560981201,0.05406614497757252,0.029025680003153417,0.011782347744797328,0.004692772082381628,-0.04024560488787277,0.6207872996205781
0.08861778061383992,0.8069128719670536,0.1424763560038292,0.11508291218224276,0.09051928294113726,0.07745168410881584,0.050610559552117254,0.6929116431854724
0.08541462075279974,0.793718728410342,0.13950291217625557,0.11675484637376134,0.08151464962301276,0.08044489120768292,0.049196238107567736,0.6554297231971513
0.09014972125326828,0.7396572221350277,0.1236870112856332,0.10233943118274849,0.07376710088715635,0.06666111768764021,0.03317025441850366,0.5562673030654074
0.06881930198601287,0.7335259635386225,0.09918045321091662,0.07656650551146874,0.04904957698401122,0.027125887123449016,-3.0107737923017186E-4,0.5563710375153076
0.0559020966992466,0.7426151858560844,0.0711292583635961,0.04290551990856126,0.03294210962179645,0.00915234215027094,-0.012673239821813793,0.6560798095773096
0.056609422257840936,0.7539051874267938,0.09920829146573884,0.07289964607641714,0.044339804218323675,0.026569799725102004,-0.004757642214424193,0.6527939113129007
0.08940455087897076,0.7767542123093361,0.15342767215783062,0.12307255391431346,0.08927255793474312,0.06828759337042713,0.05456485094575493,0.6075306929913286
0.08288484080444947,0.7723303199807018,0.13795081344227378,0.12322828475595099,0.07749576579252243,0.07125905280044108,0.054360965985423434,0.5565583713558003
0.07522252657781779,0.7396355605275237,0.1250832847729301,0.10052367759902275,0.06580632819367008,0.04752965578306392,0.04428525829581211,0.5876618972349493
0.06636610093996931,0.7525240450826609,0.08764294092247052,0.06887196175213676,0.04315343450463628,0.024534541455380438,0.015502158071261322,0.6511259797475575
0.040226294509138984,0.7334448763462851,0.06118893165539735,0.029511447237539196,0.026153495914673662,-0.009430145127631066,-0.03467851012851974,0.6510327544457404
0.061334720966248424,0.7620161183158305,0.09379806535770711,0.0807152760397071,0.041161205102894685,0.015784660883901742,-0.013931459959002628,0.5948487940196333
0.08798615921503196,0.7592267681988142,0.15851104710459818,0.13321394110218585,0.09564071550675964,0.07782077322337365,0.06741645376259395,0.598866041350324
0.09782154412095466,0.7611026882953105,0.15334271943582195,0.14029661795398293,0.09699139264011257,0.08503847932688964,0.06566574917446988,0.6850834080284446
0.0791096715623974,0.7809386410025355,0.1257397836134512,0.11696317831302423,0.07980578479752695,0.06821105890276839,0.052229973963198464,0.7490001449664039
0.059415900809633285,0.7480619675656742,0.10518725806290294,0.08708368935745077,0.05718789428369188,0.04118605018656206,0.007846793523850419,0.6606113374378253
0.0470381215868529,0.7004918154139328,0.06584389136682527,0.04737197819003572,0.02956469698759992,0.006241457351827153,-0.030284437155534076,0.6052260616097113
0.06395307165162395,0.729540012453584,0.0990772309586297,0.0902047368610038,0.039204643646933164,0.03284832874359604,0.011013507995787014,0.6109005711136468
0.09669572030096768,0.7980494496623375,0.16047382957448414,0.15122902677607758,0.10374243769857788,0.09546409427800927,0.07867204541310097,0.7165191672509389
0.10363149969103946,0.8048185665802052,0.15622353536113948,0.1409976356063155,0.11480903865736736,0.09495961476351727,0.07583513910929032,0.7572737061841716
0.08972606987175356,0.7667906978495421,0.1413414619915622,0.11378347704142606,0.08511557404288532,0.07870260785986871,0.043470277961635495,0.702127944025889
0.06882813419844605,0.7422731597220822,0.10172275980656997,0.08714748016776938,0.051830959052868594,0.04016292553004899,0.014661781671827509,0.6106031345338342
0.05141249618183856,0.7087230136461324,0.07824520402212477,0.06403094533010889,0.037367252465964895,0.008122324743487525,-0.019474486895786222,0.5835306629206843
0.05888655251571105,0.7626943352999683,0.10701254464444102,0.08104391535822747,0.046561328960002216,0.030563382767485298,-0.01380233025523405,0.640263758220968
0.09575705555355118,0.7782677036498117,0.15211061102923837,0.12154031932878614,0.10124185769090512,0.0921645784191896,0.05704842600697884,0.6969170406628936
0.09399223967071871,0.7657388066712538,0.1449769470713323,0.12878125571104312,0.09212272671210663,0.08924519672785539,0.05928412240059093,0.650268789548684
0.08348176714859207,0.7099965586669416,0.12470236036086677,0.10202669148068476,0.07832695975641944,0.06963066322227436,0.03480261643409071,0.6147845639091851
0.06353295607628143,0.7110389202239518,0.09974907677216363,0.07951466362395487,0.05853638280990966,0.048194069461472706,0.010790011499638378,0.6695751400007737
0.050890120136556555,0.7574449238468763,0.07028563453852048,0.043319162681473,0.03783891073934765,0.016368589167445543,-0.012635699909100524,0.6749074127125901
0.0827205359012956,0.7808759791358845,0.12663199354969532,0.11588143788699726,0.08877904150986375,0.07541674608218252,0.04128887914121626,0.6732869131347903
0.0871915863109236,0.7669504454876984,0.14247074316361502,0.11384669593403572,0.09675598306048434,0.10294674394168676,0.0731646624427787,0.6249280992118917
0.09064298330010981,0.7505164135458312,0.14067819092352818,0.11348988058556742,0.09982220881250312,0.09199343801697109,0.06549018809007343,0.6634211556642425
0.07559569310518006,0.7479131308499037,0.10894209695268615,0.0946207875796789,0.08089561022938317,0.06708416265751788,0.03198416014867665,0.7040355428888272
0.052009225415696934,0.7318913374749022,0.08314346570699524,0.04751654427511307,0.05413860808137565,0.03411395867434195,0.012684341826229507,0.722658750807398
0.033693060455830995,0.7099000650779731,0.043286045564257705,0.024806698023131443,0.021540278348039676,0.007348195007244866,-0.03209980831586837,0.6624959502428002
0.07546168105048129,0.7638998697770197,0.1247980074829656,0.11540979091458675,0.08850357087392209,0.0816928775156567,0.05133197419320257,0.6868804515293523
0.09704988170194401,0.7638599971937738,0.1456105837815609,0.12157719128424671,0.11741107742363366,0.11284552756470388,0.09194126062166794,0.7107960067414418
0.09731934913978729,0.7762699332027507,0.14608358202224253,0.11672859270330432,0.11609103621445378,0.11181822594739166,0.09172827278107015,0.761215714866186
0.07428303498926796,0.7453036314826353,0.109472076503941,0.1017480004004641,0.09508952865488554,0.0943702850568627,0.05877422813294465,0.761764122081975
0.06465711325672541,0.7386216549261296,0.08255068448223711,0.05997796764618696,0.0537273741332188,0.0619900622458993,0.019958894245975824,0.6714155458253763
0.04760982244375113,0.6935269924362093,0.05713121089111023,0.01676397807288443,0.03803182298178498,0.019130336647551045,-0.005653297521229297,0.6676359848517208
0.07358946752686475,0.7358916719235566,0.12375514244830511,0.1014818117243649,0.09382541161543988,0.094493142620324,0.06740934806505383,0.7095025911779765
0.09763409765480849,0.7868728463638696,0.15062949970577982,0.1290252163774316,0.12554480925235792,0.12595509608935576,0.10861354470582063,0.754389538845923
0.09491729432554438,0.7479433508147214,0.14305508169528058,0.12244406419040937,0.11790136336506296,0.12984864162021964,0.10104223616083069,0.7474408965453578
0.08196191263323416,0.7450704637235714,0.12821271187608715,0.09311984721411136,0.09106401391368753,0.0969815571898508,0.06806314323451157,0.6796794215193006
0.06762781742904145,0.7338553697828166,0.08870507522836285,0.06711182004964389,0.07175857640332843,0.06995901426745325,0.041943644715730644,0.6737134303901907
0.04603168467119893,0.6978667508458589,0.05536789922782743,0.03379414726298276,0.035266091751644454,0.03218757583457354,-0.0014379126666552583,0.7409895271837527
0.07525171258127769,0.7611822956399605,0.11937933401030623,0.08580106671690016,0.08239877135592857,0.09347162781169202,0.057421715767693025,0.7514896731051877
0.09709266849740823,0.7927713698167137,0.14591432793619633,0.12320918829068339,0.115460380337911,0.13147040370284982,0.09794982167989365,0.6850158453637224
0.0943246086583619,0.7630623465586129,0.1369806270665205,0.1277186051207363,0.11889368559103224,0.12871079236946215,0.102605886451134,0.6999310215916152
0.08286976212538505,0.7534184695177096,0.12081907870553107,0.11034916141122171,0.10578545901214359,0.09957681288230716,0.07492533647045004,0.7100634665320079
0.06978432527686954,0.7575109390058891,0.09604482805008265,0.06687082877696873,0.08287199568034645,0.0799802461149889,0.03854654593793425,0.7313586700254588
0.04723650189394017,0.7248834882425558,0.054032513471955985,0.038132561750092706,0.047873209265167575,0.04445482043044357,0.006323410784549767,0.6929846692345796
0.07001251199210165,0.7456379546871068,0.11068545095377716,0.09700386177476487,0.08052706993961978,0.099402898440295,0.06349567853621291,0.665522491394704
0.08842195431676458,0.7424592311909564,0.13640880879106426,0.10959282347257684,0.10931116251448864,0.1195127541488155,0.08318165745938794,0.690675495932079
0.0821140738875715,0.768444064125495,0.14076151101627948,0.11895888308140062,0.10111576703617456,0.1275860091870353,0.08954893956073891,0.7088860005042167
0.0722001632396401,0.7573030294501761,0.10948601858211307,0.0782625868771223,0.08605234486348405,0.09774337767370671,0.06336531875422173,0.7281643994827205
0.05613961626444718,0.741753865849831,0.0708728174828119,0.05537361948975067,0.060563020966532516,0.056883960563654905,0.03552910250962106,0.6590934963416328
0.031192476496571028,0.6689475362599431,0.039998654687390986,0.011167624458185584,0.027789241315981487,0.031466114255848374,-0.009338922535873678,0.6056887948978167
0.07242551825210738,0.7618160484791929,0.10752512567288919,0.08905040970241004,0.07933228306738518,0.09069791367341525,0.061341520143992974,0.6695216053695738
0.09416345475257668,0.7733878067376194,0.14927225079375234,0.12356732109739035,0.11738107002164273,0.13281331642585253,0.111440737694564,0.752695805562787
0.0871345478562841,0.765149256526527,0.14093511878773804,0.12960510047976542,0.11946910836718791,0.14573062060207811,0.11240942862728431,0.7000467861789319
0.07655604129159327,0.7198747289539239,0.12107998043886106,0.09641595503233012,0.08730069377126563,0.10899317433040522,0.08276828675910126,0.6683976639052187
0.052228026888620493,0.7044375940343716,0.08832824349352444,0.06441274886014167,0.07037623740297304,0.07754168734387187,0.05078234542942872,0.6253257359534252
0.04013532629698169,0.7037967566008356,0.057809193385301355,0.03220412411097582,0.04601720379530469,0.05181296081564274,0.009667786589874744,0.6653666271395441
0.06776301038904256,0.7567393485602801,0.10006087322217566,0.08317984165719805,0.08069961330151373,0.10120479419265492,0.06830316867497498,0.7174800903862939
0.09547261738258273,0.767096742579862,0.15296712822235511,0.13891870122112898,0.12271476944250495,0.159141378218354,0.1336613487585612,0.675943204222995
0.09234976517546961,0.725790431671972,0.15015409382782832,0.13007103995928243,0.1207072581732753,0.156647123743832,0.11767231371079684,0.6691044583215882
0.0892982210689605,0.7408286026608821,0.13482087068803814,0.12099729777069282,0.10697753455418407,0.13259276537295375,0.10926590279294872,0.6457426777590531
0.07447672194919785,0.7434898091876978,0.1004187961992084,0.08786597681176633,0.08340335617158098,0.11151907458700838,0.06713309080620067,0.7359460395068096
0.055601545060328425,0.7259541160141617,0.07298125855790771,0.061646555589531034,0.0560145465059432,0.06539018440159557,0.0424895608656217,0.7260919429807022
0.05299330746266667,0.7070895328830473,0.08576639583721367,0.06819564853578683,0.053468585764969274,0.07309155322961758,0.049211324863574296,0.6547647988954234
0.09964471609498035,0.7384236326073383,0.15537234299366093,0.15131850110650796,0.11141312962232139,0.15614709683875744,0.12630607778261405,0.654672997968778
0.10682691335646137,0.7540868030466125,0.15955848890183158,0.14691043889499406,0.13043940403972298,0.16289430927657025,0.1364220108246824,0.6913739445020021
0.09744896201405226,0.8029240939836237,0.14606682585901815,0.13534141267140953,0.11046651553949746,0.1438405398202359,0.1182172756869125,0.7388139191043019
0.0750061531329705,0.7381319875143958,0.12152096027917368,0.09608945349541005,0.09218268592790534,0.11280911458587295,0.08377276026762989,0.6642103127975819
0.06646902646329106,0.6929334854533311,0.0837336220938708,0.05203792433420257,0.051442133381554726,0.08280302516327741,0.030297673782631332,0.6242714257743089
0.052565438601706614,0.6705866205804905,0.08074395147186339,0.0527582632066348,0.03973683554693699,0.059394486882896794,0.02298048119263519,0.6079022574457733
0.09770718672271157,0.7580012412251791,0.14630346671606956,0.12881199869211007,0.10064453511073249,0.13743235616593102,0.10698075673204634,0.682238689687477
0.09921810327957098,0.7789523135177885,0.14541300494728202,0.1358530206573608,0.1159727178277633,0.15045787817414794,0.11346443004699128,0.7113500031258901
0.08343293131397539,0.7308251051235262,0.14031328082513134,0.12184335435838341,0.101257745952966,0.12546942463412758,0.09963114448368461,0.6644495993063908
0.07359560179551634,0.7040935769280251,0.10816564064473103,0.09934505369543707,0.0853131458388631,0.10224490184347074,0.06468746455702284,0.6154892186888491
0.06641239794580281,0.6869842681586629,0.0845272357953998,0.061370881660405135,0.04675432574854823,0.07040715353179072,0.028579804425293696,0.6247016183471418
0.07529099960567542,0.7385226185900671,0.10159321736040697,0.09933922331065836,0.07616896740225111,0.09860369751693113,0.05755024349029089,0.6757067115966032
0.11186960713611034,0.7566158025825688,0.16254878627605474,0.14778489199242992,0.11492574057368385,0.14606019610132545,0.11741934664167197,0.7070371558084351
0.10027690268714315,0.7513649237606795,0.1581330706619955,0.148503483617041,0.10146540901638057,0.14918424840113562,0.11587342118567065,0.6579072576640859
0.09168043334843798,0.7294790661455214,0.132282850216688,0.11982507511374683,0.07976914892399906,0.12421188364787417,0.08678163866042586,0.6412154875977303
0.07755069383540694,0.7432382345862325,0.10614606279926274,0.09209223114048246,0.06557338435702481,0.0916581243429761,0.0520861653774571,0.6924766644380572
0.055356390197367926,0.7188218906081172,0.07357369172838285,0.057376506098751584,0.05502138886067224,0.0656992380478998,0.022403236911419523,0.7170408561516091
0.06435757092242567,0.7142458298773997,0.10021215041131844,0.08103535021729436,0.05250464924837796,0.08244827485994835,0.038007985469138805,0.6786524954137709
0.10223265435096476,0.7428742981235597,0.1695430087707377,0.1553029924685643,0.10845904535048279,0.15114974707513573,0.11106110400651933,0.6723039888084436
0.11684554247915599,0.7339867613136496,0.167204122474832,0.1711608928493612,0.11880810140416447,0.15709021014316665,0.12793923321191786,0.6414120515861822
0.10734590689296741,0.7498534523778072,0.16790621379607457,0.15160951316475696,0.11496589537226472,0.14113778078898773,0.11181021390111912,0.7251969877785913
0.09118467098241788,0.7399072079937186,0.13194094483070554,0.12020249948479637,0.09730649518131756,0.12835119195012576,0.07462820805668047,0.7331283803081483
0.07149174723339746,0.7081164309813288,0.08848581138671793,0.08333234703693583,0.06301991107524975,0.08808386819084506,0.0421447308024399,0.6545068622139889
0.07648323612281122,0.6712590325188319,0.09037480916690657,0.0874572854211722,0.048773188222154214,0.07153547475475511,0.030005496795990065,0.6253787437919459
0.10584256708259081,0.7284315967448876,0.17506651695574577,0.1700135725283476,0.11771882912928358,0.15338111980471675,0.12061934384570183,0.6631303161416664
0.11279388478999772,0.7650292075330208,0.18229126966176562,0.17990529773579383,0.12248305124603101,0.1695161344573345,0.1361958329250585,0.7216180318121113
0.10942385927575121,0.7673891178901113,0.16577577012682904,0.1512708179672176,0.11172636612028146,0.16076433941530321,0.10945756166683158,0.7481033480866924
0.0971421984641106,0.737254220110088,0.14186361627442853,0.12467693870293417,0.09219289054915263,0.12002296516443622,0.07113738901683478,0.6315978712078945
0.08319545536537007,0.6942578264082355,0.1092930585908382,0.08718077617603856,0.07218301536729003,0.08516108100107447,0.025271932885941747,0.5951834964248365
0.0698199180739284,0.6973188346339052,0.08947687033352972,0.08897680761463206,0.04568185619538654,0.060369072939461525,0.00785420568742131,0.615548977731439
0.11363394392039444,0.745224910277739,0.16611674999818066,0.1604805448310313,0.10195281684617367,0.14155896028473003,0.08973232284329613,0.6669471365446081
0.1100110657666325,0.7445903511883292,0.1695807974437862,0.15903452701233536,0.10478167439700956,0.15516534412559366,0.09907909851844444,0.6396017956152082
0.11060385063449875,0.70687038220074,0.1588989957876322,0.14086908990275623,0.09799930432991252,0.13435651957119543,0.08256684013949922,0.5845567073430545
0.09728063712972099,0.7168457343168924,0.1299786260227599,0.11883873644768905,0.08441924867337638,0.11154715269061483,0.05939886143003964,0.596058754210603
0.07358662826489668,0.7017367212952693,0.10455586727176926,0.09027268339818112,0.050064925652303874,0.08152611336254671,0.030730357263201086,0.6554290566548681
0.09652458877269615,0.7341142622569597,0.15679673183454634,0.14742219254522304,0.09111210043800966,0.13215210178802192,0.08492299826231264,0.6753435927526109
0.11537755784582222,0.7541616992417852,0.19111620873370322,0.1814272627606219,0.1188117054647243,0.17184539628872864,0.12067265320560211,0.6523298085859508
0.12464372298740245,0.7263856219443234,0.1786906462100627,0.16652524498382762,0.12250131999450903,0.15977456401456455,0.11289600395015685,0.6091072992811379
0.11475738233769299,0.7136996073057221,0.16412858507810424,0.1557757232277282,0.10152795231619166,0.14607383879212532,0.09834474601410281,0.6355033759277409
0.09659930532971536,0.7234789884472921,0.14144771909066098,0.12486799579915384,0.08458335200831259,0.12726211577564392,0.0683045267817156,0.7227979736785032
0.07087379978223553,0.6793304106169995,0.11306159797526397,0.0936554598567132,0.06623365728906631,0.08779763196407393,0.03460995705824793,0.6423624124404362
0.11716810819469711,0.7246273928916982,0.19113031691745996,0.17319049173731033,0.11263627626405648,0.15924452688009993,0.10657707213166226,0.6001589697611421
0.13443611435439662,0.7389390603033618,0.2109584060785491,0.20197965797654305,0.13520449747500032,0.1861575219791725,0.14044825190586172,0.6357886298343647
0.13381997012611152,0.7305500430571674,0.22102714080647368,0.1965062813058415,0.1457239818684261,0.19316453028459096,0.153132832627235,0.7301746862537754
0.12290163802324047,0.7509439694846164,0.19166806989948948,0.1719542939288538,0.12328995674594723,0.17108791752126298,0.12686635765139795,0.7040346021449241
0.10150494315563373,0.7298526080419468,0.15793450077351254,0.1354098976925549,0.09196599745883192,0.13163028472879418,0.08085353305147351,0.6447286127442534
0.08586292072386234,0.7039685748180342,0.12138215852645484,0.11019276005467582,0.06987862314700014,0.10310531259762842,0.04815398903109279,0.608217970208647
0.12213131633457364,0.7367286040145091,0.19307390202132874,0.17726894778859972,0.12365932714549392,0.1782717176406233,0.1241701183437783,0.6774947050595276
0.13114389173477597,0.7737197561404184,0.2075234960089481,0.19305495795249122,0.15919807832064728,0.20150929350780417,0.15249589904830924,0.6938786711411881
0.13462785447530276,0.7769915938028826,0.20376493889697395,0.19005083156478314,0.15054939616137203,0.19723843233166363,0.14402301455466662,0.6735290416566164
0.11650831288889948,0.7331348972660849,0.17843211817310506,0.16104938591688292,0.13299751022567474,0.1723574522548446,0.11892140069976845,0.629423389698426
0.09421461381293118,0.718180770788749,0.14136898061983624,0.13666748151220998,0.11514141974229188,0.15635241622825535,0.09270258750545014,0.6004541622622898
0.08940849023306163,0.7479250831291859,0.16261893748284345,0.14300593939450507,0.11171050789068272,0.1511526747043024,0.10029006842530767,0.6557704270371949
0.12390002993486611,0.7767972351920336,0.19008395693880537,0.18995311918530955,0.16173979720882078,0.20854547459602849,0.1705849430574461,0.6919042719546193
0.1245651052121384,0.7724375287730236,0.19308661791375187,0.18058124248079224,0.15567588611094543,0.21113856799814562,0.17097972597674335,0.6574043766565814
0.10975935913923679,0.7454043926390918,0.18128919904083834,0.16798230685653642,0.14578526146568718,0.19854695788529367,0.15328243128351599,0.6151478016217078
0.10048298814068096,0.7013374219136776,0.15080159480977348,0.13437213591404615,0.12462801213563005,0.17297968584679918,0.1270029087314991,0.6053219914620641
0.08129330282230542,0.7028260640369622,0.11779249583323304,0.10007822324223013,0.09459200519388646,0.14701499114788802,0.08790994884361528,0.6090925539180203
0.09508629808247626,0.7524588840448574,0.15581755656545906,0.1524457731947683,0.13856028435727624,0.19125159194564073,0.1533279162442935,0.651887568115322
0.11214018610103416,0.7338274434158709,0.18581305852980706,0.1853667276008325,0.1692423294474146,0.2297091424361567,0.1989945243093707,0.6383713915656579
0.11500076791880276,0.7151234149887526,0.18917069298441247,0.1795243574991907,0.1697464739505102,0.23555755590932118,0.19638686757035156,0.6194584733650219
0.10000512869132887,0.7170929263717017,0.16161979436458573,0.14719376965026681,0.1543496718982646,0.22036392780736355,0.19406675247349134,0.6498609522215271
0.08370910576705204,0.7173961291029556,0.14707110177046573,0.13245361055503152,0.14395366418279593,0.1831899460303477,0.15495349097962013,0.6578577109079892
0.06383665527580634,0.6999442239314122,0.10383732627136977,0.08703231442281942,0.11763218033837688,0.14579749555054392,0.11549968660355359,0.6099205738027103
0.08642999980431952,0.7093164984488558,0.15266902724260145,0.1392793335082074,0.15795479600966772,0.21073421719309893,0.1845061344926217,0.6054944644647862
0.10236821889536882,0.7358946591028128,0.16381362652771408,0.16524980502556155,0.18938780569101207,0.24349112963115205,0.22415304969904307,0.6194126332239122
0.0931554652859829,0.7382615985828971,0.157533387474398,0.1506737236623516,0.18491485640988214,0.2353470913246275,0.215995750648629,0.6423256431500918
0.08442385562337318,0.7243854174116571,0.13993760331844407,0.12055404082900661,0.15858249570842672,0.21433608128202458,0.19108995239063278,0.6661276282737629
0.07781834027320723,0.6923855831201382,0.11391620905066471,0.09670305950550083,0.1467507668259874,0.19785577760902615,0.15657679695393673,0.6173727851050124
0.04915301852959707,0.6890174113337714,0.0708193296907911,0.05711690523119477,0.10700072222893445,0.15212203272066524,0.11167031679992948,0.6179261939814641
0.07276114911437156,0.7391733577833954,0.1162511585223768,0.10254187194459456,0.150977030243386,0.19905513886707515,0.1539756070492002,0.6346335647969971
0.0843221398377322,0.7502552605264441,0.13226522562248139,0.11482347117067548,0.18472110948420303,0.22177086999054935,0.20747684872053668,0.6637034888102563
0.0893696954561646,0.7356808189300595,0.13164353861308947,0.10867607671165344,0.18207272933741334,0.22359949431641968,0.20287607158949872,0.659185297420214
0.07401524711767152,0.7000464546024225,0.10992862192115053,0.09583568254612734,0.15027927471683084,0.2026917623021439,0.17355642350511796,0.6075555042131189
0.059136918239836994,0.6570517821686769,0.09103450267112272,0.07906101510139704,0.13775147448265393,0.18243513154309385,0.16378555904996617,0.592591940542999
0.06306956408247268,0.6695914439498413,0.091067264813483,0.07646290856585411,0.13542368843594643,0.16705764570963566,0.16065221573895028,0.6196358781666578
0.0878951604307906,0.7426804197869216,0.12796019804313333,0.11986681836354757,0.18927135183458824,0.22652291604238153,0.21958502926165543,0.6539801812569654
0.08750257968911021,0.7067583669795714,0.12523171032467512,0.11860289505857817,0.17346383097442808,0.23429985374104068,0.22389485702526923,0.6389789272710563
0.08146828745754543,0.6716309994213312,0.1164746381983211,0.09663710283379161,0.15603750289315566,0.19941574680767335,0.20288239267520214,0.5842807859796589
0.06842387951515419,0.6956485576636969,0.09311106713791785,0.06856062182108003,0.14750804470679318,0.172960549054866,0.1737247675268774,0.616542273138441
0.06326120877130943,0.6485271972595649,0.07093483149411743,0.040723047893461053,0.11125708800255485,0.15637466110585235,0.12485356114963428,0.6001757918362866
0.07518137389344255,0.6947422770771922,0.09240497183163636,0.07415717088988971,0.15175120109920204,0.18883189948079004,0.16281992040672955,0.6629628948974495
0.09993543744705849,0.7082035398990576,0.1367797916987072,0.11520072435781271,0.18302538484212463,0.23418304115829383,0.21669338949059422,0.6374133974356376
0.09191530938189946,0.7085660832236754,0.13250050275941072,0.11701992566117178,0.18830318180555206,0.2396346411660295,0.22918009865836625,0.6066004376352965
0.09079670786106694,0.7297393160764593,0.12439679668671225,0.10123360081271965,0.17313435788141673,0.2140776780666866,0.19984466623587496,0.6368579510177562
0.08720774066640757,0.6991732701454589,0.09240454196841395,0.08236834412014836,0.15590936152958645,0.18793922963093038,0.17684885446641135,0.6820770523931449
0.07019637953683236,0.6887431830403447,0.07668611159042542,0.05230166596091654,0.1331191447968903,0.15695214045395087,0.12783776095438779,0.6561846987166114
0.0831342120826471,0.6985834718799728,0.08897376559077486,0.07248066793047425,0.13904016170165795,0.17208702725673988,0.13699662019084316,0.6188092271809595
0.10273763934880795,0.7006890068897769,0.13412903454036026,0.11892436194664306,0.18557842921662937,0.22034023062057906,0.19291745001353394,0.6154425543078285
0.09721164727001769,0.7155725593641187,0.12743998815527627,0.11804904984657866,0.18603123317205014,0.21703398726174614,0.20499598079969555,0.6785192180602692
0.10172510020950865,0.7119865458047309,0.12013546400967764,0.09387673561485212,0.17020548206141498,0.20905559036909696,0.1787798288983466,0.6652578648759646
0.08937715726405362,0.6878259983146524,0.10732833165449686,0.08608571141183224,0.15415113953913778,0.18572019170022958,0.15437364540723528,0.6551517983525326
0.07178502814044989,0.6563649933267356,0.08948161251178738,0.06502487814553501,0.12625671819248988,0.15881203834763608,0.13408264121440178,0.5769689229858233
0.10086347772199897,0.6644406497404962,0.12867989017225331,0.10623348398028223,0.16279805254211815,0.20646476326066457,0.18656011174533174,0.5779019426527257
0.10535801618636269,0.7005881865369928,0.14135873594181314,0.12216418994239003,0.17659959724770588,0.22414229317801848,0.20691428034292295,0.593872774142166
0.1092277896607369,0.7026620228425107,0.1247958918345483,0.11646989754402769,0.17668921603152304,0.2263075131869473,0.2069090981030866,0.6235469774931904
0.09644337917359308,0.6740455721966339,0.11024395715432354,0.09265586526753067,0.16220156017611653,0.1866487236388695,0.17949592657389124,0.6530294294470986
0.07451383595300856,0.6162912375947154,0.09046807051153703,0.06552198465290782,0.13598014294775873,0.1614302781432835,0.1491503845405548,0.5849258363843399
0.07159967151177485,0.6571161525739269,0.06640513735213714,0.051997692707617074,0.12040456341133249,0.15138356018209032,0.13638445351413028,0.6137532552595076
0.10704327233080319,0.7153159630082151,0.13698853523535226,0.11499911312677577,0.20192504667931624,0.23196979264583367,0.2166981889714841,0.6783341442372769
0.11467212610966895,0.7142919972198245,0.1446774631851549,0.12278988299008843,0.19895369030154011,0.2418214326692768,0.2293464213202174,0.6937268723931298
0.10511129135829483,0.7128061986927736,0.14655954573674307,0.11478012031770217,0.18918302558200992,0.22271623178778766,0.20461642755286352,0.6287197879903376
0.09968293025396216,0.6729091013957905,0.11638915760786982,0.10100390578075978,0.16459910524751228,0.19806480110391297,0.18338966334393292,0.5924186238526393
0.0797108418489487,0.6731499972268448,0.0893812338369583,0.07519094075093358,0.15227479396332905,0.18495806504788634,0.15494598923595754,0.6359865334608678
0.06665815536273796,0.6552319317750643,0.07002298412579105,0.05171976218630983,0.13636082942945504,0.16514483787590808,0.12434401691833755,0.6789257272183493
0.09556939830481065,0.7119630221450594,0.12945848682830818,0.11952120706681316,0.18524265762053665,0.2294922996632668,0.20765077443283256,0.6519489133932622
0.10375746638190546,0.682590437600119,0.14432096350317067,0.12533383820852712,0.19185846940431098,0.23410893220402998,0.20310087617539352,0.6184554962846313
0.10480061542012489,0.6766945564525414,0.129940652646583,0.11842471885831594,0.18381645420612747,0.23394872855077203,0.20267204940011305,0.6110725437346602
0.09283761319269637,0.6866130866806929,0.12154587369537206,0.09733692661658613,0.17114339276499646,0.20385518324278748,0.1771680830113193,0.6663045020039676
0.08670712268150697,0.6838669301013253,0.09800056857806766,0.07398276769970363,0.15252895751775364,0.1697747528271853,0.13703222806109416,0.6612013095137051
0.07738019315546632,0.6782437787399113,0.07800267296484455,0.05744053154547526,0.12077882815276737,0.1631356860197772,0.11743309114959684,0.6064584920807621
0.08711746764794447,0.6887480706645497,0.12618150736467598,0.11746434186218123,0.18401182826485615,0.2157106088989012,0.18833385893462956,0.5870800879847162
0.09854036655651222,0.6873689240010841,0.12725037531378425,0.11776030533873139,0.185465055577915,0.22934094862634247,0.1960520154283297,0.6095380904173702
0.0935206027598314,0.6807477128055374,0.11747670847131696,0.10509723793877403,0.18220883195243426,0.21092721159916789,0.1769300201982057,0.6688570160409594
0.07877513757486918,0.7004909274631771,0.10418638477807102,0.08541749988590767,0.1558946597951641,0.20061284538577742,0.1612842759918361,0.648884440346286
0.07114850486688942,0.6464905695354308,0.08281179239390846,0.05784153241089937,0.1349252339097601,0.16400636037985772,0.13087821693158677,0.5805808718024796
0.07887772165595561,0.662943619235662,0.10292812675917822,0.07496876855713969,0.1578465570415275,0.19168752961500185,0.14892430160912942,0.5777232978634849
0.10641981483087326,0.699159292808467,0.14198279286050303,0.11832829548840902,0.19082034556487826,0.22770755154745498,0.22132697093440168,0.6347929325153653
0.09710100972717939,0.7230042924953991,0.1424992927415064,0.1229916582066719,0.1957235611855161,0.233754407135794,0.20557288650638378,0.6782886381256953
0.09641918996322577,0.6725590408651537,0.11934169864394525,0.08785444145047902,0.17593696135380194,0.21563944053489204,0.17023083246326767,0.6712096518881935
0.07936928878896558,0.6411524840573365,0.09462385820218351,0.0731967428565257,0.1513287740817275,0.1788012685776636,0.1540852866416832,0.578059685430939
0.0617731001837912,0.6160640665785216,0.07380810248113802,0.05537996315583025,0.12778619864843963,0.1540343924936443,0.10609801530771505,0.5632443445495421
0.09227519176657237,0.6524789334370034,0.13978379510163286,0.12060480579024181,0.1766187929671518,0.21604686653886757,0.1800598232577168,0.618353265482613
0.11317466752422062,0.6956925870729714,0.1584244263137353,0.1333743962340467,0.19925679544048502,0.2557369669321344,0.22847400260563228,0.6822197600257299
0.10557748568850164,0.6901934874943783,0.16041702167671268,0.13671963064953366,0.20786677744767737,0.24815910728659335,0.22274445124945186,0.6285305981568762
0.09911762222228492,0.6625411288092177,0.13599185565151392,0.113025539511731,0.18667797277795503,0.22854538605328217,0.1805209964773204,0.5875165420777131
0.08939115443415402,0.6254240242805992,0.1039945075772303,0.09338330781633156,0.1663549511467782,0.1978048356498325,0.16012186860102534,0.6131994949912654
0.07277276117689888,0.6573219550244483,0.08414844870260856,0.06920743669291993,0.144001273546805,0.1782507194603287,0.11846666380798454,0.646994994467652
0.09212190021069562,0.6950585396339659,0.13718771141132075,0.11491488926771146,0.1823875530588842,0.2267674817282589,0.18993993790265554,0.6645228016905216
0.11167357220603139,0.6820406472917365,0.15977617799701577,0.1407516470744431,0.20936850099587476,0.254795138007608,0.2271689785994378,0.6366242106139929
0.10727863314120685,0.6652235708086598,0.15370029721778744,0.13672498349667483,0.20596665227834518,0.24618744394337141,0.2180111092823911,0.5722934986589994
0.10306720115498641,0.6780382423522647,0.1410531291017665,0.11823187520389314,0.20211155497544514,0.22887996117470893,0.19732971222449794,0.651811949265293
0.09346291572966016,0.6902875703727243,0.11253038924705484,0.10215484470979637,0.17110879463252843,0.2018709064679439,0.1685142360065031,0.676558415171747
0.07337536185877874,0.645004198928764,0.08277745015174819,0.05778351681585339,0.1389322715352379,0.16432201707602673,0.12273700759277262,0.643830243084144
0.08825797441524062,0.649671004829786,0.13598045969195444,0.10983123194773067,0.16646137844131143,0.21950892112141934,0.18979450251771052,0.592504619891465
0.09798141902551433,0.6810608507259266,0.14175433051238687,0.1219402059623122,0.1997110157174159,0.23978336362224947,0.20618285172681194,0.5843933487686443
0.0951639399166911,0.6844600253995172,0.1394795720653776,0.12431883719719773,0.20033331226610085,0.23969433789126196,0.20580001803991557,0.6494152669410704
0.09352167389821796,0.651928129781281,0.12004507288673583,0.1071629207435256,0.1749517215387656,0.21105425024982297,0.1844224894995476,0.641035181587685
0.07372749247834506,0.6578164724510626,0.09628607507754934,0.07981658642287087,0.1632234390636852,0.18395302995651,0.14040815557768316,0.6080170952979185
0.07713189581979016,0.6202095649736001,0.10460588741266243,0.10416532221071834,0.16595081435886985,0.19485306455890794,0.16587376865961545,0.534246197229889
0.09757617257135505,0.6783291713800611,0.1355698900412767,0.1280315684962071,0.19721561531227377,0.2320349377778063,0.2170731311326182,0.5738683422553831
0.10064599004480702,0.703255128307571,0.14564252887178647,0.12908851920259512,0.19782478348026092,0.2470825536119475,0.21529264143366805,0.6448672177349563
0.08063847988438905,0.6791341530180119,0.12964446817151096,0.10768113099188609,0.18444047251798065,0.22315305176745087,0.18637293579750894,0.6281983831957416
0.07155756597489533,0.6598887414470259,0.10199619713803523,0.07991638855322765,0.15944465255465817,0.18627890178565976,0.14170364674510044,0.5698664899042631
0.05394747185219714,0.6296470589915346,0.07580805315057337,0.05971067774942392,0.12913628761278698,0.1481196821643029,0.11492333180220986,0.5260826413481892
0.08558657807538513,0.6438172270045658,0.12544082309265345,0.10880592066706318,0.18767792514639814,0.21821841910555903,0.18200132455152365,0.5536161703734209
0.09422379245515078,0.6981118636120552,0.14002406938272438,0.12399344227189053,0.2226182701917022,0.24579924986760293,0.22148972906010023,0.6686094693642828
0.09359239895251768,0.6794982317350657,0.14107765377804907,0.11759510006988386,0.20450010128772317,0.24553117714208267,0.21099246727766202,0.6354441897302433
0.08641023547329624,0.6378159818626538,0.11046406267927902,0.09127631662883715,0.1827276095264296,0.20855970858916148,0.1744256062468293,0.5889759944340005
0.0719938717002839,0.6410687046721852,0.09661052304108969,0.06316334764436439,0.15421945404608345,0.1759279871901271,0.14477709997378713,0.5668501217163421
0.06333155210721253,0.6195515143333628,0.07663234933680582,0.05326353836828718,0.1461131418060536,0.15788393209888166,0.12410180736280638,0.5965317391932154
0.09009808394463878,0.679816411983779,0.13599261917760044,0.11963627311389555,0.21536019923303876,0.23871465301354258,0.20422529526908384,0.6559880791168752
0.08894610831981087,0.6694922531025775,0.14557687971720723,0.12466520363233366,0.21511300253906776,0.24221479754788752,0.20455501175454416,0.6311744738675213
0.0905715453624579,0.6449804402242837,0.13324968135147286,0.11010541884661122,0.20347838983088484,0.22958416145586658,0.19644247307732396,0.5952682156188358
0.0820782506409331,0.6357403676345026,0.11018618658469598,0.08792764407114437,0.17620273508057865,0.19773826022429877,0.16104794166404002,0.6136013047155804
0.06727220111042873,0.6420703158644334,0.08747125343168931,0.05764329460970078,0.1565200783107101,0.1705000144114233,0.12998655621385075,0.6137197366805799
0.05892259533206933,0.6539745924418986,0.08723881688003747,0.0544460546943374,0.16063914671466706,0.15543935510046855,0.12052579453072096,0.6516998752952811
0.08466041572097563,0.66979937205393,0.12959142263745588,0.10077600901290824,0.19390077061680985,0.2094330241703104,0.18035442135998453,0.6511713178122592
0.08428570001165725,0.670674767401086,0.12616857481044863,0.1005792234520923,0.2090752336366597,0.22541482157351964,0.19407699056915087,0.5659727682705805
0.09273941517639975,0.6911820568201454,0.10972197746740121,0.08554083080673355,0.19202091525620418,0.2087625136976594,0.16931906704798524,0.6219680470404021
0.07654494781383307,0.6589439104679448,0.09804376699379996,0.0712429937502713,0.17766869751684272,0.18475410457415736,0.14982514515735615,0.6300913890631917
0.06190125178968667,0.6562683435912527,0.06330779869689955,0.050268228999412176,0.15266065089181963,0.15386519462417458,0.12027385612454625,0.5922377032949401
0.07510976941769207,0.6677201143366338,0.10100463776570659,0.0804881227143154,0.17509261719994584,0.19055339953427375,0.15415903986391666,0.5624244972316272
0.0902584143483275,0.6603412023670914,0.11913441629793987,0.09072146178724505,0.192544209855189,0.20937719903935537,0.18063062738619753,0.5492973425078539
0.08688185633777795,0.6921620133657709,0.12630976536391883,0.09132376898617847,0.18659679058768602,0.21354778280441689,0.178450587048122,0.5987954891960466
0.0730918488745238,0.6789526479685959,0.09740446824206589,0.0764289571479253,0.1785776710733003,0.1837191052742193,0.1422931741697753,0.6359417836034253
0.0574160759288863,0.6282229375799531,0.08070492989935402,0.04730793324884987,0.15214205033388156,0.14895339395065638,0.11127711481644084,0.5523831525431911
0.05262589727940556,0.6542094834571369,0.06792648388285358,0.04890197261369847,0.14111105659978687,0.14758915090528363,0.10623885389000043,0.497461090211701
0.08288296153889499,0.6929424221940353,0.11828170871660271,0.1000700419422649,0.19346231842599337,0.2122931286058079,0.1819063528322354,0.5790802545178333
0.09457600012482528,0.693852181281441,0.12666337932448515,0.10833009408091857,0.2020926105991489,0.22140756400182293,0.19309108951824383,0.6232880537503707
0.07865685499434424,0.6690368304099176,0.12354237317469641,0.10087064808875512,0.20109404386757954,0.20873315789317445,0.1854457767994544,0.5831013522014613
0.07279294568872718,0.6734555163819129,0.09471263435750128,0.07489339818597351,0.16456824502945364,0.1809691662727747,0.14124532552714877,0.5216264960954822
0.05694068921546951,0.6044890401611617,0.08240996798510393,0.04652884813467948,0.14549761081002516,0.15944856411593772,0.11740693794912443,0.5317687022134494
0.06325811242561148,0.6515563770160393,0.09787544612964401,0.06162288463536225,0.15988162617269466,0.17043005131691782,0.1359599012473569,0.6208840950147542
0.08706600377898141,0.6773610856339698,0.1317138450681702,0.11711887767090921,0.20961279902848334,0.24083051055799728,0.20960832399456172,0.640589750129863
0.08975549247996734,0.686955721576885,0.12799082646175577,0.11648967191517842,0.21383152220980203,0.245977654221161,0.21746163779222963,0.6157554276848792
0.08265893226782048,0.6516881155779546,0.12082993604204456,0.09306661730499521,0.19568640832715603,0.2263296226406079,0.18937467508281858,0.5988746269310485
0.08327679471938756,0.6524249684843907,0.1083748341502646,0.06357104003393864,0.18982226671458996,0.2020832364004077,0.1657346341130981,0.6028167297264604
0.05849098143357137,0.6181860178042285,0.08530056256203984,0.04674460848185945,0.16186639321590987,0.17755699203027317,0.13643224191138445,0.6090685071496661
0.07733838050805499,0.6450417375644526,0.10243342149405983,0.08285428755396294,0.18151073390229383,0.2007043928400629,0.15958229890593212,0.6412609955921615
0.09894789214122826,0.6753319471064732,0.14120267728747052,0.1084184109205816,0.20546366858742818,0.24425865463550817,0.2022549465499123,0.5733375354594271
0.09458512136069898,0.6679737269689795,0.13668636078304208,0.09773933180025263,0.20766474717287747,0.2359486522235319,0.19439247388540093,0.5121936935544643
0.08918167887038933,0.6821631767981411,0.1266310030039375,0.08972254050236646,0.19114775428607983,0.22816274642819762,0.17514167142895853,0.5343431559983959
0.08135938978513108,0.6659355543764944,0.10031971316627553,0.07100758564111427,0.17200691067788754,0.20102510855330047,0.15802377458346728,0.5677465407783583
0.06762675855587653,0.6591649554751964,0.08122799872439111,0.05572866650148102,0.1497604931369767,0.18414701326695893,0.13462753542208705,0.5299217891052461
0.08618802424466379,0.6902494675625568,0.12185034609188003,0.10473313990614697,0.19001729641215584,0.23157825288772008,0.189674440516375,0.5097122565398243
0.09286295804873257,0.6658097067892095,0.12259006612636883,0.10844173986495934,0.2080605590138937,0.24513655236907378,0.21232195918156413,0.5378133228083688
0.09473584387795032,0.6835205690703374,0.13257163463583893,0.10633088787139432,0.2038045018790938,0.236189064939725,0.20252982726394736,0.5985634379290735
0.08411377510358081,0.6752858016212515,0.10207141040470123,0.08411019135382361,0.18396770136203394,0.21279693295123667,0.18148525729358372,0.6330984123661735
0.07567751457775676,0.643071118602667,0.08258356619110606,0.05115218889502453,0.16166475930919544,0.1858859661079063,0.13544892766050967,0.5992706857950364
0.06638705952962817,0.6152140474461402,0.08368734448821416,0.057800883623826495,0.1496886247470123,0.183281316936132,0.13427755493572247,0.5530674240225921
0.09474036903759658,0.6653139245205213,0.12984258828110756,0.11295636394152853,0.2085350626867125,0.25478846971897784,0.2122249571104233,0.5724660210983592
0.10006133515625354,0.6553926288121346,0.14073426145253684,0.11910848489999148,0.22285682576790017,0.2706552576997606,0.23066436993077688,0.6596631576889481
0.10117613087498317,0.6303173971429032,0.12951718896723655,0.09788820324459539,0.22128605068815918,0.2460284495864794,0.19939534792453745,0.6612492406263897
0.08297114969066918,0.6492540401122262,0.10550181581265326,0.07386711637067078,0.18779297682376378,0.21794261414069968,0.17917142468496955,0.6299022699146634
0.07251263601031444,0.5874479779554828,0.0762931306673801,0.05568420275613267,0.1615235862532322,0.1868852366006929,0.13707794406360943,0.5883068163777118
0.08355503098855727,0.6134541191797083,0.09317065370948655,0.08059346037738079,0.17266614697275998,0.20878665620694858,0.15013372446004702,0.5934188064112597
0.12036920613104751,0.6864355887586456,0.14703780506602923,0.1296132356488569,0.23281004093384708,0.25889457016983386,0.21687703373552503,0.6472671212496958
0.1246480861754672,0.6849328631851622,0.15085059657238975,0.14003923318823602,0.22185846163223183,0.26971208877291825,0.22485325122200414,0.6230346511742347
0.11558022859063405,0.6276079640396253,0.14026579056879585,0.12213404149123884,0.2103408583246656,0.24578660232230662,0.202901053141577,0.53410872292748
0.10209127435894136,0.6291734921157182,0.11166564369688768,0.09528208588496055,0.18058039254409702,0.20878161158124053,0.1602949571259119,0.5349411973923044
0.09108445219772113,0.6163360745638103,0.08958753392785876,0.05240465029527429,0.15704285901869117,0.17612265516898862,0.1179932726908601,0.6014945282018618
0.09873849011599448,0.6230984606445864,0.12018380373745616,0.09039157746294783,0.17736384124012852,0.19765006148612624,0.14322769986532524,0.6169155667339199
0.12490568471044791,0.6665787509779254,0.1644592463616067,0.13416316175522752,0.20771397857047122,0.25106301392515407,0.19555234764473187,0.6047315914041471
0.13133481331573255,0.6305586301473943,0.16057840685755495,0.14145149969668736,0.20296576538151245,0.2527503746163874,0.19885670070594147,0.5240080041306909
0.1282756507971593,0.6133544801990353,0.14443135301564775,0.132913585813684,0.20011928150900846,0.24062353450960625,0.17423175879157649,0.5563886986961297
0.11115435706794713,0.6186932433094909,0.1400593576693864,0.10579271848045557,0.19546732284476578,0.21897990779276794,0.1598786144916975,0.6254277802485102
0.0958015659306046,0.5870520812574868,0.10230978155128351,0.07579375791084697,0.17267664322376947,0.18738226320242438,0.1277231201748836,0.5942758092875702
0.1302267054125633,0.608439944115412,0.1589166327011412,0.13929273567406777,0.21232424583418036,0.24148884125846137,0.17757039461121146,0.5725666736128036
0.136218900783649,0.6135202441720259,0.1776123223044215,0.14902566799046912,0.21269308805033643,0.25476380677715926,0.19035263900860344,0.5191251384727543
0.14057085271867611,0.6416385421547934,0.16872190440983598,0.1424020065717275,0.21305896624944226,0.24920969101135027,0.17741027301613757,0.5789342213537567
0.12311653998673333,0.6460956295181018,0.14125631359922194,0.1271963075952629,0.1930746682992044,0.22067569242322665,0.1624766591752842,0.6050257494960035
0.10547948425019486,0.6266992155613712,0.11672529058379395,0.09477234681554438,0.1642956473675729,0.18164776695702847,0.12324822752794112,0.5591388490945698
0.09251549655703084,0.5582077418265718,0.09652418392392087,0.07426284951606621,0.1323877540538649,0.16664963951777323,0.09005602060918014,0.5054181845059842
0.128272437780808,0.6171554640067413,0.16549538140910136,0.14228249985616748,0.20392948844371822,0.23803795961351734,0.18541096974118143,0.5488477347520095
0.14389442448310047,0.6581697896588645,0.19016604094663403,0.15952390423272408,0.22849023263368842,0.26580870417848645,0.19942484888903206,0.6176023633421257
0.14709746683180416,0.6442301289612873,0.18375268372288356,0.15077242372995175,0.2177823000384534,0.2434620043400401,0.19117903251648977,0.5934158620337465
0.11722175707836427,0.6045716526003115,0.14631973365276027,0.1274544819146163,0.20034534191540213,0.2221793035597838,0.14571633860878241,0.5508045760562321
0.10438832745899775,0.5675689940038814,0.1256430468014651,0.10095590477507851,0.1612895809494207,0.19886467184505238,0.11336439949051998,0.49575759340535763
0.08234418831369583,0.5713408432518663,0.09114590625639171,0.0807731213475472,0.14103152015829296,0.1619181961035006,0.0849516624331785,0.5591300605431115
0.12785941038611312,0.6454809984511989,0.1686062774164192,0.15060766976559942,0.2137701004018874,0.24748461284869439,0.16779171368592047,0.6132655834030821
0.1311422491253793,0.651765597276992,0.17029448612226955,0.15645521499791687,0.21773948151679653,0.25421768269829087,0.19073442426439036,0.6050356207269216
0.12159064881684986,0.6162634215210325,0.1569787971846689,0.14379479503050036,0.2043113450140944,0.24175830101064538,0.1582632128100001,0.5581666573499493
0.11305088640168422,0.6037151064723604,0.14130567363340074,0.11823863392424969,0.19036803747468856,0.2120331824236261,0.12830196332652066,0.5280936346148252
0.09503226609803192,0.5915052670884917,0.11403640043938383,0.09002723510846071,0.16737705736355915,0.1866141339764821,0.10579686275164199,0.5498105593652314
0.1004090583948813,0.5899941030187247,0.13087907534903512,0.10450705777780081,0.16470240356994956,0.2025165844980257,0.11998597414956422,0.6011793994483334
0.12005230738995125,0.6062764993939489,0.15829012295959805,0.15321381313670668,0.20912999811866856,0.24064022351722528,0.18314989661022818,0.5458831754546092
0.11528680827209253,0.6102570430403649,0.16082610369873812,0.1519046302783168,0.19738800264276446,0.22921826633860806,0.1611424112468594,0.4483645565165761
0.10561454671623623,0.5943862810586824,0.13900538728467526,0.13039183282302783,0.16879921407997162,0.21443124662208832,0.14557382732076335,0.44867476799977174
0.09689124264998701,0.5982831144469267,0.11239864131673144,0.09813553164346238,0.14812484626586847,0.18495025813385968,0.11297128184905472,0.5070775597361207
0.06888448825681735,0.5240388399008907,0.07340402930033338,0.06505468092230374,0.12522211719627566,0.14573865680932754,0.07420645072455787,0.48243484195180864
0.09211437931640165,0.5724601160216936,0.11822253178489972,0.1064971310944831,0.14576557308554702,0.1882226287010096,0.10079888617887954,0.4046271496892217
0.11449198117469203,0.5986699539415011,0.1615012188423218,0.15177707354567085,0.1879986260292238,0.22866886325566033,0.1662456024307861,0.3795199855611082
0.10960790678269262,0.5820183898799615,0.16544399718322983,0.15498519698612398,0.1892509835952604,0.23223007035884996,0.1645582875118517,0.4269657105362661
0.1095748016088661,0.6397214492532806,0.14002209919659303,0.13181653848050962,0.18357630016231682,0.21598388938458293,0.15810932329899824,0.500173133669633
0.09430023891834083,0.6251733117363327,0.11765600875405305,0.09846635557123115,0.14699123476368536,0.176620408546194,0.11890539966409859,0.3862396290119996
0.0660164804863518,0.5569539479977695,0.06852627080947352,0.05882711199308059,0.11243165285707936,0.13261553213808341,0.07227875321069177,0.34540210741320304
0.09061139345995467,0.5757551183012697,0.10770373466685558,0.09823616104798344,0.14194062875960314,0.17413170984431992,0.11187473095060627,0.40267417098363345
0.09441149266603828,0.6238457682441514,0.15410363408167485,0.129967832414764,0.18997845498869292,0.24448911442219842,0.17363909143905676,0.4805575170919767
0.10475552651802192,0.6138654339914718,0.15049441156496562,0.1402092261367337,0.19817611053573755,0.2561070439898357,0.18465550008164897,0.5365436141271583
0.08934478912434106,0.5546174692251344,0.11561489377855502,0.0958650538019747,0.17336224980249482,0.22055065953942476,0.14056082234030337,0.41173873758785334
0.06629099975956187,0.5146114310828982,0.08427563221877693,0.06821149428480704,0.13815985636295666,0.17674659044396174,0.10260803275056385,0.34451941832271904
0.05804539712879897,0.5097421764100485,0.07304398777318626,0.06922632969008315,0.13727611080004481,0.16000285751349985,0.08551256948853789,0.3993594832830053
0.09320277739869719,0.596610787900688,0.1386499097575719,0.12894596232940705,0.20074260453374948,0.23300823658021705,0.15924829125806064,0.4748670914552653
0.08723029479494399,0.5876775959256325,0.1261063528156821,0.12230142885189142,0.198811197646681,0.23235307948552278,0.16168023723131558,0.43160322107191884
0.07463181628259855,0.5439913798438814,0.10763312420218121,0.09620623464498233,0.161525412896421,0.20452678521987044,0.15001971981467807,0.3638718949915889
0.06223615407825146,0.49518950579520915,0.07850843545045226,0.06830578302985106,0.14020958090691094,0.16610517970105113,0.10955531358783172,0.339135231007319
0.044847419771347374,0.5004636295595847,0.04893228837074788,0.037643428370554066,0.1278654525254525,0.13957125872550782,0.07715781036708935,0.39211810230473976
0.0672365727446759,0.5593141167480914,0.09010565783792182,0.08144795997849821,0.15409887171463899,0.18423201375440454,0.12144897019131762,0.41157403063681947
0.09362872671664656,0.5810370303084467,0.13399145030680282,0.11889415055685768,0.19299870738944902,0.2334465425373346,0.1721554538420064,0.4156140949193044
0.08165029824667713,0.545751830414938,0.1256862837794424,0.11459867706715207,0.18657023173427262,0.23813097466559038,0.18011870335165112,0.352895812876638
0.08058384508044052,0.537627771024161,0.10525189435282,0.08995790242041606,0.1763437566748766,0.20880796503216634,0.15462862647101552,0.40656608060096205
0.06863431028357796,0.5478495551336624,0.07252574376551342,0.0771628065564062,0.15805538948691084,0.18988219929714642,0.12043462836784694,0.4579846527969371
0.046622274453745664,0.5676728561255573,0.04845888101426024,0.03228688458684769,0.13139335770850294,0.14979477394774698,0.08164257892010718,0.4625060376053091
0.06399518434642815,0.5590929969077779,0.11129146942436889,0.09925203655866095,0.16670882371306145,0.21610037012400668,0.15030902911336189,0.41286674392449874
0.09128404555718232,0.561988306987407,0.12964218770159933,0.12242702382156685,0.20238927244516167,0.24191034488709176,0.18009067602202825,0.36130693536672975
0.08860379934726242,0.5576646394980596,0.1314860834668903,0.12034389702267465,0.19276454214613428,0.24352259704623638,0.1796916104760326,0.42500398517918253
0.07443615830308993,0.6091468935886257,0.11885950151171848,0.09707854438211466,0.18755249322949794,0.2207455557720232,0.1589774808345016,0.4926511858673293
0.06693487940188922,0.5456925271409698,0.07610467159723039,0.07075543906020203,0.14136414155454272,0.1821458346856594,0.12338577790421955,0.41697326566128584
0.04067110715962802,0.4902776994705664,0.036331606700947885,0.033928506537894934,0.11061808576016131,0.14530582661972982,0.0772682779943554,0.3154952391456052
0.08198720929612138,0.5565188282639376,0.1065423418746036,0.10180814826614214,0.16676896668904023,0.20975105676889094,0.14584370056972568,0.3439809979118587
0.09296563132146476,0.5832736456671737,0.1297597383789737,0.12166565651774305,0.1827885963295912,0.24447823613470357,0.18158034504496331,0.4069629984224058
0.09300467522830712,0.5894908512181155,0.1301719781692972,0.11896855141984625,0.18228527227574653,0.24644575389839135,0.18250912171289707,0.41842187491568517
0.07093323285334524,0.5657864066488243,0.09752976877968118,0.07946940332833416,0.1692878824067045,0.2105914853491999,0.1513265705897037,0.4042153574813406
0.07208220256436604,0.5508222709915402,0.07035544471047606,0.06115748559190427,0.14136761905557008,0.1753481124321469,0.10875535188535013,0.341905967755195
0.07376413953845148,0.5635082026173411,0.09114521947499152,0.08031175038108415,0.14936746518722221,0.19337075073693336,0.12597735838308355,0.3503465536881057
0.09422131617918036,0.5848618624795741,0.13171902288827367,0.11535068988943611,0.18746017584218283,0.24089544808340224,0.18734204250442846,0.4560071740740625
0.10682019059441084,0.6084949420224726,0.13371995269276343,0.1243904912617879,0.19259563822826106,0.23163786121602423,0.1901240640223886,0.444402709065872
0.08512435821574167,0.589287130642174,0.10646342388258093,0.09832478513749658,0.17695370916131864,0.20839589476222145,0.15248783589451592,0.37534530054315696
0.06852197866562056,0.543538768183694,0.07365001395535004,0.07634324215317961,0.14438933160822084,0.177020971788641,0.11900810603242326,0.3004948935199941
0.05171662666591368,0.5519727595813969,0.050207372778426074,0.04529161121319711,0.11378003264914685,0.15422879930701908,0.09021476062343237,0.34689687591238483
0.09727093808082705,0.6014429707603177,0.12662675250509658,0.1141813245821127,0.1804149751997929,0.23177740778534317,0.1781581325433508,0.4275327291001363
0.10604761194365642,0.6232421012270672,0.14243436604379595,0.13927240959391754,0.194723311660831,0.2583023941881315,0.19665154973955412,0.43702763971623404
0.09400311162442507,0.5852183865375833,0.13176189641363092,0.13497930525950078,0.18538403491826452,0.23808125108999562,0.17639994343113247,0.3361305945298556
0.08889609089514605,0.5665544221213893,0.11653211161117377,0.10927855337171308,0.16834690836878652,0.2219240499206898,0.1459578962662981,0.3364585572886035
0.07852173676350474,0.553518500054329,0.08514989819761609,0.07554858716567306,0.14541433457439545,0.19107405606484304,0.12324926813144632,0.4020083145904058
0.06940897322783009,0.5765314006969982,0.07463530293892012,0.060029704250201696,0.1219067220663529,0.15965887056685885,0.09273349079275088,0.4218493788233283
0.10193639428825566,0.6400888606199103,0.13357378500183903,0.13405807436363307,0.18335676733880085,0.24156657677797821,0.1700135474348498,0.36533236591050927
0.1105502396607615,0.6300814803739812,0.15805255600193566,0.15311784292860584,0.19718698222664835,0.24786363986912066,0.1892531820581275,0.3689402780650683
0.11075381005651558,0.590779800412046,0.15244850864533782,0.13831813203212334,0.2011392422342295,0.256774386189208,0.18798723910129334,0.40981051715642697
0.1045315930635995,0.6059973873083915,0.12702368235255948,0.11690599637228416,0.1737253001264772,0.2222951735958374,0.166832488376687,0.3998227869572314
0.08994494480017666,0.5855410707609872,0.10775293395993771,0.09417438007037952,0.14059425630178926,0.18246691606102422,0.1279157265739817,0.399302447889397
0.06905483632899662,0.523657448608616,0.07012146986340817,0.05860867059592182,0.10284100972062793,0.1450209711662582,0.08307510154702538,0.3568864291991903
0.09538828473369873,0.6114918321775563,0.13320538846229454,0.12653855965410488,0.16010987185923303,0.21077928816700825,0.15425364553486975,0.35780114728947554
0.11104020732723144,0.6204042955307197,0.1554060791781981,0.1403107071344679,0.1956739126028926,0.23960259509712076,0.18151643546403357,0.42642892727904014
0.10776401720692867,0.6090527254462867,0.14291331656536968,0.135757238760401,0.1895902272898684,0.2407724249521638,0.1754573197924882,0.4448475780327355
0.09852970871813721,0.5836307386060263,0.11801873120237004,0.10825401553432713,0.15495821271058208,0.2121933605558064,0.1429203303495601,0.39609708068184263
0.0815449271454696,0.5652502092603149,0.07901211931822691,0.08915908067960573,0.13469895629395137,0.17816272180313208,0.10165688423230923,0.35829206392016677
0.07548856005518564,0.5852560450985619,0.08948199813607957,0.07916953364351335,0.1295882910075244,0.17213930279982223,0.09746700263804167,0.36147734127636877
0.10786492278557999,0.6246132051321814,0.14517959261185095,0.13366460025495322,0.17836311577496988,0.23434579902018338,0.166493262897713,0.41673159867517534
0.11016816896536759,0.6369430066593459,0.13978118393319588,0.13533238228237193,0.1855489141524458,0.22624481628661364,0.17076190118073076,0.39859001245643894
0.09656966835425075,0.5928738538448453,0.1295011474282651,0.1145132564508521,0.1639515797858163,0.21259220444081198,0.15025034789281516,0.3771741762358247
0.09382687728826951,0.5891436014059497,0.12033636107913401,0.09641983253796205,0.14094823215406813,0.18280068273629035,0.11947080474655176,0.31767544792210584
0.0742676020004244,0.5998655066549926,0.07737655934019369,0.0613584780747735,0.127742083907545,0.1513600254855699,0.08262155972903396,0.3719538328176901
0.09409550803941287,0.6317926560837981,0.1467055042318018,0.13014991154754993,0.1704588540842259,0.22387139655459018,0.15923875422349754,0.3960514707732188
