0.0021921955282577454,-0.3798925538382705,0.11289324448608294,0.057199964349790494,-0.005538035693786721,0.04629173729342896,0.06036867546486846,-0.45201325121695873
-0.0025236688941460248,-0.3835818726723564,0.10023164586141242,0.041944788026738164,-0.0187226060663281,0.03492138478637216,0.06720143506611503,-0.4451476805666974
-0.008019738729993387,-0.3953578351325752,0.09024992927182035,0.04175698380882786,-0.004387560902062763,0.030352528049927868,0.06126001792011791,-0.46330579698845276
-0.021628448658493952,-0.41794579202548343,0.09200134177249517,0.02100342286161711,-0.014803583901110572,0.03681032162211249,0.05254276807321035,-0.4804103276674647
-0.004289253558360681,-0.38957076833318954,0.11197101111157873,0.04465554748515186,-0.0037290137567745447,0.037725630483686434,0.06163932452973653,-0.42004765015456236
-6.110764152148171E-5,-0.374071120148292,0.10914547454945589,0.03773377147850453,-0.009949956838890503,0.023204537659356317,0.06968438227247688,-0.3966747788283173
-0.0014035622345040452,-0.38183603790813136,0.10659781934174195,0.05264033925600736,-0.01012578145443551,0.037959068247704224,0.06540009959045699,-0.34062013821436543
-0.006887374672608527,-0.3973158906321497,0.08986748190541906,0.03747187419769547,-0.011619186909193002,0.031426872655930096,0.0504115687069006,-0.346465252180624
-0.014661127022408679,-0.4119959680536589,0.09266601701440479,0.025353755338602367,-0.014942295333560913,0.025951509737093755,0.04721878910220504,-0.3880295866208885
-0.006597224121704668,-0.3685584602891904,0.10975801457117627,0.046333875588725836,-0.012597612447524638,0.03616679088237241,0.05848024460517593,-0.3412496172762839
-0.0013563472817055837,-0.3783764926606289,0.1104142887303281,0.05057703768998413,-5.276286939159397E-4,0.027106408842682755,0.05692296758208997,-0.33969626739994296
0.002541457626203406,-0.37051144200813946,0.10603292133427086,0.03461832532192675,-0.011106609437887207,0.028538179774225937,0.05095285443749799,-0.38193357886540713
-0.013600620708442326,-0.392837055281961,0.0824803114137191,0.023674534506576656,-0.014447644740663417,0.03542952984162052,0.04464591091160832,-0.4069618317661703
-0.01266632606207227,-0.4162089739023079,0.0967802415087355,0.023856164927957158,-0.020718029574717606,0.026050171729025393,0.051541692269296904,-0.40983704488622147
4.642163466420236E-4,-0.37073559491323244,0.1084327944047149,0.05856043160825839,-0.004644973969111059,0.037808072054194904,0.05562485448384459,-0.40411680718344684
-7.100125409586383E-4,-0.3801959441895353,0.09669205971643885,0.02992064891970341,-0.017787363726739475,0.02916758480062535,0.05318343666503744,-0.3892959662737038
-0.00951046484243464,-0.38518288461514094,0.0975321020809908,0.03416447813238142,-0.012936544609732778,0.018644314440931068,0.04862632297858131,-0.398191614599582
-0.014551727623648283,-0.405344164751533,0.08523204317200997,0.021361220991356344,-0.008911392283170812,0.012560436525957347,0.05062360213210787,-0.4487838919354479
-0.00282689942961145,-0.4013218990184524,0.0843572486173706,0.03170217499956971,-0.01973538773967994,0.03019213796103606,0.05873752793875939,-0.4567147866229789
0.005445035928179744,-0.38383215440855417,0.09446771281761147,0.048366838333856105,-0.02069893197986511,0.028562327440423623,0.04829682751383064,-0.4592572308392186
-0.006138194913647546,-0.3847420806989199,0.0957800668674353,0.03704669416517575,-0.011163547258589541,0.018429488550967446,0.05170315289950634,-0.45937871187949264
-0.008060100871872648,-0.39784654055042296,0.09075468213189253,0.02895173897688922,-0.01012497697404669,0.0346787978810786,0.04984939020548354,-0.4646711469038457
-0.021975240105828055,-0.4258252762297469,0.08906747999295071,0.014054565978626882,-0.01776929056779468,0.021900704379218865,0.03656920709809798,-0.4716698456181218
-0.0045465913857470446,-0.3918033991314805,0.10684043987912832,0.03517391850815011,-0.006981420540065392,0.02975714899141264,0.051417815995061525,-0.45704661356856363
-0.0041784496938079355,-0.3765117282836494,0.09448555631173769,0.03831232655765105,-0.01631898417535972,0.013341611021574041,0.04293164091022646,-0.44794309504847624
-0.007767479165159971,-0.37953431040340224,0.09080192318976416,0.030579035766033744,-0.018454780774232498,0.017045584619602195,0.053391182250331355,-0.4400895018095206
-0.015029781586045926,-0.39787994113737235,0.1013406176559065,0.013389530400155851,-0.010958588598537211,0.0189057092038328,0.03994624339502676,-0.45958716242888453
-0.010362558502894876,-0.4196644434438834,0.09232004384313225,0.010656994421404418,-0.024446025197381652,0.018037531720981152,0.04884580754788542,-0.4519005270631749
-0.004788807984239616,-0.37960459390858764,0.10488113230797202,0.044300285022623696,-0.0077888042666118765,0.029787828453857742,0.04457946431350396,-0.43735204817761486
-6.992691627172736E-4,-0.3739712370566062,0.1004451770386378,0.028642461392056052,-0.01072577762170661,0.026212113078513878,0.052386230283726035,-0.44559880632467724
0.002251210034430819,-0.37624319308525006,0.09737156987058919,0.030034776431647762,-0.007691780416766627,0.024904826422669522,0.04154005528403576,-0.4538061798209815
-0.00912360992329099,-0.3928032541993193,0.0909799530986946,0.026195893245545294,-0.01355030511919152,0.019373356914723555,0.03581055165042657,-0.4582110822658351
-0.0018249850695799066,-0.38616803865930505,0.1139448318525474,0.025256271502056088,-0.008858460680641524,0.015956623793337104,0.024425965607797966,-0.4327064585314155
0.00683525307251608,-0.3374358806483248,0.10623046620251393,0.03429943964905889,9.072352181804974E-4,0.02072689065343426,0.04320254821945311,-0.4117338428197275
0.006025106482522876,-0.35030936320328643,0.1140857814922932,0.030174248135524787,0.004534316247412423,0.01558466069261691,0.0521394419322216,-0.43181699493409115
-8.890892901474516E-4,-0.3539735664917077,0.10525954805635925,0.03235310087270477,-0.005461896179667158,0.023727279342713823,0.03460576299262664,-0.4028234034270245
0.0011237480415944557,-0.3722236686760652,0.08242845398423877,0.01872625462632068,-0.007137798885908463,0.005555525341004052,0.039017139228371495,-0.4432905542262816
0.009637033439986498,-0.3455924938037078,0.10682840675128291,0.04255355901892795,-0.007741108252723962,0.018554921828498806,0.03928733905527882,-0.41428118215725407
0.013905761134193572,-0.3321922387775967,0.108560158972002,0.030158814966547372,-0.015367817886954233,0.024585503999786765,0.04314538651765854,-0.4117074518542898
0.01517667763329565,-0.3333874066129375,0.10955537526843903,0.030310683075336294,0.006241330315752785,0.020112054100593725,0.038535157905909646,-0.39859611016665514
0.0023766137298643583,-0.34739370083699855,0.09573681746747408,0.02020152801608768,8.293288336484469E-4,0.026776803072638067,0.02490653528729865,-0.4301237348632151
-0.007546800612541673,-0.363624270091036,0.11591905000171218,0.02650089181449471,-0.004542897680286692,0.02122221228632936,0.0318658741581474,-0.43033728189216
0.01509448349465061,-0.31192619342337174,0.127196035392015,0.045335342244567096,-0.0021375406928954483,0.028351593049893348,0.0518205596487584,-0.3867945173146508
0.0066758144602559934,-0.3153172972392301,0.10083605088745386,0.03953533793298743,-0.005473054849285214,0.0265666771756631,0.04326142873812233,-0.3872893109531095
0.0061478064262104745,-0.3226911065984696,0.09042675352117852,0.037427315025481245,0.00568187753432693,0.022350371398004776,0.05177949316075504,-0.4004541102854528
3.329138378426303E-4,-0.35456868240337686,0.08543407253643935,0.023184050771773566,-0.011743035181715664,0.020266331752502836,0.037654908117622315,-0.4223929526774329
0.010059746791626245,-0.3231463711376651,0.12116771085654265,0.046532060368133406,0.006830897329969873,0.03533902456200536,0.04974852465852328,-0.3643944291516531
0.01210214294198252,-0.3043314805506311,0.1114741238780565,0.04001658819949411,0.010066240199656329,0.02811736522713634,0.042449864487050334,-0.3520666824052053
0.006949049714380664,-0.3029406625345871,0.11195912882938708,0.043729331765051435,0.0035928706341764914,0.0300568797948135,0.04772538503714904,-0.3720305126451676
0.0016701227776186756,-0.32295715254682655,0.11186500424323599,0.0346053530950786,0.0012209985133266777,0.024701783654546547,0.034744964656309274,-0.40412658425664705
3.139330260599226E-4,-0.33036550039047624,0.1096969940509016,0.04183756553452251,0.0027899023098997304,0.023722410078750783,0.042193626514791985,-0.38191900104458704
0.013140613336102383,-0.2957078514647018,0.11724241075688004,0.046837896342533686,0.009031947386190519,0.0321009837069786,0.0418063353264157,-0.368650180496584
8.998673790871959E-4,-0.3123822561020168,0.11203067119201124,0.04096761104176365,0.001968407616287345,0.022550430608873615,0.03777832589009838,-0.36801029324266915
-0.006977626967627716,-0.3205815673262364,0.10313798004057492,0.029872213653840626,-0.008394597423722257,0.029542012519618705,0.03651540934007814,-0.389529336828831
-0.004191629761043677,-0.33865788684025505,0.08824485000776408,0.01785373746354518,-0.011155861915392445,0.02582661252386763,0.04140562585057692,-0.3869810370193903
0.013414181579453373,-0.30394439564008535,0.1085705168130489,0.04186342705433923,0.006761779790114002,0.022600202158757177,0.04568001690657771,-0.3775656064775677
-3.1650333404219515E-4,-0.30380459433170504,0.09344551984025601,0.035657931221571744,-5.838974843375811E-4,0.024974634915425113,0.04682654465137067,-0.3505701283448092
-0.01429611954855514,-0.32791924523457,0.08788889423843813,0.03284159577860548,0.013841185927098312,0.02040891795235897,0.03793695977615159,-0.3372261690762315
-0.009977162646328233,-0.33097816324817236,0.09579509154117725,0.02480717579554355,6.492374909377569E-4,0.023539365626132066,0.04341541888112988,-0.35341842536489204
0.0015680005242863315,-0.2776126302669853,0.11348629898860349,0.04022237665554076,0.005047529621295798,0.021194121402493958,0.05099002557406366,-0.3239376036077603
0.011743008626948182,-0.2850626915071472,0.08421669189154836,0.039796371611320845,0.01016382026638404,0.023665526657375143,0.053480527869924716,-0.31820104377115505
-0.004666519788287579,-0.30325590268800245,0.09722402540161419,0.027068318767893534,-0.003132328688014269,0.019524891504091098,0.049703928005404734,-0.33311783046011256
0.0024191485516938836,-0.31685167335252107,0.09627083374538836,0.021960499696047523,-8.260160833607821E-4,0.018461488749363736,0.0509655173459674,-0.34847947490308717
0.006581910256966174,-0.2848492842712654,0.1118972369218683,0.035859407507894854,0.01258728904325473,0.04337870229708735,0.052745651865764034,-0.3194200177065951
6.731623463517514E-4,-0.2894886979379249,0.10449452631490622,0.023426661949901957,-0.0018861508663909142,0.026630588995746638,0.04323294650264428,-0.2996821130644623
-0.002616864988489089,-0.303159950040784,0.09756309265776048,0.013603611490347872,0.0036036952597314122,0.019836173389026872,0.04135465379680865,-0.29703919934962386
-0.006863851859526924,-0.32175497433373756,0.09183723518473862,0.01959764896883429,0.007337844305427889,0.02415110219752901,0.04818820048583047,-0.322148292556296
0.0035384304046557117,-0.2842500585954983,0.12286678187235471,0.03316152431911277,0.019575339167592635,0.03414248609958181,0.05545442523294117,-0.2791982466639317
-0.004171180465226841,-0.28700316085159544,0.09802687701420164,0.01995356108114888,0.009889183413617452,0.027191218298960356,0.057028483806935676,-0.3093785705514611
-0.0075049582832312335,-0.3016384354901386,0.08661254004804515,0.012781166418467821,0.004832651080805716,0.030185321964099576,0.047693025821189984,-0.3133633898099512
-0.008913532533915153,-0.32497370102819784,0.07091555626552636,-0.007701719892723659,-0.005865174950464383,0.023194846216117785,0.04411026354892773,-0.3230841421486293
-0.003995254449285948,-0.3160702633455387,0.08893429791754501,0.020325555143423605,0.011381996064664324,0.033861906569751576,0.0469136705379871,-0.2783042152516823
-0.013002638830789032,-0.3118140716748164,0.08656166659683313,0.0019294872969676086,0.00274051791490509,0.03627188674708928,0.03945452966068662,-0.30005524530459743
-0.013302820851325137,-0.3110957457586654,0.08469798914765059,-0.001017161677727088,0.0017483047773721415,0.031918256930770016,0.029804481117726225,-0.2857526482636041
-0.013326868295090371,-0.3373476938942581,0.06507375027599889,-0.011296672665241153,-0.00306928662925858,0.020810631614433913,0.03470451910499001,-0.3103953621436316
-0.02660492095374323,-0.35968927614637664,0.06457940016449606,-0.01677085425412599,-0.003542465892322343,0.02748632064407918,0.041203654377387926,-0.30096364913116347
-0.00967206873304693,-0.3253873232804104,0.0862431882084219,0.003658312176130494,0.01797137678325269,0.03111596661374199,0.04315409490872505,-0.28472894139325666
-0.008938566869018049,-0.3368667922600129,0.0831460149660311,-0.0044533147894164965,0.008316971847221275,0.01964885164088034,0.047058379657631114,-0.31196929288691755
-0.02173404464797517,-0.3479130428244732,0.07450730042940501,-0.01566926615668954,-0.001987944451309134,0.022042357906921804,0.04454277267218423,-0.3013616056910369
-0.02495068021764614,-0.39238662162426413,0.06891094779832078,-0.02092763241478758,9.914266866707323E-4,0.013796147205901011,0.03181670797593038,-0.30734683504376403
-0.018283699181466863,-0.3628474690633565,0.08600154406897191,-0.008594860651697907,0.002288409684265058,0.02575693217303426,0.042019822199239845,-0.31146165835951917
-0.015496732029148957,-0.35766501261534933,0.072143958496307,-0.010541778999566325,-0.0013495519681761777,0.02521924070115031,0.03420409370585761,-0.30422033904130924
-0.014681025859745105,-0.3526750186024523,0.08044716106639287,0.004258466179034168,-0.007762876494840785,0.021918798177530566,0.03891971123314713,-0.3059836911887243
-0.006484362591849336,-0.355259597290261,0.09772329425309088,0.006801456937411626,-0.00753090141331823,0.01990919510835687,0.044892365297541446,-0.33873194130349127
0.0037597237540342022,-0.32986788907425957,0.1043385325798172,0.023226584519217816,0.0029064676012547663,0.03848436792952992,0.04610551985058312,-0.3212167656645921
0.006703818574028519,-0.32573254322394984,0.09878144822675589,0.03019966812903136,8.201061325819829E-4,0.03218868819324556,0.06200282091722441,-0.31307667271086576
0.008790093234796438,-0.3245229277334246,0.09970219229563657,0.022526690729245298,0.001270520157711858,0.027248985994297925,0.03182528556370951,-0.33642570596021465
0.002739987397315313,-0.3456925058586918,0.08678347043323247,0.008549365014383515,-0.016126666097797778,0.025184983421921037,0.045334698658293995,-0.3297913073702405
2.0147777213765732E-4,-0.35264444058391653,0.0952945413559338,0.005476598570063868,-0.004797987850608821,0.037537578531907166,0.05094752719596182,-0.3528890413679421
-0.002995906435204759,-0.35467247413933056,0.09115648740629288,0.0060251761237763695,-0.004416073811757276,0.024062930554580766,0.03574629766420761,-0.3277020616873459
-0.0070120024401079915,-0.3670945876862178,0.07853339771446548,-0.00828532229034657,-0.006833007869963474,0.023723936410984095,0.04061670442263031,-0.338033573098076
-0.013027376511793634,-0.3884315287418169,0.06784355177238718,-0.01675413697105797,-0.019482956837368715,0.013402701769653667,0.04513346923540126,-0.3741750685510872
-0.009332034248872564,-0.3842766819481634,0.08611174902747398,-0.010209058208055658,-0.0010044892959495339,0.020104148474456924,0.039790412881704054,-0.3532160336928459
-0.004845800773862569,-0.374451998138668,0.08207247406079039,-0.012907280161593681,-0.012081632318358317,0.014955137034588718,0.04096821797415651,-0.34152250494923164
-0.016461535487187214,-0.3976533497097598,0.08054323083365872,-0.01810217008002002,-0.004668551132819964,0.008652946245284157,0.033962769638171186,-0.35310442004233955
-0.02796254081330735,-0.4207206837036396,0.06424224791300542,-0.02929240578752972,-0.010548476248963165,0.008615440613186849,0.01845306435733648,-0.3696775394718085
-0.010606435661464304,-0.4011518372166752,0.07140773077739455,-0.016092367152323,-0.01027905307349518,0.006462240679038826,0.023092755508377687,-0.35566426267954504
-0.020643151724416393,-0.3988044964154015,0.06911561633459236,-0.010268507658593572,-0.01828715284852411,0.009611164797246089,0.026228500632370047,-0.359446784394574
-0.0235702605885059,-0.40641357353785534,0.07732299436313979,-0.02332271482029256,-0.011694125908904084,0.01266834300610019,0.02494113530082062,-0.3734243462547366
-0.03142400759196054,-0.42660622620193156,0.05542193905609125,-0.03150352930988956,-0.024708483221552443,0.0025470366453496447,0.030878473060835243,-0.4135765548321613
-0.01545514857908333,-0.4001486069862479,0.058904516522919975,-0.027283414979368797,-0.018820044330520758,0.010428507445555677,0.017936294861067542,-0.3972371182852094
-0.014961156789259323,-0.40386994243610125,0.06001687768846798,-0.019785828393719652,-0.02694128535637632,-0.0027124015847038393,0.01858764699704863,-0.3819281456762094
-0.01347491791863867,-0.41179885567464536,0.07491681367752921,-0.02640209077538301,-0.020665628016273647,-0.004944245618155048,0.014884831456509706,-0.41054159085092645
-0.026553001585537143,-0.43213107396499845,0.054512242633718566,-0.030186381499745285,-0.023252883516178855,-0.0019956794763419062,0.016995302181326312,-0.4163036148592418
-0.015113414797203501,-0.4109065979650276,0.07509044068835216,-0.0222053483205376,-0.025746056924073436,-0.0021303887428259843,0.019762322693972927,-0.4091938984042914
-0.015909776800275895,-0.40525568427654446,0.07801734087467942,-0.022910205737044085,-0.020105235867491418,8.158458979222623E-5,0.007209446587646157,-0.40789194693221875
-0.017025726416504756,-0.4139590001568088,0.05642616600780212,-0.024546143057427795,-0.027215749124726896,-0.0020010798982547126,0.018035789850213802,-0.4122777267468992
-0.030522297210193026,-0.4341992750652132,0.06956235373517629,-0.03316789872852404,-0.024271321220588293,-0.004914613203641733,0.011167476852036786,-0.4313214525952664
-0.019136125048724733,-0.4142455946631945,0.07049614827745762,-0.010869025976261012,-0.018544692324173526,0.0012646764778512405,0.015861916902652724,-0.41824512568428746
-0.015111219785667086,-0.40888343666538285,0.07123457194318573,-0.0185332984732738,-0.028509217989732265,-0.002977817952839269,0.016397908676989138,-0.40693278165993163
-0.018838194239146847,-0.4038716997546934,0.08297586638376812,-0.021694420035350145,-0.02879644464617811,-0.004928039457347827,0.007162340005762605,-0.44415019826334223
-0.020951553329983746,-0.43067132473211306,0.07863039826312254,-0.038230020790961126,-0.028070403151540205,-0.006116050675094039,0.009339139823311292,-0.41510909907796817
-0.01665550347121977,-0.41368390067255834,0.07787112667681148,-0.01738830734841058,-0.022833441401763244,0.0013717820777832043,0.02722066970278743,-0.43425566335476296
-0.010090963103636342,-0.4070476410291859,0.09010178703357502,-0.017156451507959487,-0.02444823238536074,0.0017441768765772663,0.010802412754198111,-0.4011941145538893
-0.015138167454622544,-0.4086418451773822,0.08584773198338624,-0.009942069841560775,-0.0196312187087001,-0.016362501391437054,0.02318838282238705,-0.4054584710151959
-0.02357103202279893,-0.4202343503291303,0.061242555230834626,-0.018345454606810085,-0.026132985972195568,-0.005052739785285474,0.008172238277259863,-0.4300493401098429
-0.028663269593843972,-0.42182031830854055,0.07146183738520813,-0.013144126518969013,-0.025510284552997597,0.002474301068189987,0.011658216132798955,-0.42781271344963834
-0.010354330683470652,-0.39337644390393617,0.0727565502353502,-0.01476232214867256,-0.019166430233160305,0.0047430995306308515,0.0189102838144278,-0.4082240832527322
-0.01040015911334685,-0.4055401592135196,0.07584287635888955,-0.012353341365344531,-0.02185906498922016,-0.001700751091571866,0.015204758132341598,-0.4035154399384458
-0.007714275442288872,-0.4126089488363532,0.07826187494414596,-0.020361501911450558,-0.02547848276496338,-0.008348507008130092,0.015992885454029875,-0.44543480198029595
-0.02606471789460447,-0.415747158606827,0.06653954402771854,-0.029688236469192313,-0.027899911391269308,-0.002429505827423708,0.007350848955765001,-0.43659226871535495
-0.010287491860669313,-0.3889315621659564,0.06218033471850291,-0.02092482723656212,-0.02800319215402347,-0.0066878105633803656,0.016196904358866462,-0.3971110853200403
-0.02042304014293654,-0.3972542944768881,0.07074955727703221,-0.022236822391586496,-0.02877799243767162,0.0012493470078286798,0.004344755045279698,-0.41018591717120595
-0.007900520625911399,-0.40939873404257576,0.06389824658624212,-0.031456866323018556,-0.028307282790740105,-0.01576441497120467,0.0035712337840719264,-0.43390103625522114
-0.022221533040793245,-0.4211954427074536,0.06362697945812346,-0.03739426837201467,-0.036184862815633385,-0.020578063608968786,-0.001956374579676919,-0.4323909512470789
-0.008376368129470799,-0.39816102183048707,0.0928403376942609,-0.02015767617962101,-0.030789557694002496,-0.004289156862409186,0.005187247706710828,-0.427507074020862
-0.009228375120807864,-0.38866071287593507,0.0824238916297638,-0.024288051018769484,-0.020260212977849978,-0.02139311739102373,-0.0046772166191822034,-0.4091671121568299
-0.010258491519835345,-0.3790504094738001,0.08577140322931753,-0.03574511851362886,-0.02072416167882953,-0.017059522647416846,0.0032745972666084295,-0.4247947138360412
-0.021750355582805206,-0.4081072640446998,0.06412396194694936,-0.03432729521168477,-0.03327008691270204,-0.022952623271520475,-1.916265808677466E-4,-0.43206171778232283
-0.0033330008319519826,-0.3852218236362601,0.07980145470661866,-0.025719700776976516,-0.026596138426636835,-0.008799528734707136,0.008241896023429425,-0.4291599680645026
-0.0018507958486088018,-0.3676974886773285,0.07365730805982637,-0.022032633714089568,-0.0249382042263791,-0.005763830006582881,0.007269872190646359,-0.39883029098937556
0.0016763236618393524,-0.36344713463896466,0.08887561075865599,-0.02835336604883757,-0.029127656021519552,-0.020460357413060855,0.006125275545475462,-0.410653121331437
-0.013519468908364465,-0.38286578070857197,0.08533779195080994,-0.03437602274496794,-0.034449972952183376,-0.018282282507911838,-0.004463744671077341,-0.425425181979561
7.337344145451905E-5,-0.3790215859317202,0.07348168091162022,-0.021435707239409466,-0.02766943703745283,-0.007936492312509848,-0.0037623697474382157,-0.39775224764968103
-0.0014200079271053205,-0.3558685040125458,0.07506438788805998,-0.025582253240085003,-0.021026910628986782,-0.009904220737592445,0.0044412467196910475,-0.400070307419797
-9.705267474063118E-4,-0.34163417872112206,0.07046813675490814,-0.03157022414025208,-0.03572329251569507,-0.019826200498498803,0.0012102685359631797,-0.3951046775832987
-0.00791951843103398,-0.3675167160973619,0.06982834325617616,-0.04733691370546943,-0.03277540825894583,-0.02050086688416642,-0.007525008827271142,-0.39542023605773013
-0.008702586768843138,-0.38178352215794187,0.0646724610476798,-0.04210429530946435,-0.029054413613800283,-0.02127170275726654,-0.002109158018581517,-0.42280185625551703
8.210937759739664E-4,-0.34389162564192105,0.08292565460256467,-0.03489876433276201,-0.016117135110783967,-0.010955954834799395,-0.0026788755152690556,-0.4042903739887044
-0.0012739346891413657,-0.34075067201021836,0.04725019815043544,-0.04059488350498142,-0.029171090492480886,-0.026800575501390617,0.012453174217493767,-0.40331681765476657
-0.010595657551924254,-0.3569959200504648,0.0664111041398311,-0.048566684874279384,-0.027924310608864546,-0.022562289998670514,0.007781013399672245,-0.4134925458483441
-0.023229714818150324,-0.37631645121896795,0.05853169159781878,-0.05797237804505398,-0.03190193851659626,-0.02092345461069216,-0.018219977823214557,-0.42732761397857205
-0.007207518515438917,-0.3581598674320836,0.061070758310479596,-0.03968576718224826,-0.03310371684171129,-0.021940867457297585,-0.0022394999743934724,-0.3982063100279451
-0.002969319120640754,-0.34169037328351454,0.07536199861429782,-0.0358493004271446,-0.035777590112873604,-0.023208538397163383,0.004791545405139514,-0.3741386983608832
-0.019833015482556185,-0.34899972272627805,0.06986248303722697,-0.044109079347380904,-0.04474229354714074,-0.030246345419775184,-0.0047493265068384695,-0.39742558479518836
-0.01464212255347754,-0.3649329743540663,0.04955366848058428,-0.056896395731137334,-0.03818845566048614,-0.03572110207759805,-0.016427022084745203,-0.4088457468165428
-0.030874877901693746,-0.39220086169065094,0.060189186590981276,-0.05796680757055599,-0.042988999244677556,-0.027423835691165056,-0.013604487424612533,-0.41234615342307757
-0.024307120008904223,-0.3577408788743984,0.05491941344009282,-0.04063857401778196,-0.024433494855123965,-0.0201226834016695,2.81818568019476E-4,-0.4017283409004129
-0.016433549501922898,-0.3539972773964218,0.05406900686296691,-0.03527875777616794,-0.026593649973608,-0.026401603237202646,-0.011302124346613537,-0.3932946653465028
-0.02395270398409775,-0.3713610795331412,0.0582833963189111,-0.05628078432218527,-0.0447088933753814,-0.025323823991737507,-0.007635451624742885,-0.39575990465175226
-0.035003509999643155,-0.38952242240389795,0.04115892864141993,-0.06175498941553914,-0.05891150999248038,-0.030312212019746796,-0.015422460937242616,-0.42932993608218756
-0.02612639756263379,-0.37807767566333766,0.03742213995112044,-0.04064463095666831,-0.041549709928000084,-0.03602473656713359,-0.0015777359083496462,-0.40588148506767624
-0.025205514970941804,-0.3746729062771653,0.05675890220677001,-0.04488196945970392,-0.03857448151469765,-0.02319048261545713,-0.011977118342280093,-0.43720455649561574
-0.024230673441109123,-0.38060664122459525,0.06819240407711076,-0.05067869021710524,-0.05205465393874143,-0.033259279432281276,-0.013109932009403337,-0.4232581944106935
-0.03572424483623385,-0.40623369015272864,0.054654877097851294,-0.05114994606813735,-0.04370179905580374,-0.03810399284957697,-0.018959377192919596,-0.4145031738558788
-0.04034837129017064,-0.41995411082083317,0.03412480655267341,-0.06298233692301017,-0.051649141417387454,-0.04045563579297863,-0.016723790452211163,-0.45050165155057004
-0.028326193249025838,-0.38706491022724165,0.0587528746976113,-0.03927018709426995,-0.04065353658606245,-0.02760475181465389,-0.01519479419237396,-0.4165435420288878
-0.03388779482397044,-0.40459182088292156,0.054690944214175474,-0.04301463326427085,-0.05208884270883464,-0.03797651640905557,0.005368735118953674,-0.41977169027331857
-0.031830802112057056,-0.40855184090219654,0.033075815524552354,-0.0373786238296593,-0.046602096429487,-0.031036481680851723,-0.008016834573270196,-0.41728445938795466
-0.044392582953652684,-0.4380604781183914,0.042330724662755156,-0.05262357125310717,-0.05996763306355714,-0.03710056305652589,-0.01632792650509982,-0.41355741961360015
-0.03663420187349118,-0.4214827956519682,0.057338264614485566,-0.03574374777173494,-0.04551125546355988,-0.03282427702089847,7.84021958458518E-6,-0.4169809101271837
-0.027622816940114918,-0.40649597209411553,0.04353581634291331,-0.03053915633721135,-0.04640060999268233,-0.03672382170009654,-0.0027509402212800137,-0.42526757577200136
-0.03533419414635558,-0.41190894904294095,0.06305251003913039,-0.019208621644321956,-0.03973681156878885,-0.03270335286468738,6.681321225946215E-4,-0.42563769804701196
-0.04317886487735048,-0.43522478106250784,0.05349199667440201,-0.028849382231356437,-0.05141545868545088,-0.04356122808454513,-0.004473659026578808,-0.4418569385979392
-0.04170562670327709,-0.44564561077127546,0.05748219373510977,-0.03222776163038343,-0.055967810160900286,-0.031030740409076874,-0.013614176985628544,-0.47173846285231436
-0.026556713681982744,-0.41348949883928615,0.07019711032934796,-0.01031404337514392,-0.044773774577981616,-0.022520842275277904,0.004212564022055792,-0.4401538354486881
-0.03940516840466598,-0.4149536191968722,0.05580446142724895,-0.01356439776272789,-0.04929991593747584,-0.03034807783112895,0.0016194490338347649,-0.43205352524614216
-0.03338382885472606,-0.4180911116027881,0.07553895619877553,-0.016662716379044117,-0.04303664873916572,-0.02542491552564919,-0.001894539771852531,-0.45868369359972716
-0.04265834955535905,-0.4377642484537708,0.06914661897781756,-0.010725992253335573,-0.061105993458191794,-0.022009436723998924,0.002938083223451849,-0.44899198925455064
-0.03325248039244197,-0.39881260349194414,0.0783159355091372,0.014883438532130295,-0.046862905008795044,-0.02133720142644225,0.014087079177057387,-0.4225183675118955
-0.03294783344167106,-0.4152079792710733,0.0748391454590302,0.0033024034513282202,-0.05993190919774016,-0.024714238647976464,0.002877379844295898,-0.42706141154773264
-0.03173360613025984,-0.41318201430025564,0.07067632983356079,0.0036455420431147044,-0.06558645451648712,-0.030408320142358215,0.009390580844518886,-0.4692356565646638
-0.044769516937115374,-0.4375084968080755,0.05946453896666619,-0.006920759967880666,-0.056000519348597226,-0.02733411381788934,0.00794912467113219,-0.4621970547717366
-0.021041692872994396,-0.40490157677993444,0.0804815204234118,0.009304467938107262,-0.050523519633626064,-0.019431534725214108,0.00513996849469013,-0.4443571774630582
-0.029852063736707683,-0.43976441903093727,0.060487682675779884,-0.0025636440046994747,-0.05067419397353909,-0.027076218180369274,0.01717584573317179,-0.43453468662946404
-0.038979476730939426,-0.4591963059735932,0.05433349034242456,-0.011476318385305984,-0.05629051754401937,-0.034566423081592426,-4.2726874059087044E-4,-0.43891016160496915
-0.043096003743456394,-0.4855486676733361,0.04958089687783372,-0.021006292493914724,-0.055831285336688685,-0.028076947609150936,0.005092598473480171,-0.45590678190326384
-0.030511649075952774,-0.45138240026186566,0.05801483802299805,-1.665330824511041E-4,-0.04714779763569381,-0.021968649189331578,0.014895473376948763,-0.4287858994913904
-0.033415398525002686,-0.44191524739944565,0.05720962893535162,-0.0025997979193890124,-0.05542331390921279,-0.024339065540551076,0.012144999131107928,-0.4225346915145853
-0.03239748282039524,-0.4340387733728545,0.07514376081247864,-7.796585194154598E-4,-0.05453021569588417,-0.033617818396256216,6.692020017677584E-4,-0.4323084564707236
-0.024718786966739275,-0.44702140012393615,0.047386757201927115,-0.015982001420602934,-0.05524650901694759,-0.029168020503926383,-0.011312837577256178,-0.433316839619297
-0.014724713783956464,-0.4288074784167098,0.07350294123604666,0.001706207618049588,-0.04343444937632393,-0.02046630826218619,8.805376601444871E-4,-0.41049956879940747
-0.012605961401506863,-0.4121614240205729,0.05211508207618051,-0.008867888724535035,-0.05050381566655356,-0.025099062234401667,0.007969583727178795,-0.4095161730440596
-0.01890677388589478,-0.41636695784851896,0.06461130150733298,-0.011598380164634051,-0.05629879930224689,-0.03764949027989849,-5.230481378271758E-4,-0.4264739207430603
-0.03457054571092311,-0.44859224530556446,0.042560192335435,-0.0196271921786139,-0.061608829364077786,-0.038585154252395615,-0.007303565702334048,-0.4370077536639808
-0.029966558362624154,-0.4429092672315753,0.0577192574510177,-0.016476129273694545,-0.05370907397802761,-0.03027047748949155,0.0018796338639161462,-0.393354285314352
-0.03445365263601105,-0.4373368484878409,0.03553396965307755,-0.024874871376917934,-0.05244245435568953,-0.03488182396151825,-0.007087415143564679,-0.37579366592210217
-0.03162346947608066,-0.44557830896142486,0.04860471745695047,-0.027499623067110585,-0.0510036716112769,-0.034494208945740734,-0.0056363576083588674,-0.372922689977221
-0.04751041593128637,-0.4583233142439466,0.02370360614614724,-0.039187222393916095,-0.050251546842692674,-0.044495405950278656,-0.012497654897495377,-0.388212347559098
-0.03961589202145653,-0.45847998897350056,0.041430987273523644,-0.03555720465349142,-0.047293323473765074,-0.03553271221170155,-0.0049248946655777535,-0.36836193502285786
-0.02509982530508112,-0.42232401263738206,0.03276193161295883,-0.03324151164633753,-0.037658371148923155,-0.04132370627836299,-0.005342127451862599,-0.36142742600290806
-0.028647703570236337,-0.42154925090748274,0.041874002747496565,-0.0326723104014898,-0.048767505045524795,-0.030080889848661117,-0.003752068739578845,-0.34846475490266776
-0.04592937680149398,-0.44363515462021974,0.04482443354795149,-0.03640109388605797,-0.0511379945776926,-0.0420887272188093,-0.0032846293911123156,-0.3622713459938018
-0.05017769652946087,-0.46144748017938414,0.030517256559301768,-0.049804245914223964,-0.05762514103706563,-0.03964066398051053,-0.01891535329489722,-0.3722668899397737
-0.03816223357623241,-0.44317685818490477,0.04074282633027853,-0.04067264729806764,-0.044908510599606925,-0.03414778960000074,-0.005141730698678382,-0.36836914053228537
-0.03677108673835934,-0.4245125087674163,0.03953870481014437,-0.04458069937511587,-0.03620796748292009,-0.031090409748954106,-0.011665696256281794,-0.34913491920732015
-0.03865902673682375,-0.4273674122058119,0.04526426846897037,-0.034266151671981715,-0.04574299495906661,-0.04186933710298922,-0.01963931321874007,-0.3526090400073429
-0.049416723037763156,-0.44072516715848287,0.039972699151296136,-0.04711296708481016,-0.05560105646256938,-0.042098842317642354,-7.494658436197649E-4,-0.37895710340103494
-0.04960551090342455,-0.46924381459513226,0.0335508881984972,-0.05541533860714494,-0.0621369872681849,-0.049764111109751534,-0.015704532456467125,-0.36403743441355335
-0.044022156213884105,-0.447782840700627,0.028557703001248536,-0.03724457552231998,-0.048813967561493005,-0.03749717872515562,-0.009880206817918012,-0.3658861278516176
-0.04474212640493759,-0.4367026014440711,0.039824461952430036,-0.023527469264505656,-0.046818401011532874,-0.04047697804677723,-0.010856711574412245,-0.33895723242583
-0.04023568573230409,-0.44978210962301046,0.04508431525583861,-0.028571925328497713,-0.05454241832349504,-0.039895470260457026,-0.020654462955886483,-0.3450505251852433
-0.04704396581101772,-0.466960416564994,0.03104010028216647,-0.03815558360253759,-0.05863907486699927,-0.05595172414078001,-0.01969787379799232,-0.36888159555285915
-0.05815350282832942,-0.4996823070053665,0.027425245785394233,-0.04841709508440862,-0.06248222618357297,-0.043686688505965965,-0.0034822578593768972,-0.37179261501264277
-0.05009046398946854,-0.471817382311939,0.03105439444750643,-0.02906930846994529,-0.04968367632203954,-0.037224767203784016,-0.0057111298201573115,-0.3665505327949183
-0.04800960091480495,-0.46281793358851764,0.04144697765561735,-0.024648940927294954,-0.05969983676299475,-0.0408879194786546,-0.011655255314812025,-0.3675484017144769
-0.04830306228278785,-0.47520704702457056,0.03610316582227516,-0.026095895815097372,-0.05453834545442587,-0.03683095694125104,-0.007504298909852416,-0.3779078526891057
-0.0649223004920411,-0.5005976161410389,0.03668103856069508,-0.031182147462721695,-0.057976779083338544,-0.037959175060600044,-0.011672724202233125,-0.40423255579401957
-0.059892100390229554,-0.5161466327434955,0.030959584306963866,-0.03494904025732413,-0.06221970478693297,-0.0562193969971986,-0.004043263173426775,-0.39778458505796815
-0.05979411035674278,-0.4846222346401534,0.04828497619100142,-0.010187891616078477,-0.06213801175363379,-0.033094520004977805,0.00716540288253422,-0.3962640565457072
-0.05499503635272793,-0.49746776072011023,0.04815576555203381,-0.016291691663398042,-0.06316421525100409,-0.03383390257002609,9.026399900663859E-4,-0.4142722507164816
-0.05514046438881592,-0.49133938346646894,0.048825475692457786,-0.013756027276996199,-0.07708043466679897,-0.035606388303796865,-0.0026431415741885,-0.38973628443246366
-0.06650579493068602,-0.5004125314879092,0.03801187951915857,-0.01667472285389296,-0.06995668849121126,-0.04152132671383239,0.022069442022431867,-0.41555920350031356
-0.04046092424593831,-0.4724490669764226,0.052105321249092555,0.01724414733863063,-0.05796994159290566,-0.03719253921976969,0.008645976684450527,-0.4063392056710686
-0.05247045206765243,-0.4779512001577253,0.07029891176393079,0.0018224760897428602,-0.06533052857039372,-0.029569207549098208,0.00626875401945277,-0.40304455494509533
-0.05268555677082285,-0.4676878175657495,0.04385863447790776,0.0019693239903494472,-0.06678292065058912,-0.03504300926091014,0.003776276590208269,-0.41018503014658386
-0.053375421966614586,-0.48111824780424994,0.05464833478519756,-9.698192397834017E-4,-0.06796310028285808,-0.03943148227011019,0.008034878079015925,-0.43320362316741257
-0.0360951063951807,-0.4470295025817693,0.06852985164440666,0.02200169696237498,-0.0569952823275957,-0.030644240303147326,0.022024953748115646,-0.4260236002425184
-0.034372286239165016,-0.43260385256717665,0.06693272159603367,0.02079572745310412,-0.05417855890820924,-0.030780562106082925,0.012470296177535567,-0.39939886821213316
-0.03976535228729465,-0.43149811554018935,0.06920313127098573,0.014479894623977304,-0.06405990199664721,-0.030810002896157356,0.011914851732027425,-0.4163572929693894
-0.04209399444594273,-0.44021272235295317,0.07437771445325045,0.01687315670677117,-0.06356735144126605,-0.038203185551771456,0.009502311204018142,-0.42995791916228704
-0.02483525752123598,-0.40920820299556077,0.07725785755488944,0.03179733455754312,-0.06127515247174316,-0.016215321194456137,0.035041572992477676,-0.40328354802277494
-0.026543281662274546,-0.4028971635295834,0.07314314506126088,0.0328933028063633,-0.05983103190557329,-0.03945055396235009,0.012099438740910911,-0.39948839782128404
-0.03005655172046453,-0.397270752838618,0.10060498360537505,0.03296118160604015,-0.05029373117951765,-0.03287958499182387,0.022081219656337258,-0.4027906326404784
-0.03247825450766373,-0.42063432679632534,0.06571408554155235,0.015711835161350853,-0.059222334382589524,-0.03769455645909341,0.02529942578670301,-0.41685661185978784
-0.029266315903089066,-0.38342219215284923,0.08557007542131183,0.03478372673651034,-0.05666282452815912,-0.026320062462889846,0.008738018410897426,-0.3787539343633202
-0.03712545420047711,-0.38494329884652895,0.09169253840633265,0.025117502458367563,-0.05425756107443736,-0.028228707544925253,0.01883387691497173,-0.36670824924277085
-0.03307127919441953,-0.3932619685911179,0.06361860805322926,0.026506980095374257,-0.05333374935497489,-0.03621794802784871,0.015463372100641299,-0.398853060628691
-0.03908510299038102,-0.3997471860946167,0.0699196982217416,0.013549611743310142,-0.07014146793202952,-0.037461752505182515,0.0070068869604805704,-0.41283483704943
-0.02852627040243188,-0.3966405912955492,0.08493020471795179,0.03220255105154876,-0.05851657901613386,-0.02855532944980588,0.011598047207315472,-0.398456111216309
-0.03412640557008018,-0.3729700552366574,0.077487358084805,0.02773552572589281,-0.04925130496870439,-0.04534036543017071,0.015733456217853114,-0.374034261796143
-0.031522419490384715,-0.3805855103878071,0.07491592761204946,0.012234519974155934,-0.057218789066517534,-0.03993279297844398,0.015021975818347862,-0.36626819124307336
-0.0379135946326749,-0.38643693099198967,0.05547079283814634,0.008047519134954873,-0.057412262398805675,-0.03793998921686161,-0.005198529572047768,-0.3997876186934441
-0.038441814135601576,-0.4002340874130366,0.07494041406843681,-1.5703353885931988E-4,-0.058838908971998845,-0.047106391982584254,0.01781051798345726,-0.39010727355020614
-0.034307649988245335,-0.3746079257652513,0.07777431006080635,0.02041696709367656,-0.05821263803245221,-0.038190096889223944,0.0027214324053875956,-0.35608902701791506
-0.04519765207334722,-0.37792506895335143,0.07384275984291593,0.007052142238783196,-0.056590686287618555,-0.04518658384944714,0.007178671353531687,-0.35474532141831305
-0.03767635983724045,-0.38538214032976165,0.0788988406746377,0.006743011613615958,-0.06762935888559791,-0.04824865597370359,-0.007598728930685665,-0.38465826550452936
-0.04309008026747879,-0.3922904059282289,0.08533014822133618,-0.006494179272347262,-0.07634078013824323,-0.047780718946591194,0.00400104922098357,-0.388819220119234
-0.029231551468304202,-0.36743995419494924,0.07893949397426876,0.021158184133855687,-0.06586580980812626,-0.04706592267262428,-6.184963707335037E-4,-0.39630561348673604
-0.027152711308733,-0.34295151118766454,0.08803647408481688,0.01004216067740862,-0.07026271198419493,-0.0489771963009378,-0.023173289860705364,-0.39667579372817685
-0.021812469953785357,-0.34077861978766405,0.07093954161870981,0.01835557990018337,-0.07817769922856922,-0.04694852294806767,-0.006735548656491563,-0.388809758584823
-0.01895265187965706,-0.32981492841815546,0.07548743151376851,0.017032737535988968,-0.07584423354923896,-0.0570577481910892,-0.015256472409748121,-0.40416960270799984
-0.013837066602268274,-0.31762214145415096,0.09440942474341572,0.02471290710653788,-0.07742284248162319,-0.05113363203481286,1.3873470459200133E-5,-0.4056316609300414
-0.010477817171897537,-0.2954043500829135,0.09511743150232663,0.029478144143684826,-0.06407855999593984,-0.05475959342252742,-0.01736907286898349,-0.41025895097774573
-0.016448600149950823,-0.2995877184963773,0.09118407401757195,0.015152604530079682,-0.07433618253687291,-0.04206542050298647,-0.013891452412654359,-0.37629142900869555
-0.02542866841955697,-0.30645583036672436,0.0694148738309152,0.007865644282579002,-0.07608858564159093,-0.055827861025250454,-0.01727621127994994,-0.40154620183603185
-0.027898731418528028,-0.3230091584168082,0.07347228123937347,-0.0016591728237796103,-0.07562316532838066,-0.05759057990808588,-0.018815619528492478,-0.41114530749289113
-0.014475043825440344,-0.28054478990242654,0.08881899947714496,0.02419143649796318,-0.0762360858480214,-0.05294499366928396,-0.015597980716379465,-0.39648078244587276
-0.02324492328359399,-0.282733546834813,0.07578876554562451,0.016759068658467643,-0.07768960738602397,-0.062064979031035875,-0.027783232183091477,-0.3861254214503918
-0.02263575065626844,-0.2873453559851044,0.07160202468757537,0.0075590830742565925,-0.09037794609781195,-0.06693681579955203,-0.01612078075608006,-0.3843962545477702
-0.04327066202162308,-0.3464643423107523,0.06055759961099535,-0.012274596109304122,-0.08973378594434715,-0.06964893213173318,-0.031646061180465576,-0.42082913267621996
-0.04127457790155118,-0.3552602980285071,0.07666578723752561,0.006874469598809279,-0.08219696575887972,-0.05616741798025139,-0.0230660517273856,-0.3857933860039202
-0.04859434422238237,-0.3479205608851441,0.07045005364661981,-6.520708226747395E-5,-0.07217334362440533,-0.05479520821833032,-0.017872176790946815,-0.389282122508135
-0.0514560501389047,-0.35646863972468706,0.06359846084558647,-0.005144470934263859,-0.09060326922326947,-0.06509418514630694,-0.03094682134831084,-0.38615820275483637
-0.049742342710978056,-0.3832250461856852,0.043468769257409175,-0.01859804722290508,-0.09127192093613454,-0.07744202702159322,-0.027840979160244243,-0.38557724333912036
-0.05250362230954263,-0.39379925895604306,0.042162735326406506,-0.026674091761055646,-0.08691254791096516,-0.06480452483994983,-0.018271259329303662,-0.3703993425125764
-0.05886783966382622,-0.3759326507821933,0.050522263520738526,-0.012276138291570055,-0.07556952131569666,-0.07606842092705955,-0.03571733428477905,-0.3478125752435971
-0.06109192403721308,-0.3820290767853395,0.04025314287374563,-0.02673438012684769,-0.08295608598878314,-0.07056932736888066,-0.028680969513460258,-0.36943754397417305
-0.06616814373560324,-0.3820018676610856,0.045149535982358095,-0.02829968310432928,-0.09000403222821725,-0.07021593321491003,-0.029787462919944826,-0.3713979850717429
-0.07399071470702505,-0.40827009048365115,0.0427430771405475,-0.03587204559133794,-0.09167530375955558,-0.0710950686997334,-0.024344293206835853,-0.3685283233325784
-0.06253486470557393,-0.36953675874520825,0.060198804178961125,-0.005431279279154189,-0.08663207909656852,-0.06421685388367544,-0.030847421791705142,-0.34426985717449105
-0.06681106965635628,-0.38079636836296543,0.05803782435678769,-0.01472965090748465,-0.09185207478120626,-0.07808931004111419,-0.033168946698598704,-0.3894718379629376
-0.06916060681867661,-0.39157726353658817,0.04468754552397906,-0.015276220780680898,-0.09407206166914117,-0.07298747956274906,-0.035467820593404406,-0.3809646790889655
-0.07148645562940546,-0.4185390633437099,0.03553530003990478,-0.03163648727984544,-0.10022209465687612,-0.08079038926383979,-0.046545697172878354,-0.4151472533460731
-0.06069502661414939,-0.39442430283063223,0.05720388104309797,-0.004496279171215778,-0.09270042880767838,-0.06637659685650053,-0.017751446764321294,-0.37530567789153224
-0.057376144316308136,-0.38307089205499106,0.046295708890343075,-0.022595397544513764,-0.09231510285299535,-0.08083515879579584,-0.026804453657696774,-0.36513499094621854
-0.06078843777020934,-0.39583345271483483,0.051881271594714395,-0.008944780628871177,-0.10007441350266004,-0.08153464491985864,-0.03645516012850276,-0.39284147449393975
-0.06981177439962459,-0.4172492041953428,0.0460270479071416,-0.027126132804380886,-0.10039098924306597,-0.08049088083487921,-0.03723065853649444,-0.4069839432248207
-0.0754200603097729,-0.41946036279035387,0.053262328144264674,-0.028007558347022805,-0.09850125475962654,-0.08145013839537307,-0.02918028470113185,-0.437926741086624
-0.060441100612060074,-0.3905242412743668,0.054098828353945576,-0.011465430400542235,-0.09157742237916784,-0.06362510843564585,-0.02561107117562025,-0.39040856084998576
-0.06523142120073856,-0.40157545641348635,0.04162704596885983,-0.01513178520172954,-0.10648768057039229,-0.07662047171106606,-0.031399260275259515,-0.40539031714271884
-0.07235764904205973,-0.4132435030909207,0.030520650183181983,-0.023141815491964514,-0.10904393345878381,-0.07510044798853226,-0.02705334607378566,-0.394661659450541
-0.07311572180799283,-0.43873765105401996,0.03427544394703908,-0.024394787540297867,-0.11398044586832567,-0.08300145814860767,-0.016257283228635015,-0.43152072972752226
-0.07142865939993222,-0.4329540597590909,0.02785553545203457,-0.023256709190485357,-0.10201782442701578,-0.06544167315846415,-0.02743563225685411,-0.4129008049534221
-0.06240937900985664,-0.40508293880444396,0.05762723920675554,-0.016812353592924233,-0.10337496881639585,-0.0878861269396344,-0.024567324774123357,-0.4017997655929624
-0.06873494566848208,-0.40637669850987834,0.04602217513013682,-0.022295430853283896,-0.10117858166317872,-0.07010706472976609,-0.02985718031671843,-0.40735536998703226
-0.061076285207745204,-0.4028822932241253,0.04395047376025171,-0.03263266071967672,-0.10479243298935985,-0.07641861866698328,-0.031341171307581454,-0.41366302288996354
-0.060122678250121755,-0.3882906069163086,0.03685809693270695,-0.017613151267586225,-0.10331061566405184,-0.08209848259261714,-0.026400150766412726,-0.4722434926241751
-0.05295256187931563,-0.3385291444779768,0.06958395469418006,0.0010607297711290578,-0.10596013963082593,-0.07583442972071402,-0.01753906174182221,-0.4417580051680093
-0.04475550146355708,-0.3367750701299313,0.06381172886105037,0.0024178493396001,-0.11169913713933032,-0.07958918133282707,-0.02896866504219149,-0.44626859527327667
-0.05030786229395199,-0.33603599250535254,0.05983426353909435,-0.00333835184085164,-0.11587279089979795,-0.08504199225307324,-0.02782414031764949,-0.44647382742550484
-0.051920903077281186,-0.3545395535888088,0.06666959185062606,-0.011148140704978578,-0.11813528068285699,-0.07793768450817622,-0.023302608725238837,-0.4502899764871852
-0.04364529124454312,-0.3353522129812791,0.06939018726855961,0.007806343076780548,-0.10987426572267842,-0.06395696347789892,-0.015578848529235217,-0.453117643936944
-0.049452838601468894,-0.34263814061507786,0.0823839843821283,0.0020541570913754632,-0.11330763606888723,-0.08086159003703666,-0.01941733225898865,-0.4488506854912681
-0.046110827068012845,-0.385060694936061,0.06026412320819768,-0.009762670681330129,-0.1120617701634726,-0.08037634759523275,-0.037872295337396465,-0.4744842036188564
-0.05088573841048396,-0.4002816326851636,0.04501457391477123,-0.028530047319764273,-0.12829659709908395,-0.09101680355626213,-0.034696900227834934,-0.4732308572996537
-0.050479615846292354,-0.42315639331949706,0.052972332872416546,-0.029790090416939762,-0.1321267781089706,-0.09357335483845207,-0.0458298717815391,-0.47993274585695495
-0.029748481575185854,-0.3740514418253613,0.0682105923297089,0.002945083501865565,-0.12172994446096923,-0.07824931391092438,-0.03066923208096513,-0.4418925823016068
-0.042460629447503825,-0.3859485410655894,0.050000310112841846,-0.006474407436772534,-0.11282737873822017,-0.08028180850273843,-0.032605244377838905,-0.4923673306980242
-0.039395852494173544,-0.38218924738901044,0.0525499040625031,-0.012714881281056127,-0.12516489281085433,-0.09583123853160017,-0.03674574122525237,-0.46464476717464936
-0.037608921333781166,-0.40266632182158363,0.05717585549831487,-0.010921181422941541,-0.13152412148118814,-0.1001503583330611,-0.04038185340616075,-0.4948731226306008
-0.02576536474611006,-0.3687891469804936,0.07872391482309535,0.011308633468252031,-0.11913255491288131,-0.08539659537107326,-0.04679229422218006,-0.45651714467332477
-0.02714633682464687,-0.370483609282817,0.06923680914508669,-0.0157797610818285,-0.12724029991847224,-0.09384012769470991,-0.05955639902479052,-0.4729516653980923
-0.03154568502145805,-0.3789697105482253,0.07722967537655515,-0.0023127838997381105,-0.12496578248911755,-0.1002480485304613,-0.04963176800077477,-0.48456579274789763
-0.03172254085532863,-0.39726730493993556,0.07407895139772241,-0.018166012456266412,-0.1371054229075174,-0.11547414699158015,-0.06654311304475902,-0.5001716445639284
-0.02779090725135922,-0.3657461702996944,0.09256087718069203,0.008560158817128889,-0.1257877385684633,-0.08740590038683142,-0.04097752679050883,-0.501447694798874
-0.019514835159965938,-0.35692510544240325,0.07307491017697146,0.009876179844261018,-0.1307935411808303,-0.09331984877398254,-0.04243437774064058,-0.4879695365243732
-0.02159930169447126,-0.3639554870328815,0.07572595592832114,-0.00629679089288235,-0.13029696903717175,-0.09948618400256691,-0.04433508433444587,-0.48253269561457923
-0.025747685126250343,-0.38428752935542243,0.07278917327565775,7.258884202195683E-4,-0.14527432148554079,-0.1108731430118955,-0.04306787747208461,-0.4915606351235839
-0.0222152687307307,-0.3676704310013775,0.07626969166937829,-8.941547607008617E-4,-0.14410805098000443,-0.0916780784820287,-0.03756125613833142,-0.49393229251555393
-0.015359658301987754,-0.3424018228284611,0.0883180424628957,0.015792764420471665,-0.13119977890039514,-0.08862272968695935,-0.05742599630488599,-0.46874454257434095
-0.016249476256441922,-0.3512456285140572,0.084516685132132,0.01029996697238642,-0.13667057926721948,-0.09777068831559257,-0.04869231213184749,-0.4663780503083117
-0.024538027512544962,-0.36137956370950414,0.06938938803322178,-0.013149474555861159,-0.13236876850912027,-0.09833786157381859,-0.04916153332778043,-0.4882058998189012
-0.027623809087673378,-0.37065391104308565,0.06102416788858746,-8.585535332740618E-4,-0.13989565498093634,-0.0965612214526353,-0.04341629485302421,-0.491686724312729
-0.00902606719385695,-0.32710684647050176,0.07674980056960305,0.009592756237581322,-0.13016586697660332,-0.09198405904861998,-0.04491615535386628,-0.4614926022250533
-0.0025538498143101267,-0.33523660191127125,0.08119041758817731,0.006054211511612881,-0.131606206037349,-0.088278501427485,-0.05257955512662574,-0.46318108196082497
-0.010714316476770227,-0.3477971547907585,0.075412735192076,-0.0071195045592131155,-0.1279221499514545,-0.09494588685263447,-0.05009305130516526,-0.46700940111348893
-0.02382974983143638,-0.3635480845272118,0.07593946092724153,-0.007310690085790066,-0.1327023887721126,-0.09896132832016573,-0.05429032224043726,-0.4828967212812242
-0.01561645190032257,-0.3541883246095051,0.08205748007594488,6.728471280992833E-4,-0.11417705727415504,-0.07961424150277989,-0.040528040993305495,-0.472267967141494
-0.0038816877098478276,-0.3361604443307192,0.0913028836251692,0.013537441702136289,-0.1228991894618745,-0.08371269446844433,-0.03192525764281142,-0.449944659422285
-0.00438436386664677,-0.3409780327793255,0.0839541726561496,0.005479424607639833,-0.13255585515952312,-0.09170273832638183,-0.04688444452360186,-0.4717578876956176
-0.020980639628343473,-0.3543706964181825,0.08342450872775575,-0.008302188863974588,-0.12041870688062212,-0.08885417511435381,-0.03993198803592389,-0.4467124229845692
-0.017061031369609386,-0.37557935110478796,0.06724289006840602,-0.006342147757622363,-0.12686423896744545,-0.08990830161435442,-0.05190513415921878,-0.47022210854569857
-0.008789634541825046,-0.33337545412372616,0.07475388027204823,0.012031940837574655,-0.1265624951644191,-0.07449034202807862,-0.032445251314291206,-0.4462899124054794
-0.010937935573677214,-0.3420728030786848,0.08687605594055213,0.009352305304232153,-0.12180763841757009,-0.08544340030110459,-0.037605452527619015,-0.4478039070739898
-0.0012873421933463928,-0.3334840962846842,0.07360953023549172,5.022017631737855E-4,-0.12420916039084735,-0.08414142647380313,-0.03843925019705388,-0.4375236221748042
-0.02139398394616027,-0.3530356787173525,0.07980104755388807,-0.008401324086891933,-0.13551890584991888,-0.09079634013288951,-0.04299350175952704,-0.45638235161136237
-0.014486830168385452,-0.35562018067905493,0.07933001362345586,0.006652297195097796,-0.1168629138575719,-0.08443422780652386,-0.03842944142054817,-0.4658147047564143
9.217960748860456E-4,-0.31569567425418843,0.10378956490502568,0.02239091389791212,-0.12552269971565375,-0.08180190633662508,-0.03515919780137443,-0.4149822642078975
-0.009673769568022584,-0.3131742106805589,0.06841914540706996,0.005306451245372248,-0.1255015974268338,-0.08442137284863159,-0.04973788230997413,-0.4326207581469924
-0.011728192782564519,-0.33879460574108894,0.08640114060597145,0.005880591416283122,-0.13340610821786478,-0.10180972491195787,-0.041307008209673236,-0.44038309888708854
-0.02714406766709157,-0.36963299852928166,0.07112932401865504,3.745902065825432E-4,-0.13825359335995244,-0.09436251920111506,-0.04219619462947444,-0.4642181963322147
-0.01298725223696453,-0.35209197233000517,0.08831631654313253,0.009358883690708891,-0.12683805405188164,-0.08828017319964968,-0.0386597654158344,-0.42212847121621316
-0.021505203787040975,-0.3449593662231095,0.07116189019851112,0.009299710672976927,-0.13373998494976505,-0.07836172137840194,-0.04023967328220641,-0.41826715045892565
-0.016824248189391454,-0.3567105044706684,0.07161793559184072,9.29491440937835E-4,-0.12205813668317977,-0.09014350603362867,-0.04795740252722301,-0.42499973420455783
-0.01610706030896435,-0.3641423574129509,0.053351428877325364,-0.0044438321317728175,-0.1258782875499211,-0.09752548454760887,-0.06237490600131932,-0.46029816679544466
-0.023396598271182276,-0.38542599039390507,0.06289527749374405,-0.012007025311352526,-0.12916009700960232,-0.10240375573630726,-0.05926832892983918,-0.4865209282442314
-0.014908673976948316,-0.35516739485963617,0.08061096438038114,0.011894744333749098,-0.1222956513233218,-0.0957924806367615,-0.059806076167308604,-0.45346645067789587
-0.018240585887094173,-0.36209239111511154,0.06127554590345196,0.007547952088158087,-0.1273624117768435,-0.09534105161338355,-0.06399524505022948,-0.4665042207134075
-0.02784204815475305,-0.3719677736569799,0.06265651313938975,-0.0031584551807289345,-0.1423470616217734,-0.09843116653799293,-0.07299397983594373,-0.48571397115884263
-0.03179341946577546,-0.39798448777975876,0.05476484072702241,-0.008810581533670274,-0.13987824036824295,-0.10012346983293036,-0.06973270046492215,-0.5040635310462253
-0.025907957802257377,-0.3644733627210085,0.06900658052118691,-2.4108379699219713E-4,-0.1271989618316755,-0.09198270816046154,-0.06722049964768782,-0.49153651242973045
-0.024550261518398217,-0.3655153231628395,0.07253728415856799,-0.0011358549934476156,-0.13542313022020766,-0.09718844427457778,-0.05569734850162719,-0.4803563844464533
-0.012891751564679962,-0.35829366471540475,0.07587010572839889,0.007101042672001536,-0.14665988088624174,-0.09658247778966562,-0.07033478560429529,-0.4747033269899628
-0.019557630223868118,-0.36694543796314094,0.05315841992041304,-0.00487423135667092,-0.15090732150610495,-0.10449192054246668,-0.06115459159821186,-0.49635576486154015
-0.0015261018511445073,-0.3324442382728878,0.07753252467685162,0.03185264175250145,-0.14764981791946266,-0.092987216527388,-0.050834571145037186,-0.47189407621439605
3.4946944490700516E-4,-0.3002422333133918,0.09297623681461151,0.04433464857451966,-0.14612099392068661,-0.08823461514506155,-0.050302585153919555,-0.43497907637334304
-0.0028610041335612596,-0.29551743262509966,0.09587429599574687,0.04577619289226036,-0.1443988561196657,-0.09902400164486604,-0.04987413719949179,-0.4165369318082631
-0.004719840502115295,-0.3093732508583389,0.08912457589952712,0.03940531122852886,-0.1451214741552717,-0.08528872156541792,-0.055587185810666004,-0.4531035652956988
-0.007341425010921354,-0.31929423390939743,0.08578616861787444,0.05697767393628392,-0.13717616842743016,-0.0838897152833916,-0.04265259929685136,-0.4468500782083796
-0.0011035064035449565,-0.27476481969398686,0.09972762841874461,0.06337239032637698,-0.1345712703778605,-0.08466180327276458,-0.019143554101333057,-0.4104960131053451
-0.0033371286082521205,-0.286321597318552,0.10615871034433401,0.0665640170158656,-0.13080008422034425,-0.08214759577525073,-0.030003846466806552,-0.377562706118696
-0.0054369887663778226,-0.28268665379751085,0.09086702399312316,0.05389464677971178,-0.1368151130543924,-0.07941107954128641,-0.044397465594127244,-0.41949332566021874
-0.0022085498230540496,-0.30664109478661183,0.09536650806184088,0.05137018977222858,-0.13920750670463292,-0.08364482245580868,-0.0354731150458259,-0.4480316447476885
0.013246621384342272,-0.255971413435568,0.10923838118312,0.08768304184007036,-0.13223642501100352,-0.06638094062237268,-0.02241521535057239,-0.3963111787410482
0.02107482312846573,-0.2548335881961111,0.10354797762830932,0.07214769935058685,-0.12935208003757775,-0.07495534541578128,-0.0273814182470747,-0.38954154676258945
0.00840885923121975,-0.2577786708938571,0.10813333236743307,0.08096641340760172,-0.12146650068968072,-0.08590357127244018,-0.03208126462524095,-0.40104097496292085
-3.4537803997329163E-4,-0.2855531864402121,0.10420081287905783,0.050908961923283744,-0.1374753613290413,-0.09019844566123185,-0.04187947135623588,-0.41525038313643525
0.0014780384184300823,-0.2887138159307375,0.1142131068328723,0.04907366134174379,-0.1280215048313265,-0.08453563626805483,-0.02859074162878581,-0.439937182921745
0.012671508075213871,-0.2585749671889521,0.11322281002382352,0.07566207683381675,-0.13122437418553892,-0.07010700450365098,-0.018259491998143425,-0.38214949940468956
0.007216042412390191,-0.263834355647399,0.09592798936061953,0.05659848060991186,-0.12325499349035227,-0.07581419052264095,-0.014309757342965392,-0.396011950312293
0.008169329330331914,-0.2814156941797492,0.1201602108244568,0.056541308117846155,-0.1339092627722607,-0.07346178719905365,-0.02270831769184981,-0.40342500850781904
-0.0017093182344315014,-0.2893644703880674,0.10445470135251277,0.0505683581536297,-0.1360707999275062,-0.06736797993570051,-0.028254220943135327,-0.4084985868092512
0.014002084794558348,-0.25087435445263473,0.12368495902445954,0.06656544772259641,-0.1177616990276013,-0.06947229162806313,-0.0027721573788116708,-0.3873887296271102
0.00965464896509309,-0.26319616456623995,0.12341127994556887,0.06553280902370179,-0.12103899380621158,-0.06893676693373721,-0.014960958553363577,-0.3755838484247589
0.0030589171111032373,-0.2680403089522319,0.12183615586397223,0.051570938355937825,-0.13378216469094562,-0.0752547294444789,-0.019052577428550297,-0.39270750938634646
6.876678314719872E-4,-0.2916071415953512,0.0994910244948967,0.037349178845534126,-0.13501113867405448,-0.0824602917918527,-0.032928350704883216,-0.40766563312815907
0.006181018255215608,-0.2864299068159682,0.11841675630833762,0.04630831073237021,-0.12106582939210146,-0.06261030185549778,-0.013652338207912295,-0.4072650468635728
0.011127647194828583,-0.2548333750918333,0.11153063441478463,0.054202303461254535,-0.11391058713592686,-0.0643400217276581,-0.01790147338258296,-0.3734089474832842
0.014247056807666627,-0.2758902824032358,0.10857605615074388,0.044160272740207056,-0.12353027712774013,-0.07231346745767335,-0.011369589786983887,-0.3914552181359579
-2.4844475046820766E-4,-0.29436572031403146,0.10293574819930196,0.03741115554383867,-0.11865057271023843,-0.0635293539814148,-0.014171035434012231,-0.411407175916937
0.0012498096364208708,-0.31290531737325,0.0940232389046967,0.030051306244953405,-0.12366085853304298,-0.07991530028400919,-0.023498242672233483,-0.42705982312045954
0.015659078950811395,-0.26213664770775325,0.1010675881590331,0.04497899297879165,-0.11481206703659046,-0.058422842657003135,-0.013855306377789187,-0.3977774115584106
0.016661588577943455,-0.2584991557695486,0.11650829761948485,0.04431894182345858,-0.12131878682433574,-0.05805031915775026,-0.021875897756373715,-0.39126545535673485
0.00813891210417716,-0.26701565419099604,0.11083897570229172,0.0441564828915056,-0.12354511761922209,-0.061776507766805856,-0.026540969814943922,-0.3809919800079267
0.001393667280452054,-0.30453710644760507,0.09641382113220388,0.026142846819430392,-0.12520572810186364,-0.06594094610990166,-0.021370440163101252,-0.3849837264909857
0.0013951854373705336,-0.3153155877332472,0.10207838626199309,0.03602444464679276,-0.11569870568870555,-0.07448509147790014,-0.013459039019116992,-0.41728043440754153
0.014405156675034067,-0.27138733857210595,0.11135242994799316,0.04401481557333433,-0.12040270536044487,-0.07146168534386331,-0.020521211874978816,-0.3747870576670698
0.010565241524176828,-0.28188426038003606,0.11499993010383742,0.03770891870352335,-0.11250856068056585,-0.06702509230224074,-0.014953951125988477,-0.3596458211599059
0.007057544978803018,-0.29317470391654765,0.11396148134973959,0.03255126561646397,-0.12642869110063448,-0.07117137351414225,-0.01725155024184695,-0.3859606540197722
0.004399510391231815,-0.31084305615429053,0.10805580362028454,0.02103812643368333,-0.12748631123703436,-0.0814248397564523,-0.017819449114248022,-0.41677710952397184
0.015460536221718831,-0.27316931169410796,0.10162297352110843,0.03542546877082989,-0.11881898595358037,-0.06254990562059369,-0.002629006566301357,-0.3825533644578391
0.008421960218110279,-0.2711526415498307,0.0979143315775004,0.03576861325309095,-0.11871252927311564,-0.07078176110207773,-0.018971038498256237,-0.37292141773567283
0.008442869348489517,-0.2881197445771319,0.09609063112213952,0.04228375875503397,-0.12769802075801373,-0.06731421408668882,-0.03656611397300524,-0.40180812324752213
0.002672339335494755,-0.31854280173716665,0.11145253725259367,0.021100039866834817,-0.12312732659825938,-0.06588696178398476,-0.015141238328743742,-0.41726683001563447
0.008045619271601127,-0.2915243208543272,0.12105703779910462,0.03579765164390994,-0.11206155267063916,-0.061724233729026336,-0.0179548731445141,-0.40017839657400034
0.009885966331946399,-0.2690205591532294,0.09972441692187757,0.04082707933625242,-0.10620400411138828,-0.06515442199104698,-0.014512371574380411,-0.3579705011355453
0.004464930746263183,-0.276669418591658,0.102505301509449,0.03447282494007414,-0.11480660574695156,-0.05641591042148152,-0.010812845035223683,-0.39085310143998714
0.004541526114215618,-0.2915787917560001,0.0875797631251937,0.03232569635587336,-0.11370820606258354,-0.06936810862303013,-0.008261356414429008,-0.40336383656422026
-0.004966285528195358,-0.305967192339906,0.09274961018424042,0.028377288522531737,-0.11294357040676475,-0.07158917274575796,-0.01775236007626313,-0.39098902772117206
0.011438169902543692,-0.26442274234141155,0.1088216092246551,0.03969397190627429,-0.10879297020089583,-0.06489707777296973,-0.0015604545987454937,-0.3609720365351192
0.005250848696577082,-0.2696166866274191,0.10795278325063651,0.030483433702641945,-0.1103746889801602,-0.05113146279513637,-0.001321417630953321,-0.37384258010782834
0.005928934095235638,-0.27714371091667234,0.12030247350689717,0.025613740235642245,-0.11434868795343539,-0.05808486675390868,2.0260344311977068E-4,-0.3817176613038993
-0.012459305208602488,-0.313142298076518,0.0891766308855269,0.01408956978204849,-0.10365265794487355,-0.060169964962072345,-0.014334121713756226,-0.3822020973682997
-6.017045617571647E-4,-0.2908453724439413,0.11179810093139345,0.03592228086843613,-0.1060779735344063,-0.041835245660934814,0.006373122972763005,-0.38012863300071886
0.0028847785190566706,-0.27734736961810175,0.09238184554982656,0.03324945151075852,-0.10518172899439795,-0.05677139030773602,0.0062143879454508435,-0.3615976531743403
0.007444111317665359,-0.281054527291392,0.13305973079477348,0.028720711183970588,-0.1030354386732458,-0.04396967593109768,0.015347885753025753,-0.35975311640157087
0.0022101290281021447,-0.28641293723014866,0.10198389050726887,0.027013692811394374,-0.10624794089914072,-0.05673747023606743,0.017784468899684255,-0.37098333370419506
-2.24691243340847E-4,-0.31039012279659794,0.09712047872788418,0.013132113384373532,-0.11201507478593044,-0.04703672585301472,0.019378006709821788,-0.39500432127421115
0.008643040750432497,-0.2686079660682186,0.10867862611310307,0.044042117795287175,-0.10271743591906518,-0.043794392691474546,0.018180107886298483,-0.3481012716343198
0.010378176832532778,-0.27626786716742613,0.11632457635504329,0.031656824928217656,-0.10677824519976575,-0.02505982377396965,0.007165744529426932,-0.35858355575810197
0.005029308810633929,-0.28153434695784735,0.11588233189865021,0.026808091984398173,-0.1131335618644707,-0.038636768443080255,0.02041078217996613,-0.37548248360611236
0.008232999675587679,-0.2988482172807605,0.10890084961239344,0.025028396840930407,-0.10756017120061347,-0.04334708585825094,0.013411486384349337,-0.371207915624328
0.013779906338276216,-0.26747922970147864,0.11622224148207017,0.042280309448760635,-0.09794563483079165,-0.03888643116406537,0.024815374257771326,-0.3476941250659774
0.007734316336854722,-0.2715622194899109,0.11880958638926739,0.028310875876680727,-0.09455035638540214,-0.038903928401559276,0.019214415265786506,-0.37376620427600804
-0.0011362382918835919,-0.2934907818440474,0.09864863556071556,0.032683964683026125,-0.09404545396529296,-0.03914992045288784,0.022469145610594838,-0.3557313464220647
-0.0017236766350359246,-0.30362026039552775,0.09013282767377469,0.01288618876336995,-0.10852143269156807,-0.03540915004833947,0.03512922295363902,-0.36813971201805246
0.005206685968117799,-0.28514526109416877,0.10651586518732525,0.03302540694317387,-0.09579962767645175,-0.026991846175626104,0.055300446195623895,-0.35262001362875234
0.0063729789016999635,-0.2703003226111047,0.11342610625775713,0.02930671625751698,-0.10003959746912768,-0.0297080083964102,0.03863327692268192,-0.31749156356424285
0.012868668022122956,-0.27192190162530433,0.10969102940069804,0.032357044459289774,-0.08903874654080833,-0.03517668723963139,0.04159395686122019,-0.3358403800554108
0.0077588532260039365,-0.29146489329545205,0.08440598883222807,0.026618832162374713,-0.09123765092670569,-0.034546146461107145,0.037923705548443674,-0.3461455085446056
0.0033242674292267575,-0.30565632127372694,0.10036679060925732,0.01901310184455857,-0.09295522531220676,-0.02002415859615664,0.04339013943353048,-0.36336827948386463
0.011970688954097067,-0.2499813511776989,0.11508434766258788,0.043069523003061,-0.08424768450131964,-0.016878291904886277,0.045404320400067595,-0.29947285844297733
0.007119188344432662,-0.2576421445445352,0.1041570934769336,0.035733594042626514,-0.09218988632892962,-0.026744539327958887,0.05915162560722387,-0.3155061431246126
0.009137782165784286,-0.2674777075234623,0.09360406721660919,0.03709700868274548,-0.09388519942204612,-0.013467138021280956,0.04065256353129881,-0.32468598478453065
0.002372628750182435,-0.2966594396585869,0.09748345266073309,0.013449940414978568,-0.08555865338077247,-0.02596858651422762,0.048510498166147886,-0.3439419351607192
-5.771493575551197E-4,-0.2848523068839559,0.11007360476079145,0.0302919627243402,-0.09269631681509269,-0.012935077379652101,0.048150042236592534,-0.34776913388371583
0.013569525270762186,-0.24221487641786518,0.09851954470500458,0.043953347347271556,-0.09157901112701504,-0.015060282461044548,0.05487429868350326,-0.2943237350086145
0.013919237677387545,-0.25320161701229604,0.10248400884215145,0.03150184854217245,-0.08233393355635166,-0.015293152269597063,0.054835180866282085,-0.31764286905209493
0.011685374459457304,-0.27554600816784564,0.09419627790284013,0.029877545430934908,-0.08338589803492027,-0.010743060475128643,0.05033575124192903,-0.3181606506744738
-0.011342535224837285,-0.28810911937705075,0.08743314584407284,0.0262666921342771,-0.08924203199733742,-0.007824188430360769,0.059030470964884264,-0.3618518873654707
0.00806611955945386,-0.2692740793508911,0.12392100648836542,0.046015314908376,-0.08574691961172579,-0.006251942796423031,0.07152469717712814,-0.33554034775374003
0.013748198391923561,-0.2504476773209042,0.10611195079275608,0.051488094927543616,-0.08296216860845643,-0.0024711883809717325,0.07681122288032355,-0.31506540354621665
0.01402303007608109,-0.25830614369579363,0.11100799151920072,0.04429365930701757,-0.07688408183909277,-0.0046018315509284025,0.08803200491089207,-0.31298818060950867
0.005846824797056374,-0.2693367927396426,0.10530765833624409,0.022444670964089065,-0.08807721858203638,-0.013689189872860674,0.05755489844864589,-0.32905880721877484
-0.006587243346135254,-0.2793585466822794,0.10969152714624963,0.023463938212888995,-0.08064045951742005,-3.336237225790246E-4,0.07379087684725592,-0.34321007279617644
0.01615944994511535,-0.24458185328082852,0.11293877839712202,0.04899614615960934,-0.08100350030810631,0.0046517889687401415,0.09418677070565747,-0.31867912214581623
0.003914873329263238,-0.2415870321241954,0.12428976103681638,0.04265098597127577,-0.07955092223230958,0.011720072853709658,0.07448222460997588,-0.30532949873138704
0.006534074425233811,-0.26106166333324987,0.09953024951138432,0.03667199485435852,-0.0824737792552631,-0.004151422478943875,0.07906492332342191,-0.3300611130745973
-0.007743897818339369,-0.2867331628092621,0.10213390849109949,0.026714211944125082,-0.08183972300892252,-0.002311354468748027,0.06926433670809122,-0.34636731787457076
5.672611172427058E-5,-0.2755333165698617,0.10057235030882329,0.04770775340400758,-0.07790709188718362,0.009402512039228702,0.07834547735715,-0.3398983550077104
0.006535156941469495,-0.2420894117034446,0.11237324129835305,0.04127493230260521,-0.07203318521463113,0.009213356404226207,0.08611531593899693,-0.29594145394542454
0.012434880126451876,-0.2514924444997577,0.10793750065526413,0.04988352087662105,-0.07591250488138168,0.01402080184899889,0.0797076859664338,-0.30169143402753135
-0.008308221693942765,-0.27245086765395904,0.09662832818437662,0.03220858639115984,-0.07685990233138938,0.013945923120264834,0.0754058475565846,-0.3132549380774079
-0.006967331536526562,-0.29178544451045935,0.1112971438077373,0.029272878059803446,-0.09048610287914999,-0.006771912272364658,0.08054534194561287,-0.3553280779077912
-0.0014531045969149847,-0.2527307104815095,0.10095437373170567,0.06010228468367129,-0.06599150526709717,0.012361436384994777,0.10036467508441192,-0.3136213252261447
4.4213609854475415E-4,-0.2521309936999675,0.10409284389074919,0.042276894551585224,-0.0789910534541276,0.0029612699187570165,0.08833896804883935,-0.30077931408378217
-0.006578124032380655,-0.26144741203219996,0.11130165751213598,0.04801588394580663,-0.07825158469213249,-0.007885203323231836,0.09250344893805347,-0.3067264058661848
-0.00697297830971875,-0.28539169293486655,0.10347695409016354,0.038786767539580505,-0.07974152643846927,0.00657921194756811,0.06853888219608657,-0.3281133305298878
-0.013979640960528545,-0.2945526206883206,0.09730971051289279,0.032032255126024554,-0.0835714667788915,-0.006863733632191357,0.07623692595446131,-0.3109433567177333
0.0015233383824120835,-0.2550733256930933,0.10299833153043812,0.05084437576200335,-0.07000479765993546,0.024374541721209904,0.092619897269961,-0.29075524813161635
-0.00655909290939808,-0.2624956582446099,0.10451853866127644,0.05140526748035175,-0.08707031803513464,0.008347808549267272,0.08404301098010222,-0.31738076856126035
-0.00863935810488295,-0.27102644543655663,0.09486396013914425,0.04510217396383017,-0.08864245953670657,0.011499427488829239,0.08749974365760362,-0.3253996748993059
-0.025272558444251407,-0.2983665533854472,0.1029370453062603,0.03254459491911679,-0.08311282512445242,0.01153713569620351,0.08406359966903743,-0.3172225333285322
-0.008372869446724602,-0.2798964198555309,0.11030813683725159,0.05113219953846949,-0.07775312194498048,0.005319402600909573,0.09138207589951573,-0.30982285005377375
-0.013647971439239282,-0.2684223030526782,0.11780728976172941,0.04379215483653554,-0.07642688346810282,0.004804484717122089,0.10216463650059202,-0.27293951873173816
-0.009589630166494088,-0.27833235760483155,0.09628701299242297,0.039356687014375995,-0.0786524704565776,0.019201995274718345,0.07371876368326871,-0.28964095120795763
-0.012175015656469348,-0.2936768849560651,0.08876126049399609,0.040162709708139774,-0.08504210820673762,0.003886516770772795,0.08574486686156604,-0.29488383995901807
-0.02298569114968592,-0.30461025042909207,0.10169788368407942,0.03725415904221261,-0.08574698809720953,0.0039643573217568485,0.08641296389428452,-0.3322997721441492
-0.005635015591180849,-0.2585150079673584,0.12318469890699124,0.0524248490465628,-0.07424812153154013,0.01081280931655712,0.0914379624109053,-0.28067790077432975
-0.014142776551763705,-0.25582167485632384,0.09049661251148108,0.053926756338519545,-0.0830357976667275,0.018789297809845684,0.07975702819727543,-0.28238591936129304
-0.015782405649900935,-0.269362457971836,0.10212808211704703,0.045302173655322436,-0.08457631685573663,0.010620199606790637,0.08929624158793927,-0.32031104040347047
-0.02464912043148982,-0.2953855890189261,0.09777069624916758,0.03252022584751802,-0.08076827389281625,0.00489151904490568,0.07733597859446201,-0.31407108117327137
-0.008307572940075511,-0.27856162880074997,0.09881996592735547,0.04617571437681922,-0.07663207289150746,0.01713366994101831,0.08153032605924554,-0.307810140885267
-0.007463836852046941,-0.2455828846618239,0.09740374440440457,0.051354521440129766,-0.07120391088090561,0.018026350996918898,0.09400085328460056,-0.29176733429401674
-0.010747786228543051,-0.2573733553402881,0.10153323644454092,0.0556508175706427,-0.08122512376593623,0.011611063359266227,0.08713903301998797,-0.27795989038645463
-0.015745147686563304,-0.2752178235968912,0.09833002416692493,0.04134695147765346,-0.07761859030756367,-9.719112498774652E-4,0.08948881357550795,-0.3064631424481456
-0.013902531951184224,-0.29718030402824236,0.07082125835600546,0.029479764494022058,-0.08460832083841094,-0.0033298947929005,0.07328367763273434,-0.3228951781308381
0.020838297879316948,-0.252560217929785,0.12786878865160942,0.06945022704757885,-0.08792723625798878,0.0031191588696785873,0.08936620036711587,-0.3049063345573284
0.008101129106532656,-0.23878364009408787,0.11004330469426699,0.06967688543314363,-0.07614621978089668,2.951342123919431E-4,0.079559408877742,-0.27736035246799756
0.017622313368889687,-0.24233852837938444,0.10531250996094853,0.05852984272227224,-0.07019472164681084,-0.005990788165923438,0.08463509926344487,-0.2909850116662722
-3.533085889582626E-4,-0.2537445459892807,0.09667811813790367,0.06365706801012483,-0.07705112448491902,-0.013809081051805132,0.08321622258907903,-0.3094462853078282
0.004003835943134395,-0.25281014662843565,0.10158363469003527,0.06208510304728447,-0.08372816577731584,0.002691728680806417,0.08204343218590605,-0.3159749163076106
0.013057608344263586,-0.23307377298085882,0.11098168586191483,0.07575563697157477,-0.07285246240186671,0.0033389370306315547,0.10333278156621492,-0.28088877430592885
0.005213088986397012,-0.23173736802169043,0.10161933741279494,0.06238874755327906,-0.07757893068554984,0.015356499898040577,0.09288211981015133,-0.27654892596324615
-0.0010903529270589035,-0.2512847056480239,0.10043408436116215,0.06547151689035496,-0.08194316322992733,-8.232069256954004E-4,0.09289402105473143,-0.3025992091577015
-0.006898016757266138,-0.2743558539627358,0.08167036130027078,0.05056552972565217,-0.07901483880003209,0.010527231131733348,0.098761320134233,-0.2877562103400995
0.005405157623382813,-0.2277605303298606,0.10789652527486827,0.07043068957307519,-0.06987518644758571,0.016865210480240776,0.11005200508255934,-0.2685777419265331
-0.005725242728523066,-0.2483460089994282,0.12521619974992942,0.052774066076152794,-0.07386228852201024,0.011990687562572386,0.09800673115711359,-0.2641906774516293
0.0022164088727612712,-0.24550871879744837,0.09519298997443416,0.042050909430225,-0.06895212332613275,0.018122390741235592,0.0962280048710467,-0.25608752165623333
-0.004324193680448633,-0.25452245797451134,0.09704111906855521,0.030271639485087078,-0.07204652306280306,0.007706136679656215,0.09461007027050444,-0.2681533059769392
0.02145565646012019,-0.20126415540849402,0.1090627595250873,0.05370932372596918,-0.05361249747385624,0.013760627343628956,0.09390104967155037,-0.22620275486436775
0.018898991075956963,-0.2170900597433168,0.10961177516139788,0.03974384255133795,-0.06899835434812975,0.02047143431696649,0.0929493203385531,-0.24838428796488407
0.018430141773994168,-0.22702021972660308,0.11683557936577342,0.028315782555386432,-0.0666652784692374,0.015586406986236298,0.07947640972905763,-0.23173938940615646
0.010528204337763719,-0.23751780194302868,0.0996836116055848,0.019575463144823044,-0.06998748017888147,0.009178648893485032,0.10379469787832547,-0.27997344853102246
0.0228404392429396,-0.19606790755142417,0.11683152142719949,0.04660508564321124,-0.057218279355319555,0.022964095388390265,0.10469520552942457,-0.24554130187073386
0.02205316477096237,-0.19318615003896272,0.09409452963564705,0.036723405810491334,-0.061277462257549854,0.00897355316864641,0.09083388611589122,-0.24776056288688458
0.012340724741601555,-0.2284378818304004,0.08946352169653214,0.01887231462542305,-0.07591075602731528,0.009142313270069466,0.08666413274227637,-0.2450121151639608
-7.277011270951309E-5,-0.2551284167642433,0.08377104058227401,0.0018239509052415635,-0.0767950292973334,0.001432668763093203,0.07699677581434922,-0.2839526412693848
0.021094396516575308,-0.22723104818252984,0.09971884858490483,0.030574483316890055,-0.062385272598585104,0.00709047197511363,0.08291172927419818,-0.2765577071824701
0.01530713112007227,-0.21598799930831578,0.09731402762184999,0.0188178650946873,-0.07869132011771539,0.005870658221216813,0.09167318048696357,-0.2849390532298517
0.013925601106667308,-0.2263067742561868,0.09338923259370879,0.009817618906747696,-0.07009729323641754,0.00849200119627992,0.08044010622225874,-0.2682791273414618
0.0017526583308163804,-0.24909812217628008,0.08388422801216232,0.008715192922741104,-0.07512001245937895,-5.215604576440579E-4,0.06514246676304776,-0.2994273024840014
-0.002644114249336383,-0.285292828459083,0.07194096026258291,-0.007417488443068526,-0.0700897199487724,0.005000960661989883,0.08336623709249427,-0.29800507390280273
0.012514907599214593,-0.23171684299454967,0.08689310221298494,0.017476687594112632,-0.07269888682188821,0.013061029266621277,0.08706134419279024,-0.2598216979206653
0.01102705255134454,-0.2406346485894768,0.0943894979371846,0.01216724318601253,-0.07325143741862869,0.00647657037429572,0.07972575670504943,-0.2567740620925928
-0.005003115492414162,-0.25299912120673157,0.0847318055005115,-0.006642368080363072,-0.0822801919644802,0.01516223541395822,0.0772159864349694,-0.26071726139479273
-0.006255930022925528,-0.2728944780446076,0.06886173067714949,-0.004194779939876412,-0.08952885863887292,-0.005698853247649837,0.08105203198900576,-0.27909094941409684
-0.004263583243541146,-0.3019156025430477,0.09010548454980602,-0.020552863714578026,-0.07911014068124213,0.008467052354786803,0.0685913605929922,-0.30102708532945205
0.006430404003163759,-0.2589748596991065,0.09027830175641822,0.0039827230735194055,-0.0766247665842017,0.02284042977488396,0.08787314148882966,-0.27078001644801947
0.004496562006704333,-0.2673399886177665,0.07959516033550341,0.0020207973716924736,-0.07151766482152283,0.004638845307058479,0.09590863332298588,-0.2630345807684329
-0.0027442590636321835,-0.27789722785420484,0.08099121033580027,-0.0052331602313731825,-0.06293079747229213,0.00773614288158944,0.0772600967685363,-0.27449416249512854
-0.0053771125622507935,-0.295132370148301,0.05600427750535964,-0.019927803959049875,-0.07564358726524724,0.0016581156422452122,0.08201579439698631,-0.295375496235123
-0.004197384189007053,-0.2994463389185769,0.06707462856920063,0.02036512066014557,-0.07754528399828135,0.013788887563369651,0.09466045359938272,-0.28683600504068185
0.005227202299251538,-0.2902527183226267,0.06263683634956287,-0.005456479651760545,-0.08121721872087617,0.004240322503894071,0.08651480562492139,-0.30057329642817077
-0.0026309506234153683,-0.2984461931499297,0.09467255976255766,-0.0023646388790404464,-0.06979853627193963,0.014498991769382954,0.08335302052850335,-0.27897928880969264
-0.002904661532441739,-0.32629820848921465,0.06199591254305714,-0.008393037572747808,-0.0888465202492793,-0.005039927371688006,0.07206671938839557,-0.3262232079337205
-0.011221491511411826,-0.34957388529443034,0.07136033609995951,-0.01939367708603835,-0.07884097651264492,0.003977852878230005,0.06714590744004217,-0.33482691940274056
-0.0010539351459652737,-0.3302334323957293,0.09871865800782614,0.010837166247557178,-0.0709865333452247,0.009473536022367146,0.08670555297958474,-0.34116415690956614
-0.0063643866703497805,-0.3178659840903023,0.08021422175518512,0.010751504830565563,-0.08580238254841754,-0.004368161011132465,0.08154396021601218,-0.33705511334381705
-0.006168993035214394,-0.3306415953524676,0.07086480660659024,-0.0036888829390440904,-0.0902282770809511,0.006787436750774608,0.08176362312869702,-0.3458948705282618
-0.018070964159508242,-0.3557168964820161,0.08383620548923984,-0.015231078681468392,-0.07265653680612487,-0.00255934802055023,0.07109236280602267,-0.3470903299969861
-0.0014386051874455024,-0.33452395508929844,0.08562100907283395,0.012915242338977562,-0.08916547667987153,0.006648598211007927,0.08307772026870183,-0.3571383171427635
0.0169618102609099,-0.2941377726261992,0.10989199694583057,0.02950761576504018,-0.08612852235205015,0.008478509690432687,0.0750841598088629,-0.3461745533782177
0.012154617763528476,-0.294465952329104,0.10667276967179201,0.03793593958997614,-0.08234687986748326,0.013369451983284032,0.07908893121301182,-0.35969127644637794
0.017184339161539133,-0.3024688607995433,0.09349983067719808,0.02229287684402297,-0.08199421298390598,0.00770779025600072,0.07594274787126275,-0.35362006240987987
0.018086095609131735,-0.3050846291046172,0.09780421771911309,0.031389650232279936,-0.09830803143542552,-7.176602653758272E-4,0.07746244800304528,-0.3960655200792771
0.026655126802463215,-0.2717818110901658,0.13664416578408484,0.04774101141529922,-0.08674182903839274,0.0049671002874586275,0.07677729235252777,-0.35418450915030286
0.02456694409244716,-0.2777524588121229,0.12733173515311566,0.050568191181592295,-0.08078895274689371,0.009614708624808562,0.07783886769142372,-0.36873978440357386
0.013473594083848866,-0.2868140589177207,0.10539560918968346,0.044677183835237215,-0.08736318298971908,0.00935517344297435,0.07917182771746024,-0.3935755971248084
0.006103302916109154,-0.31068030938586366,0.08661142516131932,0.027201842242469965,-0.08940012114954057,0.004552127466332187,0.06997145082234871,-0.40383730991115946
0.010490152786507034,-0.3035548134367376,0.09834707004836805,0.047881683570168795,-0.07937892457460408,0.012415227647597036,0.08305544936911301,-0.3793437067225867
0.0057427262860181546,-0.30125926273877995,0.09961518640220693,0.040376855475406835,-0.08565039086915827,0.0027270558395379183,0.08245445153535144,-0.370218730980989
0.00723989479525782,-0.30851155991377743,0.09673412954639245,0.030800819615228577,-0.08892266492064858,0.008613219452952911,0.0825241341413324,-0.4140533790875153
-0.006769213138147351,-0.34387550326923655,0.08000790261773853,0.02547175029554643,-0.08636432132502476,0.0033306268121655446,0.08025216034090914,-0.4097837387334162
-0.011597535070716312,-0.3571473392167246,0.08753521217372123,0.023381067862187632,-0.08718088452194402,0.0046709120649459064,0.07598243860264929,-0.4272432643566398
0.0019880250449595275,-0.3183842289198073,0.09877850156342786,0.042685266867425,-0.0822090947015508,0.005396883110006789,0.09399931275169948,-0.40636548417037754
-0.0017152719603048545,-0.3267641379053496,0.09830829861240896,0.033183724915855896,-0.08800752961382871,0.006603800867808462,0.08897159806464756,-0.4106910893041924
-0.014007668371056927,-0.34206902951584156,0.07547710535148178,0.03670143655294147,-0.07645165221614143,-0.0010088223144993403,0.08688973178397569,-0.41314394508241553
-0.015315574793878376,-0.35591538438578785,0.07335612361108441,0.027960432485442693,-0.08255862069520715,0.005221371225973868,0.07371170778479247,-0.4331982510722875
-0.01222345514905305,-0.34608798624188786,0.09698658262419428,0.041411253023922956,-0.07752485718304551,0.014899835025448255,0.08365666055088691,-0.4316886663021474
-0.00838959029892828,-0.32896465559500476,0.10237891335114332,0.04193091461601302,-0.08625160611233193,0.012437493601579029,0.07141181734875165,-0.40089451677974725
-0.010987165551956182,-0.3337918927379081,0.10941622962893245,0.03797815360711702,-0.08208501501791313,0.01066858043340076,0.08746555563993128,-0.4189630932421159
-0.019573930370555298,-0.35481985885523964,0.08785532548176195,0.027772468712739508,-0.09132676367611546,0.008926846699375756,0.08821560307396871,-0.4069271000588315
-0.03573003418054947,-0.38603835289758953,0.061739827724585514,0.02395343627022749,-0.08118510542845961,0.008802829477316122,0.0819207851891595,-0.4443055963878471
-0.014190215955279238,-0.3446485419843908,0.08463847028851024,0.05087599964761286,-0.07894731063738814,0.015390524609129144,0.09601828495488386,-0.41758275801684896
-0.01304121724867627,-0.3395603470411587,0.08000965356139847,0.036766862350548005,-0.071366041995982,0.013013274587337123,0.09120717312200918,-0.4072232674486529
-0.019139608958780068,-0.347330014785672,0.07690331586165478,0.04590397040215029,-0.08606460837862492,0.014234010415689195,0.0926939930721735,-0.4324958277516037
-0.02293171174632212,-0.37742917785238633,0.08341579970917085,0.025814041005058245,-0.08768817130071019,0.015676665432628727,0.09354315901528117,-0.4112607883152706
-0.019948794192177592,-0.3759010785891259,0.1048704695406032,0.049989967188542504,-0.07893739510968847,0.023936141971656857,0.09475891393796736,-0.42112102378066973
-0.014097788701812646,-0.3454414112105746,0.07799042832512701,0.051162476465810285,-0.07858376493773171,0.02391227970988926,0.09390757773552957,-0.39005339481508366
-0.025785534762104025,-0.358312671380244,0.08900154940452029,0.052969477041904,-0.08645844365766547,0.03230371147657605,0.1024012475342919,-0.3996689069102895
-0.021710520667597474,-0.3595663415113331,0.0750304889313883,0.04258039972657723,-0.07998027240403136,0.018298253650415125,0.09687076696675935,-0.3992954272765379
-0.03144240629192315,-0.38822370984260646,0.07354018888609938,0.026331208757827605,-0.08188354000840727,0.016798466017957422,0.10187146032893148,-0.4397489391609263
-0.02126667964599743,-0.3576352666700316,0.07663213745465088,0.042501061178105065,-0.08293832727872245,0.03216218521223925,0.10172551624855464,-0.4089505297697163
-0.020745112669474465,-0.35592810633706723,0.08433102899487649,0.05028007081563653,-0.07442803283610708,0.029697193373134066,0.10999193968239758,-0.40348158856772576
-0.018043305108270662,-0.36342488412855456,0.09083818028967568,0.05374817029880675,-0.07474135939494204,0.026709021259294172,0.11425134808377864,-0.3805186958180763
-0.02341428002181259,-0.38708639169238507,0.06940243461307749,0.04733270740643913,-0.08001291642742668,0.025424083889560876,0.10180186937468279,-0.4331530115471468
-0.02783307285752978,-0.38197329076076747,0.08994823354815844,0.04401711358466809,-0.08107932117157221,0.03247773685181692,0.10808786189619671,-0.43251455857722193
-0.018660659596407534,-0.35443395467429145,0.0838793243664782,0.04928085318793539,-0.07221610072124435,0.04061367119882637,0.11188126376346222,-0.40582853047407813
-0.021075616311455346,-0.3563713705668294,0.07937543105238748,0.04700539857625305,-0.07874058018271987,0.03526203972815782,0.11223172091010225,-0.40915134009202647
-0.02860639922576057,-0.36735001785760346,0.07816351105383447,0.038110205845439414,-0.07572374626846816,0.024217612334036187,0.10249034410684407,-0.41566059249568627
-0.03457943381944761,-0.3916135944545012,0.08584174033469649,0.03134109865768294,-0.09179767049802551,0.03305323852602336,0.11095176678549683,-0.4158116689207876
-0.010985219306589982,-0.3631351560051739,0.10745162170975056,0.04820223685539431,-0.08421485879352208,0.029838021663858304,0.11519793624684624,-0.4239066041532966
-0.012229845351236505,-0.34531547227569453,0.0858226150609364,0.047214734027118815,-0.08082231040559648,0.02846949613707318,0.11462890199235774,-0.3851567025453927
-0.01630544648839709,-0.35130984093972056,0.08688100731887914,0.05505229790951216,-0.0812407610622422,0.03498468543900515,0.11168019737260958,-0.4017910023232499
-0.024073677859081488,-0.36235559621462665,0.07927690872613208,0.0469923755766264,-0.08802581545601239,0.028786087443517513,0.09941787201057495,-0.4229756759008177
-0.024882226313346044,-0.3775172487135752,0.08051384624931149,0.045461147806160604,-0.07577701371168497,0.03546886778986633,0.10677331464789849,-0.4378277836399527
-0.007006645643822227,-0.3485271605237548,0.10460672829010222,0.06590662541335564,-0.07187315054637919,0.03118625785310104,0.1131161206674877,-0.3903682014274577
-0.0064209419644719965,-0.3343276135259453,0.08426901882522324,0.04717374579448063,-0.07751635244463316,0.032134745899894825,0.11427974138794124,-0.411224353908832
-0.005221701464551426,-0.3366413287385523,0.07676156870777741,0.03820556794160626,-0.08918638309081164,0.02861492053235237,0.11425913660077533,-0.41269278248936697
-0.022042590237364237,-0.36362965236895123,0.08674002099537206,0.044355069366864924,-0.08297477114871872,0.016562895618618255,0.09655282826703722,-0.4242907546483503
-0.013688440894862952,-0.3805137751563933,0.0642523472973936,0.04370917278152278,-0.07679519850826176,0.02429800065432835,0.09522350996550176,-0.4479772385239552
-0.009619843235211261,-0.32528849211479904,0.09093104843337504,0.05908708244093862,-0.08095947759558327,0.03263995451563411,0.09314361694138906,-0.404713840789467
-0.010863296526590446,-0.33196888038984074,0.09136410271665486,0.0520506557794769,-0.0788510598852704,0.020960331600570512,0.10031945720063362,-0.41408711939797893
-0.009003650570577629,-0.3438543340866991,0.09168271744376964,0.045893539035950746,-0.08572741368809539,0.018839162315647882,0.09259009313287977,-0.4040231347660529
-0.02386425496134966,-0.3684961530255373,0.07415023536147394,0.035145763174147165,-0.08223574511294485,0.02018164356079466,0.0910606719781001,-0.4378584177430713
-0.011952935812523819,-0.3692951706430973,0.08184018926496736,0.03016323534163756,-0.0870158321370652,0.019599868958153646,0.0989678508932401,-0.4166419814812884
-0.009293101383501225,-0.32108318071322206,0.10565532488114952,0.04583627146360966,-0.0854941851403213,0.016348384867373347,0.09249298533043789,-0.39254998091004545
-0.0046238745982793965,-0.33322676381068994,0.08588926178946465,0.04017259994095382,-0.08771186602258527,0.014546528273237542,0.09458666025099507,-0.4127016924092049
-0.013851116981672155,-0.3476295959436496,0.08574061280761798,0.03690329385732826,-0.08960148287758454,0.016213449693971708,0.09079128550711701,-0.4276743577761909
-0.035901036858113106,-0.3639681877647588,0.08478747565537421,0.03248615054792013,-0.09570460723213137,0.005209204090723351,0.09546210698409976,-0.4313683099169885
-0.011791444996690334,-0.35879472058977774,0.07949446427633046,0.04456043923249797,-0.07832405736965374,0.02150421476230282,0.10165020325715741,-0.4261711228513219
-0.009772005925411347,-0.3216263017913183,0.07972937010159518,0.04504661906500889,-0.08430736912285568,0.013523439309027288,0.08186670122177951,-0.3891446326297544
-0.015894378376530852,-0.3280331003708367,0.07661646710942985,0.045527894413113536,-0.08572926757495102,0.02007617625751847,0.07794270869378295,-0.40410278341991646
-0.024793367693437596,-0.3566417769718647,0.08023671838354389,0.03415169355848771,-0.09016615088856,0.016256279438373482,0.0939882063839115,-0.4143106711492505
-0.024598346737021052,-0.36598746245639335,0.07982459620915955,0.02489445427357631,-0.1026185829418652,0.01524052270891873,0.08258245715032954,-0.4168899184899904
-0.00694653793379373,-0.33857099406024266,0.09461713627858834,0.05579125137144241,-0.084533796572756,0.014711138921772062,0.09568636343119159,-0.3882472784729013
-0.022726136436898695,-0.33849550796657957,0.08658087649919173,0.03488342444242074,-0.09155841970437606,0.020216556963077174,0.08617194337146601,-0.3996984376771444
-0.01805466694229855,-0.33915135651268835,0.08156535047177611,0.03515456596119611,-0.0914527638888305,0.019822804966231292,0.08992957502023745,-0.3928383582237976
-0.03158940565432143,-0.3759072824309739,0.08013380138043145,0.01685951521797489,-0.09767753224926021,0.007415234834794963,0.08241034290728873,-0.4209503465872858
-0.0257146820253212,-0.3769023158815407,0.07518998246833947,0.029391324822754184,-0.08511098889461494,0.024222629301623624,0.08385280197110831,-0.42842089474744943
-0.020289888143988268,-0.3259650502492863,0.0904188961833202,0.04871070654284544,-0.08989564090372713,0.02656846950974931,0.09406426947914874,-0.3888682693995524
-0.014226798314431433,-0.3321569539553059,0.09433166093453622,0.043454053833656275,-0.08979214655700934,0.012343656539729849,0.08594037513454571,-0.3933717621041009
-0.019875936108744708,-0.3411008524496152,0.09845442114847223,0.02813673283910557,-0.09736320835410014,0.00928493102222887,0.09966724361023445,-0.38430649578749415
-0.02304007945258788,-0.36759586136730477,0.07739862312315211,0.024325560697055555,-0.09583423890942275,0.01833413813215556,0.09872472666081401,-0.40964289257274966
-0.02426747084807617,-0.3552366021089838,0.09328920639191261,0.038368958099321115,-0.10039850787055633,0.020761226854847683,0.09989489190721897,-0.3896600347090786
-0.00730190344966401,-0.3250665555641932,0.09278538138765609,0.03964581426854637,-0.07898447266084399,0.023978206142381456,0.08953888305402184,-0.3909027581670606
-0.015478982451323627,-0.32813170138958814,0.08035904344035673,0.04013538881902888,-0.08210902299710386,0.022164442823520945,0.08455851853990552,-0.37439127166563785
-0.020409746973473565,-0.3361783723006142,0.08089496685610414,0.03025287675039009,-0.09285579532332311,0.015647394101467302,0.0936881069950827,-0.3852781140807221
-0.023221757349508865,-0.3656616190324125,0.07669962875283079,0.01979717855209563,-0.09714842039841698,0.022457739123855812,0.08694954293245126,-0.4143658994961775
-0.01971267814521952,-0.35942985499140523,0.08684255117395161,0.027201556327955,-0.09642207604644702,0.03510600334337878,0.09664635625604662,-0.3956229411563572
-0.01310829645373555,-0.3223822231479564,0.08686440834100563,0.03638346999428993,-0.09606359273551976,0.02929271664387756,0.09777359471893239,-0.3800222558832627
-0.015375887697597701,-0.32541727210461247,0.07193560783823752,0.039658242186587984,-0.09401515750992405,0.020690028282362705,0.09933447305677795,-0.3726845178326902
-0.018891492334409475,-0.3341446627069564,0.08310768005157299,0.0373960731450069,-0.08383571507313425,0.020746615789734444,0.09223190929297945,-0.4014838549502067
-0.019839696142643186,-0.36845073536720635,0.07073519400245717,0.022277626978408533,-0.09174644044008323,0.027561309763281864,0.08479376072585901,-0.4035748279276072
-0.007304037183691071,-0.3258479760952078,0.07837903136681865,0.0451806572176348,-0.0873137158854551,0.027818258627769855,0.10385885345005941,-0.3853011162368499
-0.010145840093039527,-0.31249315540172434,0.0939071660749327,0.04232249747171731,-0.09315206199027809,0.017270700559219487,0.09195162595188579,-0.36505338699149026
-0.00835657521571996,-0.331085273429433,0.07410021336854056,0.049779375103785606,-0.09440806344613152,0.009422967096937847,0.09854995664374175,-0.3725052843864864
-0.015205102963586523,-0.33616719965539676,0.08062663294645687,0.029995687880161014,-0.09861758064676765,0.004825889262279132,0.07915247213622072,-0.4144244970189292
-0.016207782865149328,-0.34619047766245137,0.08859421859150513,0.037487261852277964,-0.09060147664470902,0.02249207950307541,0.07852349627463272,-0.3793989629830928
0.010009780825342164,-0.2961978737072475,0.08915670845447077,0.05324022940681341,-0.08695257260203947,0.018440947500022304,0.08021633596543581,-0.35993554036820935
0.007364919026815251,-0.28939627973460974,0.08318914376333673,0.04837632640228668,-0.08735863293019794,0.021315202198135753,0.08299502190599924,-0.3685574779786542
0.0025254447264075916,-0.3087746447158693,0.0932556806374035,0.03904558763645875,-0.09195654766235091,0.0126165325398375,0.07470871323593427,-0.37068728479486207
-0.0098856966896066,-0.3372395072419783,0.08283281934437818,0.029208591879369496,-0.09675306332423397,0.018611351216614586,0.09291420545435293,-0.39707769020831074
0.004560294967914289,-0.2943940830664111,0.10198131005783993,0.05295846759166283,-0.09164947132319766,0.023990770021775115,0.09376681744156742,-0.3404353761129732
0.005410420543272074,-0.2898773048655026,0.09344424255278422,0.05089751745301044,-0.09172584410610052,0.02290846284885284,0.0904910149422103,-0.3427181593466825
0.002709164311689228,-0.2972546942963121,0.09284045021211548,0.03613103842216165,-0.09168075150484074,0.01776463141909001,0.09403331360168442,-0.3371614610025054
-0.009224790355724275,-0.313629724107511,0.0629653382265615,0.030121215568108282,-0.09597957199854966,0.015112777656282326,0.07753991892706523,-0.3813852750750424
-0.0018100135577641793,-0.32467423545430585,0.1029946528395902,0.0305529289488274,-0.0884905560891874,0.020430342527391347,0.08520137205593764,-0.3851984459439928
0.008639525907990402,-0.28449252234112077,0.09038401907423488,0.043871319034366474,-0.08736625092059618,0.02385491512015949,0.09332075878474759,-0.3344166363495704
0.002730296432983739,-0.28612043942024423,0.07033260678583374,0.04447114905535644,-0.08139238018884862,0.009886475375724214,0.0860835318999454,-0.32306264860248785
0.0029675178651451537,-0.2981373691995906,0.08676212311812367,0.030586055855939213,-0.10851307764126303,0.010612770062899925,0.07927487077996882,-0.3828075688458763
-0.0044923645829663605,-0.3238306700666823,0.08825980559385481,0.011138291257513925,-0.09006457028794525,0.013783405416818004,0.059717696856696936,-0.3729700819561121
0.004445510185785141,-0.30087847718847477,0.09870987204261993,0.023258541324469965,-0.08808945091616953,0.020305360298188226,0.0819096604325412,-0.3397137603540455
0.013234709377085431,-0.2866545075766711,0.09073959050671003,0.03181433510641562,-0.09275974584432314,0.005182603820400577,0.07616963804020047,-0.3385663077347416
0.004727056166558666,-0.2876711136652651,0.10149706609626899,0.03110730081337801,-0.09187013197270164,0.013178806299817304,0.07237280577872984,-0.3693090984742661
-0.002871837565562654,-0.31139860257056134,0.0844831773949978,0.01870152533136757,-0.08748882034050887,0.003683806795048189,0.06345389861761085,-0.35595903350860825
-0.004627127144084166,-0.3282506371990611,0.08452722384564747,0.012627270550077143,-0.09287147816300635,0.014823654175721674,0.07925771105496558,-0.383406069023403
0.005784381060508257,-0.2858023452448339,0.10750870724353305,0.032700788384455184,-0.07700957759425486,0.01633033713834317,0.08027556171198363,-0.34670683941046526
-0.0049503174768541994,-0.3060902441362039,0.08853692159295401,0.019269823953266003,-0.08940073210130846,0.0012440933776388362,0.07542156865017775,-0.3546686849465397
-0.008620743983487467,-0.32382116628793217,0.08484513393164685,0.008575645800676018,-0.0966492864102528,0.009698314996976171,0.07302262960887129,-0.37955971259471866
-0.006853222559851868,-0.35548543855199455,0.0945792568272339,0.006822915079983052,-0.09720552001429186,0.0011978510826836767,0.06889764889685278,-0.40280783226446587
-0.013129140024022158,-0.3380619678857803,0.07580156882515915,0.02128374200854563,-0.0894659519623986,0.015389125597679814,0.06205654880509445,-0.39990318572615885
-0.017903111795568544,-0.3387052776400809,0.0655339657187027,0.011231254103025558,-0.10625884781555595,0.007635364997187191,0.068038484765243,-0.38938398514975886
-0.004210602582981431,-0.3441628958668646,0.07814144622708273,0.006578235916981259,-0.09555821896379443,0.00612159950957316,0.06656691642513213,-0.3917441280763545
-0.00895523495539098,-0.35514680771383855,0.06544921366694312,0.007232194603613912,-0.09163521068347856,0.0036374380616121796,0.07777250679441017,-0.3867435824580189
-0.013101456638834741,-0.35650532486808584,0.06781976412637583,0.02158074251263436,-0.0899391115954053,0.00861946514788404,0.08176663384449304,-0.38903137508910474
-0.008105634677076073,-0.32015869857758134,0.09428359225758644,0.027439112399746363,-0.08451513225743483,0.00427510030977351,0.08697911135913826,-0.3613865788256031
-0.009139120297723997,-0.31825916950450217,0.08353000543810538,0.015269693172363062,-0.0983164041146049,0.006311073296876253,0.06892443924863427,-0.3670709387246372
-0.016031882180488143,-0.3498397059561783,0.061795948248130214,0.0056049113324900006,-0.10142526483384115,-0.001446083770774536,0.07593572180429857,-0.370341712113227
-0.02134060711348901,-0.3663887416509475,0.07853321156251143,0.004320422957454699,-0.0944607546833699,0.005039600979290447,0.0755738438615655,-0.3744807184161905
-0.009054527302381973,-0.32250462715892786,0.09337240657182434,0.033933001947056625,-0.0789314378922299,0.024701723764658318,0.07009264321162444,-0.3567077115272716
-0.006318991199656969,-0.3382298583268866,0.08063195796773802,0.007685910583139485,-0.09615907928228284,0.011604547636824808,0.09108940460973457,-0.33705841613065973
-0.018637219351312587,-0.3383775556292594,0.06842215347815757,0.0060083528861832785,-0.09887600708072854,0.010579366566927224,0.08876851315847493,-0.35001823884478384
-0.020528555401198172,-0.37660811626266044,0.06558626409498283,0.005634986958610573,-0.0903577886645524,0.003581454027749178,0.06610234056363828,-0.37847514566735013
-0.005264666499891536,-0.32683325630694576,0.09352474037408448,0.02316595141435628,-0.08484249422839826,0.020415807747041916,0.08201698101408657,-0.33566490654939696
-0.012107286319031218,-0.3337765996164794,0.08057009864078447,0.020442011024691464,-0.08726672089198287,0.013149076971242993,0.07182734349295797,-0.36078445030417833
-0.010953866643728395,-0.3431520307149749,0.06791555200169527,0.008445977979745516,-0.0879820185537358,0.010979753042637826,0.08070041141193723,-0.356612982123811
-0.012735992754374264,-0.3565289476774228,0.06450777553498066,0.009544008027855561,-0.09409555786442694,0.00970239605136038,0.08630693632942782,-0.3519062401638019
-0.0024959745784510984,-0.32239290462941417,0.0948150011041736,0.023631428340739915,-0.09001729112557272,0.024577091495206566,0.08547313974867579,-0.32269616057171185
-0.005104357170534996,-0.34040157774702584,0.09368066421436011,0.017142454942633664,-0.07733349322954304,0.021346452602941407,0.08511196647058845,-0.3447344754068827
-0.009831157485417704,-0.32589044733396516,0.07232653691271873,0.012613380703438301,-0.08768265654448017,0.01682410827585487,0.09071140485734018,-0.3485193480508506
-0.015097587841675577,-0.3500460574019613,0.058340134036303296,-0.0019726495889458556,-0.09321853322063003,0.010992685050020296,0.0836916594575183,-0.37782117217668754
0.006816245939719562,-0.31574697334788565,0.08470261366261896,0.020309139583299086,-0.08266603246694237,0.027772487879713308,0.0868134199140086,-0.32841252932905635
-0.0015405407582706166,-0.3165132437694347,0.08103776010653187,0.01785293686842023,-0.09233144528437072,0.018522383032670033,0.08908070898147297,-0.32375356757110585
-0.0043056517515623624,-0.31783842257653455,0.07521679120936933,0.008586477919080588,-0.09299768636773938,0.012948538031654501,0.07740351665792898,-0.3195034743112268
-0.005711712219746039,-0.3304681019994581,0.06727233332713133,0.010322380247048292,-0.08792369781963062,0.013627720738175628,0.07958295004604564,-0.3461081883133302
0.010971255092496862,-0.2930024975908154,0.08757023438484414,0.018690775983532616,-0.08058372546687669,0.0224750901010542,0.0840798906706177,-0.2985832144143863
0.015438691145200838,-0.28916124916572816,0.0656929285344974,0.014709786103979171,-0.07995591460513678,0.023582564947621103,0.09040515976678717,-0.32509880235630934
0.003391632358092522,-0.29877258990287325,0.0841555384439832,0.007516859296462235,-0.09652828561815371,0.02328178341776306,0.08892555990627549,-0.30372458157068083
-0.0051797462431602305,-0.3259269432468155,0.07184966334806057,-0.0018625282397817307,-0.10356311212222116,0.01951658526927645,0.07346697325551808,-0.34488835808646895
0.01132202819845109,-0.2878559455462211,0.0908634955880369,0.01805559821217622,-0.07669846678168583,0.021970996503433347,0.07319349701781609,-0.2926524073000311
0.006497534226538208,-0.28224057117458484,0.08921645202080249,0.01066924678688364,-0.10042477563623692,0.012697198305172106,0.08111674520266983,-0.31304026180905237
0.006725390318021793,-0.28348590238939647,0.08479799241625752,0.0060081088975372544,-0.08650943797222563,0.013005035009867683,0.07515834451295493,-0.3198547192074163
-0.004403706964044365,-0.30568952677755157,0.07264986521952152,-0.006527469633791941,-0.08644557102803148,0.00917870903112217,0.06739080886216904,-0.303570572058437
0.0058420156608114445,-0.295279777178749,0.07331366492600203,0.010269912422090742,-0.08696441455152924,0.017651256017296984,0.0754202209256904,-0.29744458155368125
0.014295927821090517,-0.2808212430419233,0.0639671718756221,-3.53835373520745E-4,-0.08986083049949262,0.008260897084383259,0.08057845397503194,-0.30184142942180614
0.0022271368309461836,-0.2794333290604594,0.08633204785820754,-0.003532010591206158,-0.09233098074560919,0.009923645353491321,0.06275980702297004,-0.31064916803115283
0.003611714671060397,-0.3074998170996586,0.07927635858122783,-0.008773274163752459,-0.0936085745003747,0.005259756287845018,0.05903572272074007,-0.315291799960832
-0.008766268861430615,-0.33182701278605825,0.0694355071315722,-0.021495990375860228,-0.10191815307759337,0.002660514400740206,0.06538522561954946,-0.32318751965876263
0.012717692717601807,-0.2952347859539569,0.07218954780516006,0.004713355254048486,-0.07999931348453843,0.01538167709562875,0.08197961870634161,-0.27440781273773485
0.01158111334592215,-0.2859973554389569,0.08100809227650219,-0.011848334124770429,-0.08151972566986457,0.002688736387848108,0.07909568561533505,-0.2844133208545021
0.006411674440712934,-0.30125244388959627,0.06394720298902555,-0.013155772566761164,-0.09295389868181943,0.009983784175236494,0.06521691922267837,-0.2950171935504111
-0.0014205604358976344,-0.32967069960135414,0.056096093042893744,-0.016185789066658473,-0.09119826864693126,0.004520595342106748,0.07227870511349697,-0.32158811925080194
-0.011116423349156957,-0.3432267611094053,0.05515867874341133,-0.019868806046344337,-0.10060074724747228,-0.002110466674835742,0.05820134703990819,-0.3332372926624451
-0.001316925758890339,-0.3046875416229133,0.0677778398239408,-0.012592231747675682,-0.08991249638419654,0.010166001033505519,0.06772439583818643,-0.31005168502944513
-0.0014482696687298858,-0.3077461853444215,0.0665104846652238,-0.018121417675105972,-0.09393655308190939,0.008931065586550919,0.07084564518056115,-0.3174337650387609
-0.0095968061730787,-0.3395680311577365,0.06169594463145492,-0.01961025147146954,-0.09613530978460197,0.007818601086752457,0.06317278612814653,-0.32615731574026385
-0.02221763015205965,-0.3536803087338106,0.051950899871284345,-0.027877218422007372,-0.10338015229242842,0.007448593200866579,0.06639846147588435,-0.35436943118842446
-0.007987125634860141,-0.35174413041130875,0.06356557266861312,-0.009210283825811138,-0.0889941106963487,0.014454128262870894,0.0722029728924033,-0.33151065487312203
-0.007046774980742297,-0.32505931617845296,0.053415955798049475,-0.015031697896445005,-0.08853123311941423,0.023420834427337004,0.07165007342015309,-0.34794539082393316
-0.00726179795482371,-0.33505651219800864,0.0710348199702596,-0.013500318726220928,-0.0953339589359149,0.015629598179576355,0.06567984971333751,-0.3458345736250317
-0.022580952457599553,-0.35397725765043636,0.04550400007457627,-0.012423165741209786,-0.10452733514943617,0.0053117638242089985,0.06809729019025292,-0.34326495772505883
-0.029496813396654435,-0.37975789976077867,0.058681597735649085,-0.021929825053636918,-0.09779852497367729,0.009779313079638039,0.07078386120907725,-0.3711879594687368
-0.012814626879145322,-0.3408836894484295,0.04882536601445124,-0.006551820706675301,-0.0931792465985641,0.017269779501519242,0.07292665810647207,-0.34299656925908667
-0.014119972426470177,-0.3418292752706139,0.05828915094148823,-0.009714966438605827,-0.09156037705969139,0.006832571598748401,0.08310495302127253,-0.3436726767766898
-0.02076307461826834,-0.3548369738683199,0.05855300777371573,-0.014750715106766493,-0.1018444937324094,0.013331542680739238,0.06713107454174802,-0.36559616160448405
-0.025187905808171887,-0.3791739018601109,0.04536848283066337,-0.026014115073114644,-0.10252178224042897,0.009885782936703275,0.07075118210197817,-0.39239875121588047
-0.02238908634535497,-0.3624617063486903,0.0637685275018163,-0.006324328932049003,-0.09456047269917758,0.021267513644680998,0.07172506155085408,-0.36699364129078904
-0.021453455453711703,-0.3424583373553158,0.04987697054146471,-4.322809956866329E-5,-0.09678958670499337,0.024143850796644304,0.08854425682480563,-0.3419263728089085
-0.023017903760124536,-0.3635242555110738,0.08815273921306034,0.0027797186585526387,-0.09858296847385975,0.01611193965784543,0.0713137653193623,-0.3577506337611012
-0.02494061444098014,-0.3671358530193923,0.04840846106989235,-0.011631208101945687,-0.09887708543254928,0.007880619294897685,0.06486014387906505,-0.35305678957035236
-0.020645356248950735,-0.36386545958603783,0.057812824040942255,-0.011247135656627993,-0.09701011483425039,0.01343179561723687,0.07732186213096932,-0.3851816833316704
-0.01256830301186674,-0.34208953036572587,0.06586900671289082,0.009741149699987073,-0.10308281490763384,0.012583859230079847,0.07950192719230656,-0.33759984717556635
-0.028677017433449095,-0.3753545796604848,0.06207276584496533,0.0010467871116237137,-0.10568092420261645,0.015674760506597503,0.07814268568531571,-0.35057554960504217
-0.03821767584427171,-0.3928807881192804,0.05115374687229022,-0.010707127595253817,-0.10179393055917714,0.0031773361439808336,0.08274305286068956,-0.37891612874008807
-0.0582671604951,-0.4226046017170625,0.0522933781883166,-0.021000669867126703,-0.10077276156540464,0.01960007288373439,0.08193844985731591,-0.3873835013925286
-0.040125491421892576,-0.4039493368139974,0.051269777623946855,-0.025309385792180724,-0.1014830843145318,0.021661703309594903,0.09538359986526943,-0.3531147163271985
-0.038827867910011575,-0.4008125799918233,0.04701349547125683,-0.02579707808450185,-0.09963421234300447,0.01577016857977191,0.08077667581788492,-0.3520688152209526
-0.04031454750522492,-0.4015049519735972,0.0506878779549511,-0.02233559564233627,-0.10398603092743178,0.017073473169690965,0.07427446288250952,-0.36180780068263124
-0.029321641315069025,-0.39399327128631223,0.08068206237643624,-0.018731448707872588,-0.10021428446140887,0.013048676787626348,0.0722119578437413,-0.36086019547299303
-0.010975311313029357,-0.3526914368814484,0.07378989236492119,-0.0011125856134053373,-0.09817429969972698,0.005508814194966371,0.060418860576463826,-0.3409349440219971
-0.011172171319887327,-0.37162081807338626,0.07428858229219365,-0.00938143046140877,-0.09930247171614418,0.009438850134891673,0.05998870754749894,-0.36657677579801745
-0.021333012884908464,-0.37435928570841587,0.06345731378160548,-0.0046037680680307445,-0.09976754506428848,-0.004135896191826507,0.07120666355665024,-0.3681303356280612
-2.0373902948035037E-5,-0.3753047680602261,0.06840182597637111,0.0047688336143037685,-0.09240255987807454,0.010156503361882162,0.06324857048022327,-0.34757634168069923
-0.0070402296025665135,-0.3542412120116821,0.08031205854665162,0.004245458119436325,-0.10312676629051294,0.006714631899951599,0.07000265315606914,-0.35159828695586304
-0.00793357263474071,-0.3478551012565848,0.07758691487558432,0.0024772495465029357,-0.10034021234760769,0.002049092734402643,0.07161815978082886,-0.35626142581809034
-0.008076196792546236,-0.36336523468450693,0.09291570845408752,3.7625032202121656E-4,-0.10582345365004646,0.0011750849830422505,0.06034662438235534,-0.36355921617051246
0.0071635601293078485,-0.3329967945658757,0.0767541650285306,0.025082034404640224,-0.09025614277984938,0.007967202333618341,0.07303848563112375,-0.33415594831070256
0.0034666990097215293,-0.3244024623090262,0.07733192748130936,0.013758106376365988,-0.10590842367828661,0.006730773778739304,0.07166562812126535,-0.34456169491222643
-3.03983250704319E-4,-0.3267985437832014,0.07701326369714476,0.010722825962736774,-0.10519720661635396,0.005150022608590689,0.07699826976744334,-0.3496895017454042
-0.002486052058790562,-0.339081655057752,0.09040664198534942,0.014458442419969929,-0.09808437553739771,0.006649817564364518,0.07278263815235159,-0.3230899561578345
0.01328984542447996,-0.30151652667000917,0.10731726726620194,0.02700750016619618,-0.08604588327049886,0.010456145692773334,0.08553236580878493,-0.3136458081584561
0.017772734753200743,-0.297358299055108,0.09603518961528504,0.015886525632982172,-0.09211611461056186,0.009801495324068942,0.08351359069115828,-0.3101256177200106
-6.326751291355291E-4,-0.3159492378346816,0.09174100251198147,0.006155321296613386,-0.10139566084958786,-3.34600828988299E-5,0.08061204629110785,-0.3119944558389621
0.01265270117003642,-0.2884156297554896,0.08890603169399518,0.025143181457640457,-0.09410068539549182,0.010163599526384959,0.08697428012078616,-0.33270482067680746
0.01922419815651566,-0.25810031255750737,0.11045485177035474,0.014920067137985776,-0.09131654113235793,0.006161469013730393,0.08153723451227096,-0.2790095008597182
0.013327605516189417,-0.26900972214175767,0.09816623524853109,0.018614591336906534,-0.09029841213572498,0.012851204863617153,0.06709820239235463,-0.28789457437993893
0.014495089057999802,-0.2957390858198766,0.0814002559543842,0.0022848214351823075,-0.0927800718462111,0.004475738240204392,0.06514716660567514,-0.3040718622868644
0.018307283739752694,-0.2513652864295175,0.10152570118156622,0.031857388929896015,-0.08821484551743235,0.015112822353113163,0.06215285072039258,-0.2853997396450796
0.025440684722078638,-0.2547743430379981,0.07807315934843484,0.01960277410737249,-0.0972936405130527,0.004453191276543216,0.0742748389601193,-0.27306729110140027
0.017763827508830824,-0.2547855215883562,0.0985743696970691,0.017420433296594182,-0.09762979619702362,0.003708678306641447,0.06656052554192977,-0.2793351914142286
0.006985765556414603,-0.2756699647566524,0.0898677933902317,1.9285934582881063E-4,-0.09832044348796873,0.0020271488391324236,0.05369226032758009,-0.2891238815065244
0.02357772017095771,-0.2582263489297399,0.1002428302541815,0.015740557469556722,-0.0962391266613524,-0.007307546550714876,0.06458392702143816,-0.28568496488663564
0.02859128247273506,-0.23275061530587363,0.11612860244301443,0.026363460298690862,-0.09105034713741002,0.006058686722310671,0.05969542274297614,-0.27437695463750095
0.03469740236064144,-0.23107728109826656,0.09013346705830896,0.01665701633549528,-0.09554876120705003,0.008600577425472362,0.05434741484182935,-0.275221843782597
0.031053856627027483,-0.23398801825928486,0.0950781566428295,0.015620527084936728,-0.10481036616228266,-0.01028201734651174,0.04691316621973424,-0.30545019564932324
0.017462253703527063,-0.23724319362991222,0.10241580105264467,0.012103608414744546,-0.10959275732247956,-0.02321320942089991,0.045196165421078856,-0.35103245658910254
0.04314840899159036,-0.2011007007977607,0.12206728759586272,0.037118876568707264,-0.1078476299561975,0.002790599490011783,0.05491512039222356,-0.29569841556397813
0.04667987430205331,-0.1951027057104823,0.11369522319779074,0.034198428814331674,-0.10826760809339275,-0.00277927591122661,0.051574082870175605,-0.29952018360582605
0.0284354911469066,-0.22559640660857952,0.1117766476440222,0.019144339026574447,-0.10939948440715475,-0.012612869228568774,0.06349275264672753,-0.3282117931571194
-0.003474458947059082,-0.28415998328056874,0.08424402309333753,-0.001659504220857061,-0.1264538609911115,-0.008222184999957464,0.04722691158404796,-0.3403083066321121
-0.009056331382613107,-0.3066395199575031,0.07398271849634787,-0.00333888919692323,-0.12387423473190208,-0.016169519173990916,0.03858264351660055,-0.3165891745276607
-0.008464399939929442,-0.2907764375294089,0.10119195736022653,0.006500702341306076,-0.12132469826452133,-0.0034914886621075403,0.0522903945735486,-0.31651597762692324
-0.010470281267703855,-0.29832593663258783,0.07182271826058698,-0.0038411866792626517,-0.11066042947390757,-0.006545753210049387,0.04908624021494585,-0.3118833952478911
-0.022495011737676124,-0.30809389678465876,0.07979731696401073,-0.01231576027557482,-0.11831756831500766,-0.013789874188803928,0.04746001094920763,-0.3152798012775579
-0.028408992020187752,-0.3309558824090506,0.07059955231239992,-0.021719369028359123,-0.123299391861039,-0.010814164110832058,0.04336311316458103,-0.3372675667299046
-0.014253171077224019,-0.297651486749421,0.08620555322107959,-0.004935236866485627,-0.1156821479649431,-0.007400847659273569,0.06047482418913849,-0.3149389758718983
1.8723524410140427E-4,-0.2794556376283648,0.0802651073109213,-0.012456044565528682,-0.11842674583984535,-0.003792568785032862,0.05322953218238562,-0.3138240181615016
-0.007500613901325151,-0.29179921378024926,0.06665021031524894,-0.004183858820054709,-0.12024635790407984,-0.01099454449031116,0.04854326967887738,-0.3253834041967182
0.004593120785312756,-0.30043458071456414,0.06616863120614955,-0.010892293237189701,-0.13011343277313445,-0.017794818434106935,0.050258785173973815,-0.35256790149709094
0.003564195699268762,-0.27244747355680715,0.10412963738507809,0.0011787245018499573,-0.11660883117484208,-0.025063011346437875,0.05157693711651968,-0.3474694305370478
0.02304529308852449,-0.23856605480599158,0.09692486372825534,0.022880492307889386,-0.10895989248473711,-0.003842484030514306,0.05737651611459998,-0.3504834265665889
0.012471223685031237,-0.2406841430313221,0.09760231709414029,0.0156963730365928,-0.11588712497375894,-0.01785106472216911,0.04375358005735641,-0.3549261047433905
0.016791066390392306,-0.24961123901141152,0.09889012644701929,0.010743178605803361,-0.11968503227629006,-0.023962286288355873,0.04920293485027653,-0.3358035015268466
0.019241787199199747,-0.2709653206550016,0.10172613272900258,0.011687379747435469,-0.1378327056299444,-0.023727368907817476,0.047182084082351486,-0.35889083160844076
0.021798680735094413,-0.23888957889750462,0.10656375807891189,0.0328489229119673,-0.11747877648740081,-0.013456890006994526,0.04365223026911947,-0.3428776368933333
0.030060868940199274,-0.24193355466565886,0.11488657296879988,0.021341382269442846,-0.11587200341032877,-0.024342702426807927,0.04968107273127722,-0.34768473424605373
0.0231854738267799,-0.24642292116133677,0.10781847392139252,0.02326309233312816,-0.11585105282025283,-0.023262790704235207,0.04678071792836798,-0.3666919651273627
0.011119487665333478,-0.2705527787011415,0.08774158811162702,-0.002619109644062237,-0.12555644173272712,-0.02602204069574969,0.042657978809691945,-0.39017733730349236
0.01086246377877306,-0.2676196757517935,0.09704744535218232,0.012649156723244716,-0.12494258517751759,-0.02531319970634943,0.05279842689391078,-0.40000172102114534
0.012464571572401264,-0.27288783559831065,0.10889210144952045,0.02390194643094532,-0.13024387857352668,-0.01576173211826293,0.05770719578391439,-0.35468732450540474
