-0.0034266573507534133,1.9342932923877676,-0.04327925733375804,-0.012231494541809723,-0.048612089260968216,-0.06857956895983264,-0.04388747463720309,2.314130169796573
-0.007516168156828559,1.9368873377391946,-0.047964964817359124,-0.041498972867901475,-0.03745391769235129,-0.07100049000731844,-0.09892408321452138,2.247848570250368
-0.038640882275474,1.9146977884011047,-0.10531622169302098,-0.10843103983110484,-0.0823465821579929,-0.13446187751007413,-0.13656974968698415,2.301540722177097
-0.06801473383818485,1.9038545563206273,-0.2026051519605992,-0.22126706790381764,-0.13527782206296873,-0.25605332606300085,-0.22453029938294564,2.3236172701452213
-0.03915769544368825,1.91456793285013,-0.1284987301684448,-0.11429331540378758,-0.09367894726411215,-0.1643012950913504,-0.15531773583813202,2.111358192240692
0.009094262811447224,1.893069070479337,-0.06661109200277741,0.005141002610310086,-0.05001532393909347,-0.04937570459545723,-0.08378532102115138,2.050032647566241
-0.0066858988529629425,1.9068752497635957,-0.07300250634447084,-0.04506603193288864,-0.08161506242558875,-0.1054297787182121,-0.1138857531179525,1.736958844494899
-0.04326604317568141,1.9037610184553677,-0.12972376373994987,-0.13285372057899666,-0.12048334814727961,-0.19069078396545736,-0.17914756902296905,1.6713034693392332
-0.08264327764001313,1.8879879957325414,-0.18909204973588598,-0.2241819622933716,-0.15245591735221253,-0.2624507954373667,-0.2658330799247082,1.7875404132178496
3.9945229031045326E-4,1.8523688411286552,-0.11156172072983427,-0.05833668314049384,-0.08713074196699054,-0.1413939019728461,-0.15020394459728686,1.7368115492857832
0.002521627022417025,1.8830902780463128,-0.06571481347975784,-0.03597080822194599,-0.11441379826156876,-0.08382839868729434,-0.09152330000295865,1.7413926199020038
-0.008348926300842188,1.8559287423366209,-0.053886963433312285,-0.023224255297757238,-0.098444294584937,-0.08788026311383039,-0.10832564268685131,1.9035063974092352
-0.0352691146447844,1.8765343461664865,-0.10210493842343166,-0.11083604785473747,-0.10986054047209856,-0.1968147613695469,-0.18670651852272402,1.9864781093361046
-0.08914536420828063,1.9034188181028446,-0.1769325802305362,-0.2131035177638734,-0.15168880763374923,-0.25362475161404374,-0.2512831319421522,1.9124812120470216
-2.9639275670768884E-4,1.8831452382654728,-0.056866750735781305,-0.0564389619208672,-0.09887521034671712,-0.12665239086502744,-0.10971107924322156,2.045686018227325
-0.007917400770602413,1.8896703696010317,-0.0457099584867234,-0.009175351792157602,-0.07352097773605301,-0.09413722301972996,-0.1297859925953474,1.9459289811696596
-0.006436656849368639,1.888041630909875,-0.08757694057902494,-0.04073150943669331,-0.08000280837977274,-0.09979216863105414,-0.14333549180196423,2.0008855048540433
-0.04412354576654159,1.9074393561731326,-0.11230808542474635,-0.12178781286434805,-0.14946614475604864,-0.17077529583794016,-0.20581030576149165,2.1582688546212605
-0.06853184112214726,1.9084483314290588,-0.12027135962785795,-0.1494356490939747,-0.1292839636579268,-0.20597619506032527,-0.2199544554581297,2.236953472912787
-0.0028793040785093827,1.937750306899648,-0.017693246880869838,-0.03313708652584811,-0.027930032371479063,-0.06808202541738856,-0.08242197729481134,2.3309010107931822
0.007730895033777729,1.913969061715577,-0.07446368214037584,-0.0335587630295309,-0.08651763828201917,-0.08792955860591509,-0.12419766483340677,2.3141364159085795
-0.021703873943290413,1.9182520799397418,-0.09851084899955012,-0.10563404448072077,-0.10886896222993821,-0.17366006065748024,-0.16325975758784467,2.321902720442016
-0.0670694968938595,1.9572383142322012,-0.1868041460167856,-0.18910908885206076,-0.13123876267518264,-0.2426231058854607,-0.21915257189351917,2.264043755783785
-0.030044097370424846,1.9048465584028798,-0.10518336446009674,-0.08849974703702627,-0.10447800120340474,-0.138262346544366,-0.15633085179427847,2.3152257691013256
0.02655659216356078,1.9175993581941142,-0.023650327619402237,0.02374186718097813,-0.031058103058927474,-0.020357600213164757,-0.047701349037446966,2.34722280300294
0.010482985242182859,1.915980794860855,-0.03582632564107038,0.01573004687069534,-0.036859388819907704,-0.05177735548742251,-0.10384010316828775,2.2950567377500155
0.0013583950463858085,1.927480204939722,-0.11027911730617702,-0.07760773004415954,-0.09841900514877507,-0.11156215357794065,-0.12581767350243703,2.3116937183543507
-0.07170775415086111,1.950651882559173,-0.17374585938917653,-0.15645592070410383,-0.0947399936220984,-0.21436937624198749,-0.22256095331602294,2.1867752391427966
0.02776896276836295,1.9332402946533918,-0.040208319273269726,-0.002432474722643762,-0.016628261502024594,-0.06048096011273278,-0.06381806093497708,2.320419651475282
0.04174767400412497,1.927453000090861,-0.0014139103941361066,0.054267163776818,0.008870561376865269,-0.03281375401434301,-0.03605941606437873,2.38502302652551
0.05177079937138801,1.9352851017964852,-0.009199366019157327,0.03024303520052014,-0.012896510005839284,-0.039217311235190046,-0.05008439957691825,2.387647088699607
0.025715692517499618,1.9387692896712623,-0.07514968025834044,-0.08014614071427507,-0.039493169997574934,-0.08878474043644174,-0.09935181924637927,2.3485911664202845
-0.010510898305174427,1.9163283242398186,-0.12253505693828858,-0.11476977864227257,-0.08924511223464611,-0.14461514735188352,-0.13862440578178273,2.215752790563446
0.0858095569234743,1.8705957756310114,0.039446760799198705,0.09306220933682333,0.027103652279686665,0.045724560705438615,0.004217820106588911,2.242957822059865
0.08663745995345476,1.9034827460751533,0.029119440705468295,0.0754667422345691,0.012490022670461726,0.04809267652445595,-0.023994086417665234,2.363246879245457
0.0891534993258751,1.8958670675121976,0.01575067404850279,0.03863166162847165,0.01855689340882667,-0.012498481108149951,-0.0190020389177014,2.1821293926029988
0.03274330203874112,1.903318053967191,-0.033111412095687236,-0.038108722955887984,-0.023212422644178134,-0.034104039624934065,-0.07561826477629041,2.330955520795348
0.08303828764499675,1.9041380054433772,0.03240393561662091,0.052906033657749874,0.03524627986380597,0.0034177989070956895,-0.011704529708572668,2.271306895049145
0.12304954068334789,1.8821966305131446,0.08618101105058923,0.1294437255524812,0.10164823518722936,0.0779388177175656,0.07300295735810686,2.3075631490699235
0.10158845860385893,1.8879866306127158,0.06550427755592587,0.10165534597601121,0.04340992940063406,0.032747128564547576,0.03063495247744548,2.2283566376081754
0.08437614368890113,1.879856900031434,0.026464444148325352,0.016195234180912642,-0.008011998166843023,-0.03734702054876147,-0.012431673196350822,2.3551508206353367
0.07940919239028878,1.9080435573787715,-0.0470693920566825,-0.03102827151614906,-5.397857746598465E-4,-0.06439246858462234,-0.037372110340550116,2.3047299443026623
0.16790190842680947,1.8811287692427492,0.10798131124968953,0.18381106116351975,0.11297560050893005,0.1222551244621188,0.07237313718243892,2.324178405681495
0.1749650231345835,1.8764955665723733,0.14109467826611552,0.1458939404341531,0.11880525838031977,0.09840801797571547,0.10734381376569149,2.279275458595425
0.16763572855802084,1.8855749019729566,0.14690814053713608,0.12122470067586406,0.1009248157311209,0.09818353114147788,0.056591021498346473,2.305512555545461
0.10900882052932481,1.9135107374418885,0.059651999356442595,0.03283960789448273,0.08505882418767265,0.011017615596793267,0.006908353614615097,2.3294351603838024
0.17109008453325,1.8764521689040474,0.12387024343604564,0.1491374015759957,0.1184456939762178,0.08942790440841773,0.09405222361622773,2.1672042104163642
0.2218292471222536,1.8818023375086752,0.21756401523361127,0.2689066903522637,0.18522302876100522,0.22059901068919513,0.17927947638529793,2.234508718184524
0.23699019116838957,1.8637805923733834,0.21360686572289964,0.2417984456266735,0.1745372297997377,0.19256377530916716,0.15196826205730182,2.2789679138870325
0.20701052702114264,1.8751323750151032,0.13697298250088213,0.15207813227305314,0.1439445146314208,0.1332453473869298,0.11779967552476961,2.391227644013481
0.17787440541001068,1.8858310557837346,0.11056217454770212,0.07799014997931009,0.11483853619080384,0.10484657375939439,0.05132761485544279,2.2273661419793633
0.25593424208839183,1.8860703467063773,0.23772262833234942,0.2845679885143197,0.22253478733934018,0.2093817697741169,0.20871446945177038,2.2963127908651493
0.23910230930634463,1.905858086987997,0.2099887760845034,0.2202733204104114,0.19809089534269986,0.22235954843592476,0.20639685170910382,2.285361623903951
0.21865749735344403,1.870561607298501,0.16378399779066227,0.16563003574694565,0.2247542425109882,0.15275515453278812,0.13059196957631475,2.3447677458210867
0.1594608080460627,1.8740673876147937,0.11705082401865122,0.10426739996151786,0.14890026951656382,0.09813658907128629,0.07561851762637593,2.2734207893073832
0.24348976174419654,1.8620612729451371,0.23580426173239966,0.2711616838623789,0.2547823534904889,0.29323018070674456,0.2580043978418744,2.391302876027077
0.2486976239075321,1.877069267571162,0.25216068483826226,0.2628926207517257,0.2738030733104429,0.27830628058354623,0.24614118227723025,2.2696138917365545
0.2379003713242617,1.9080172261298782,0.23533760944291432,0.2023165240200861,0.25456400434922954,0.25646276108497795,0.24637305878754143,2.195366053430549
0.20448138400933677,1.8829381898106992,0.17667412935499638,0.18532563062120616,0.23764563119232582,0.22782790132463707,0.1712670932458199,2.2407689774771113
0.33037557526217054,1.845358971336297,0.3363583611561062,0.37989413012383594,0.3598679758738576,0.3939226008147991,0.34903172167131724,2.2681767775113495
0.2992344061835841,1.878596309427843,0.37085060796399605,0.36291101544848636,0.36907452947124614,0.4189762249098456,0.3469137348196922,2.2658307377349995
0.29653428351744243,1.9102176557869737,0.3212644787986399,0.322466818487223,0.35632600452581703,0.38328027285396066,0.3512794180206214,2.2927261884713377
0.22691149153496665,1.8875872026955585,0.2324759263020511,0.26043005476720515,0.31914206940171735,0.3324412890603663,0.24572138139278632,2.3153840491422772
0.32159126554811135,1.8639964854021127,0.382417067211132,0.4284689053214817,0.4170305751866751,0.48924171501234875,0.4392688184746651,2.40214292733542
0.33230063631283174,1.8895155500112473,0.37895310007012634,0.43410701488199155,0.4751966071543499,0.5235830630804228,0.4844447135976868,2.28792669588332
0.3032345386048149,1.8854642782757005,0.33012612065174257,0.39594176253294,0.4272321621612696,0.5060586344033708,0.4364983404358451,2.265568187801452
0.27245907215418774,1.8913826883600346,0.2724300091977094,0.28785893203514384,0.382959428104146,0.4084023404466689,0.3459100230594121,2.3070494740642067
0.3343875636093065,1.8783357992154104,0.3762704891620703,0.4649350749194951,0.4751382364632142,0.576989309192952,0.5282249879091937,2.276610401002625
0.3519883769533224,1.8796416537567004,0.3900234355737826,0.4953764733874705,0.5297159037146957,0.5950578517067244,0.5442742849711343,2.3976692888715605
0.3180255136590337,1.8737520688338443,0.3731456017648887,0.4344503297149068,0.4798503270490854,0.5664817709639172,0.5219087414916704,2.3929548916095524
0.246567955096066,1.8845932798384237,0.3189565595799909,0.31373158399615525,0.4641798272558381,0.4679885432489148,0.37669374472981537,2.3652718409097058
0.28486752146171745,1.9133629952148978,0.3789763758363567,0.41190434435565537,0.48650321227729404,0.5401553733762147,0.485483267065008,2.2589252710202876
0.3246318659178517,1.9217413326506827,0.37909171623777194,0.4705966834284955,0.5457439452903144,0.6115949899336415,0.6029271987865648,2.403367290744242
0.2954234460780372,1.8630937974556532,0.35130506020338415,0.4100312396060834,0.5351267526049467,0.5783425249630934,0.5803862967763704,2.2933228005186503
0.23633596230098947,1.879445978422866,0.2844247455240292,0.3157066593202126,0.47394398601778115,0.4991965452481162,0.43669454253936607,2.3059294522281997
0.18600290182239154,1.923340209485878,0.2051091787132854,0.25282741956371646,0.4144773098993683,0.40550738507502165,0.3819910967938002,2.220473103626227
0.23934982009104394,1.8985499257563512,0.3255573823745646,0.3884003267223949,0.4882684046188789,0.594678074240428,0.5263354959505346,2.2939610621304696
0.19859426599402605,1.8838843467339306,0.24490349100193853,0.3580401566995407,0.4895104317202883,0.5554472744526374,0.49834784880101163,2.3842539718484286
0.18720180986548537,1.870979551342851,0.2302873414246961,0.2954164801198919,0.4770920998469098,0.4997463080447227,0.44236515265503074,2.2575271167693463
0.11943937861023765,1.9630649727461047,0.13358039462263044,0.152821186016822,0.3440397088517907,0.3861916775931892,0.3298148054664387,2.214950423339194
0.145229921942837,1.9233922523649276,0.16440251418186838,0.24802196533401935,0.422391354177884,0.45143410075734103,0.4173049750829937,2.2766717838446366
0.14744825515568344,1.9157788407060083,0.19745620323637422,0.2784509313420399,0.4416331378074589,0.5037018297114996,0.47279824444220175,2.267119113702197
0.13066812330958358,1.8946223465377605,0.18923319243126083,0.2078044074228459,0.41424063595376165,0.43770086521679497,0.3904824637341473,2.245903018918927
0.11266614864140803,1.9119231505845238,0.1279782304893923,0.1732586797943463,0.3485162962042053,0.35753069908841795,0.31988554849690626,2.282222893831877
0.1531350034387723,1.8750958985246726,0.17789377003892132,0.22286470893250776,0.40166878606142226,0.4048575214734575,0.3875466616404748,2.3095200387395054
0.16308135282019398,1.9175219218610553,0.22875039240423767,0.3007179532633011,0.4179245728583165,0.46905705848217194,0.41269224291785045,2.2869935918251203
0.15450783100744364,1.8885839530841166,0.21027054966106185,0.2730768244525679,0.36331149968072474,0.44716695736332246,0.40315966968352873,2.370357075739739
0.13573444753038744,1.9232759934147667,0.1491308422630502,0.1720341980470298,0.34949947336094633,0.3485615497468784,0.29045385294231024,2.217954737043518
0.09798879762018563,1.9125182972654333,0.11052067443620447,0.18962087518093998,0.34240038968215114,0.33473474521299085,0.3014946581000424,2.3592500056184553
0.11265648929947977,1.930395020378555,0.1776124090734971,0.24536801683580067,0.38675259290300545,0.480750921925872,0.4414235559359458,2.324320467884532
0.0906589619519921,1.9184486617321164,0.1262033131818078,0.19762337408709496,0.3427223833126809,0.42122598157757396,0.347059217096064,2.282095136799236
0.0513695603504364,1.9130705483454025,0.07431087973331553,0.10920420738935285,0.2988881063251836,0.303788909471378,0.23033295165005588,2.406173344074361
0.031692784570206176,1.9262125048664913,0.0543624942851091,0.11452224357978104,0.2714365149453863,0.32220044553968374,0.2827395735647919,2.303767329918922
0.06523830485122506,1.9147871674257575,0.08853185407604815,0.1897129523106319,0.3209665216411429,0.42072436543402186,0.3601573267194257,2.299041199771012
0.04878619497358169,1.957173301994338,0.05154805454108898,0.14714396674159497,0.2645991309520596,0.34776172915455517,0.3231902189487708,2.2701121067931394
0.0015609210322787346,1.972095029392571,-0.005213691540028853,0.04749387240365461,0.21532344351945362,0.2677283196447786,0.2297328438729509,2.2309530973774465
0.0012586778124755737,1.9340696591836912,0.03406016136744974,0.0834182893155709,0.21743639913692075,0.27634204477825036,0.25484589719253664,2.224358348654583
0.02948994159809356,1.937759287614938,0.046046580509169356,0.12515476554576507,0.2502743724157098,0.3252235111134451,0.28780224034354435,2.2420488991744407
0.03260462192729667,1.9613513384226864,0.023897208288261498,0.09940407369466409,0.18885832939543343,0.2532872761932063,0.24396706323090434,2.287229951898805
-0.007138039110200378,1.9650730148937345,-0.03177002352145974,-0.022002983093101447,0.15154912989186936,0.18825144916937617,0.11143769988206137,2.3443183526192444
-0.00631345861122438,1.9305346402544354,0.01278427309968219,0.06948318328004427,0.14948249766170085,0.21483887842345867,0.18683944665324326,2.3352629123340347
0.011858781506230804,1.9538491827791737,0.02351543315659518,0.09710997353083232,0.20073260479778451,0.2555789369864563,0.2209494404929511,2.2712274835159714
-0.014962468301402345,1.9274629803551442,-0.03222353846674571,0.059513769876212416,0.13354146306137396,0.202010533736853,0.17263705725759942,2.304810255999018
-0.03372225246142712,1.9624856391211956,-0.06347309400662525,-0.05871772220073521,0.06110095465344605,0.1162940913308535,0.07021357234596276,2.2597516251296907
-0.04589376646869155,1.9257465745140578,-0.07250762250350427,0.0017321296984784905,0.09812873424192844,0.12175342021857956,0.11859545363696619,2.312224909126952
-0.007636237277378652,1.9261959050471191,2.646830686546148E-5,0.06279003910859028,0.11190944264648771,0.1737993305993185,0.1558477473243848,2.3297528246804795
-0.03252804329588083,1.9397163432196964,-0.012345496315805848,0.019339272100370137,0.10005507139751421,0.1404683527712568,0.11083612006973444,2.285405223170569
-0.044473634904005466,1.970626805794451,-0.11304675423544158,-0.061156386537978356,0.04991268338517646,0.06929704267705909,0.0490544547331784,2.2917939264329794
-0.03733112719479695,1.940976729857261,-0.06397037832885637,-0.013344974025556032,0.04849054546209194,0.10468678513140259,0.0881388844337661,2.292772926254319
-0.019699579591976046,1.9592763563962263,-0.03404639884256668,0.0631096030812707,0.09331715864164178,0.1643473908459094,0.14716699922443266,2.3089234191296355
-0.03304538682915794,1.8997725424985188,-0.04235206325417032,0.01456991421750132,0.08025291240531222,0.09681217994601665,0.10828918101101034,2.4023650823691325
-0.06494685927070079,1.9345197008796418,-0.11292697698580001,-0.02944686752722647,0.01592488254412979,0.05568505642857924,0.018555163165405883,2.2157985011465717
-0.03842356726236609,1.9233439571904785,-0.06652695150223181,-0.01629187718117256,0.002551373539836357,0.0638865281841235,0.02360557124311836,2.3594449173499163
-0.018815350291620053,1.9617376641379651,-0.005324394405665452,0.10054556242596221,0.09901756565775291,0.17030310274893407,0.14719541219825785,2.254177184074839
-0.01689343033137354,1.936700977019432,-0.03528421709366224,0.06028513248143785,0.04567457623554021,0.17184522473748953,0.09050721467964788,2.210033594646289
-0.03545590101505727,1.9464740697865985,-0.054550019089150296,-0.0260120820258369,0.01829783277635018,0.07632747243106301,0.05748668784596962,2.2565290221113785
-0.03969759363004363,1.9495719209552878,-0.06897709972094918,-0.022304129042414855,0.022064367989856865,0.045838281604157025,0.04856631716632894,2.3124626036178832
0.015313073904505963,1.9366954932933607,0.006149552894944614,0.14788019146882164,0.08960075710771753,0.16231467681597112,0.16658744202926712,2.302474557866493
0.005221858234587668,1.9546986123463608,0.020888336382451654,0.1079300303288282,0.05998568174713982,0.16578917449833902,0.16542207349729418,2.2692284614607225
-0.013810624118385411,1.9467510315435925,-0.03631857994981672,0.05835329943926837,0.03787929897961966,0.11777300531525542,0.08915703012084682,2.37360555204224
-0.047571826328342066,1.925978577508481,-0.05848852800951923,0.006668270899265736,0.0012369685840776586,0.041422380523806014,0.03464107628507965,2.319853734167879
0.026101699500954416,1.927928695673003,0.07217317397905765,0.17615344973993907,0.0815859283624066,0.18984794986718584,0.14809881202908873,2.2496434492877446
0.035689662002758436,1.9390268767215122,0.07194322170316378,0.17884016536328207,0.08370990378107475,0.1550027290085151,0.16778922639998314,2.2516835762741505
0.002555418034767823,1.9768729232421278,0.032965106925937224,0.12899204059345581,0.08275792160184779,0.15666029934872544,0.1480385192717278,2.3654594478573077
-0.02177890078468053,1.9607113940521432,-0.03752600062815625,0.060720899412838376,0.007590131123175067,0.06932541621684231,0.05895463953589716,2.2406313978704
0.0027721379766887776,1.9457709744247784,0.02288127601498585,0.15553852148459502,0.06255425444251497,0.1064839008651832,0.1396022883389337,2.3352412552422486
0.03370282550808272,1.9320702943464483,0.06345935011946353,0.18941524123520243,0.06793814423018003,0.18176134252914838,0.1953925313379259,2.2656124976818854
0.04347621061227045,1.881768423563523,0.04705959501951766,0.20784522957419926,0.0469090772159117,0.16813739519452137,0.1443867854220182,2.3141544145967994
0.029132556937496706,1.9353470978309684,0.0387869832296418,0.12373203705488776,0.04803602986538982,0.1102604853231007,0.07574869574254292,2.291925824414039
0.02370932983009772,1.9437459638916832,0.06642361192823878,0.20035982682226414,0.0649533646633326,0.13265763717693077,0.1284528127169541,2.347260091652642
0.08492419766741531,1.9205385151164838,0.14196417591203792,0.2828498530707051,0.10876399183638519,0.22026035152078027,0.2292016087003884,2.2481245568947963
0.07522177422104936,1.8778365449047516,0.11513433051018519,0.28008992917151265,0.1051555620424295,0.21339581603274646,0.20575538180772213,2.3200812887986615
0.06722008238112805,1.9100529676016076,0.06484620688895146,0.20116212853329543,0.08693241872881027,0.13891886088969538,0.15398716302347057,2.3070716780672593
0.07804892446987646,1.929958857696183,0.11076844328954076,0.24400151443740642,0.08073675910265951,0.15587858183595707,0.156956053744685,2.2377302192913464
0.14031700717700726,1.9275951597088612,0.20927340674354444,0.37539565006406195,0.13552561209974479,0.2563144907442311,0.2632690723927343,2.303302221079354
0.147272331517617,1.8836101481845977,0.22299411783841724,0.3767784061176151,0.16690747877850787,0.27657806593122003,0.2667340638882994,2.2724669800128665
0.12689781486690152,1.9152524808548612,0.17634659299476088,0.34594689876376533,0.1335066860549845,0.20927578149808995,0.19321226786904236,2.2257124565787234
0.1045506171217341,1.9505657354451742,0.14858111488700465,0.29020562213884493,0.09744479877160772,0.1659049918591879,0.15639917361005357,2.314758097957168
0.20202700676267904,1.9397365009974414,0.275963090776653,0.47535468759033156,0.168157551695834,0.31056141314356234,0.3343506984941039,2.3549384798379536
0.19998923569597754,1.9099845767491572,0.31099414216793314,0.4381058456251805,0.21150808061169965,0.32122412058006317,0.2752257151849749,2.3551886264506074
0.20337530873241655,1.92572753863683,0.2545773667758876,0.41968122099429245,0.1377097036097187,0.2805022005412712,0.2188411839408469,2.3733155169720104
0.15806691433852593,1.9299765246789153,0.18423058749378174,0.3251348530164489,0.11051338311671778,0.18938270398366044,0.18076956426565907,2.3382865909183788
0.1723400680464606,1.9353326328226461,0.27081772557390005,0.412714295997828,0.18765848705342122,0.26368454207511144,0.24724304628725136,2.324487253136683
0.23409730425492847,1.9149232116281898,0.3201296118101326,0.48008868795159254,0.21722711857444157,0.3612212538615372,0.3228725086957071,2.2601025976636437
0.26909156321659433,1.9197591488558416,0.3170522061997909,0.47635225059910996,0.23922578221371424,0.3488561923388316,0.31707864670304375,2.2972583641457454
0.17965136912375404,1.9352673110482277,0.2865792809686794,0.40019129911185075,0.1815975719986757,0.266484194924788,0.25454863189333127,2.291963622874042
0.17230111382750796,1.9551529776609333,0.20216437756845657,0.2977521131937043,0.12968411085357662,0.18708154693738452,0.17218845287381473,2.2678582868155575
0.2618561558587388,1.9528021020559385,0.32261048048929003,0.45776691348448356,0.17814548290946278,0.350352472064778,0.30592121197853817,2.3412503116801573
0.2204991165850624,1.913240132332869,0.3046485655461886,0.4080822142741488,0.19074035597860106,0.32509870974220606,0.3021824266486513,2.282933478940078
0.2163472966750565,1.9371820189790314,0.2647254312919156,0.41551938750696943,0.19943026306008518,0.26775808234336335,0.2433258581588109,2.2338293417733235
0.166559049961895,1.9406537844188192,0.2185123886768815,0.3104058446003375,0.16553224547385836,0.20021327809158246,0.17514889659578126,2.359371493110043
0.16995153731816917,1.9170220074143673,0.24424348743107968,0.3137002660593932,0.14774664531656617,0.22766566787541917,0.1844714267635655,2.2299177748223182
0.22196312442648877,1.9769606924391614,0.29974133978481854,0.4386679362691892,0.2017666613775709,0.30991894227907857,0.3241549888276559,2.464316617417877
0.20831113833537218,1.9749521431225272,0.24222250409331972,0.38911589064630075,0.22707971751849154,0.32731225062162084,0.27945004581925253,2.3798586730349056
0.17945509100861146,1.9917824712418197,0.18725920593704176,0.3044121909950786,0.16356555709730514,0.25959282254900007,0.20404436804630055,2.2761459558336066
0.1201696352041044,1.9638980533125499,0.10749638911949651,0.2111309198869617,0.10702669923115903,0.1497297449954791,0.10883706770615499,2.3661656430791207
0.16257519634348216,1.9028581539037481,0.19756637987881823,0.3428720884794567,0.1878174183217347,0.2814800839569524,0.26172899214156803,2.345947664422231
0.1650148452231911,1.9506399796355434,0.18106340981563662,0.3212202217388155,0.1876547870752671,0.2993196415950498,0.23021159555963763,2.3321419765558886
0.13813773389785586,1.9461629167977148,0.16486556915006478,0.2605233116575912,0.16231536143072015,0.24736020088039223,0.22342109784492892,2.295953248372087
0.09698034632284831,2.002887526974804,0.09101613968301413,0.16791398842041766,0.1296253712120278,0.14628602021185028,0.11092052233004407,2.19222358348163
0.07732277659551932,1.9599208572516715,0.07890342923429608,0.15673536740391028,0.10264041790577492,0.16262694714898623,0.10360226321019352,2.2521643409966834
0.1313106057005801,1.9699314544064508,0.1729935813766666,0.2653241850854417,0.1613678471434975,0.27316806997009985,0.2187149652678478,2.3462644606824514
0.12699896349551362,1.9452912907616657,0.12014841277099018,0.19616690525743072,0.1061751496170611,0.21060443813387839,0.15409349741979617,2.3129864585110727
0.10031842451955181,1.9886116539967973,0.07978784173018381,0.12274802935926439,0.10388004935118435,0.1466405497571262,0.11113296771312613,2.345385918596684
0.0366248944130809,1.988188639972944,-7.680922550862526E-4,0.01750591699190086,0.05388053269524479,0.08411698297225693,0.0442934447648577,2.3978930852782407
0.08470857920706079,1.9868701667122233,0.0983832513860954,0.2013323676617851,0.1212670116376994,0.17639527918921666,0.18187200066684395,2.3844680567539616
0.08408935487733915,1.936931230144216,0.08232871116128569,0.14320334760209422,0.09550139044154746,0.16214969944168556,0.12302812324957588,2.298074417708794
0.05856181716558272,1.9260846376911547,0.04166437571001522,0.09472792230914477,0.0559033649584571,0.13026350811392273,0.09762862196818789,2.3890175255508352
0.024206007097811885,1.9509619526439883,-0.027175277079595543,-0.010469603960250342,0.04464881176149879,0.049902286249873494,0.016859356312152976,2.2672154335677277
0.10511328475690018,1.9257493937206742,0.07729131345166,0.13209535227591912,0.10161386800756361,0.1916215732929129,0.12635276786215707,2.275010285074131
0.08389943359163059,1.969728993939289,0.060860989881713935,0.12891460604037444,0.11519729053960896,0.18690087630226213,0.13817912491998943,2.2834650640614336
0.05483937821893154,1.9534116565226893,0.04455102593176868,0.08823752209334045,0.09354525490584502,0.14287939965959304,0.06329494780837736,2.4306299410483256
0.03076122423091407,1.9567838788004508,-0.01271589197380535,-8.539433501679102E-4,0.01341947992266882,0.03562094338501387,-0.0015566114153205575,2.349444646082208
0.061172205424473394,1.947849937817475,0.06312559244820352,0.16368246257434582,0.09832139029103726,0.18306218626175302,0.17007440240811628,2.383545361661313
0.05036271626496188,1.9791035117888742,0.019186027038692918,0.1034685806806954,0.1548191327760959,0.22873200394147805,0.1523485179948507,2.3653701036701986
0.019198945534074113,1.9884165755182102,-0.02165734174602149,0.0481123656028147,0.13437686980523172,0.20651591996501367,0.1630483267683195,2.371313429442966
-0.039550022778670146,2.0072891691350905,-0.12790094165771765,-0.05613704018371417,0.06646262062890528,0.09246841600348697,0.06854924335869507,2.347248907548314
0.017711215955090127,1.968578747008098,-0.040517411754700354,0.04340475761083488,0.1466334428078292,0.21131624683533098,0.15963033832953188,2.3297528916063346
0.06524272050645019,1.9786602785464307,0.01342399423949046,0.11654814700176543,0.19775880672485308,0.2663530034380828,0.22759628835802886,2.3567953202974463
0.06846503503925502,1.966982954923788,-0.028523396232896858,0.0837284653832847,0.20197203626978963,0.27033020453661444,0.2140864354461319,2.375460950070128
0.024850302251823518,1.9573336392558152,-0.03665304420959327,0.027053846118739667,0.1470220730028146,0.18316402674925972,0.14128528277423646,2.3091079199075333
0.08882031256749148,1.9949233298304523,0.020099853432949177,0.15202322724315978,0.18711334973035595,0.2653587612892946,0.26674050577178815,2.336830163502454
0.09659574255032419,1.9293421520399705,0.0967065614475,0.2283384587933716,0.2355771682894825,0.35577252586775,0.2866513597800953,2.334463594199124
0.1102139062182478,1.956900557377105,0.061432545904694984,0.1932169048343238,0.25772237559075567,0.3568181995475035,0.3098933223790294,2.394541750202636
0.06041893689471585,1.9835922452909602,0.008990259473758906,0.0950243390454123,0.20168943491020175,0.2794927046467999,0.21685459699499787,2.360865956642074
0.06219493443789125,1.9700955026183442,0.03507354628625951,0.1629675200976349,0.20865008010079938,0.3157583320010544,0.2577480037287418,2.230618282388602
0.08667373400043772,1.9912544274752642,0.10471040633155095,0.26136202326913033,0.3255166846093726,0.43135947407629993,0.4146208492327234,2.2670572729973832
0.08643749319978235,1.9868772148063572,0.06792867498642201,0.24626891407647147,0.34883695828073125,0.4478300161995139,0.41170004420743217,2.291935406843255
0.062372631220408904,1.9900580842057363,0.047113580933708106,0.16124565475252264,0.3212650840407245,0.42775693229865486,0.39345276557360026,2.2863325624208226
0.04929344594769659,1.994350757243366,0.029167623258650303,0.19600807238815998,0.31047423663312396,0.4145263143150624,0.3626544759873719,2.2410706395194384
0.12885566249606856,1.9641382711341717,0.1647657951432219,0.3336864944250268,0.41172468549929164,0.6025191538228448,0.5423647950935081,2.349120657541328
0.12881116162682557,1.9449747958140817,0.1315088168245686,0.32513903429815316,0.4301885755324366,0.577737434818995,0.5333453984707283,2.294803332964174
0.11470531224806817,1.9969756239668204,0.10613344812150252,0.2584505988608936,0.43000387755178526,0.5694021622046695,0.48987639514258907,2.3172534668796563
0.07004888350343301,1.9781174436015987,0.03766770659005777,0.16349774554756877,0.3742712599146379,0.45786318334866405,0.41118540914295637,2.2633930481382074
0.09033446587553808,1.9860633685741294,0.07345737302258888,0.2427698959110274,0.4127764324108925,0.5398614908238287,0.47259927443535066,2.36057219278064
0.15060902152127395,1.9812816917265994,0.15718564120661102,0.36295803257807424,0.4590377274355163,0.6156988597900172,0.5825410745730686,2.3464212398357267
0.14084343268336064,1.9832706626889705,0.14230487931931435,0.31480246214386365,0.46492894790172806,0.6382413725353245,0.5998478754150086,2.3295915957434863
0.11687183401746981,1.9625050917619145,0.08918293411613824,0.23934378495735556,0.4308515168193283,0.5808568750038315,0.48392076696879094,2.3810694804482324
0.05591027464755293,2.0121101923121527,0.02455780523277241,0.13041046822551947,0.39348497115507153,0.4915314239778739,0.39101437963250385,2.239267192087092
0.07440280520953756,1.960373163777879,0.07832542088196094,0.20424447709486102,0.41775000198320916,0.5354492481807324,0.4795647455930065,2.3223680261913593
0.09307910595516662,1.9711948419910728,0.10305703801689332,0.2669510992534915,0.4396096248765037,0.6265181754618019,0.5232569899406077,2.2544217684503405
0.06616394358773439,1.9813958620503276,0.07961220449827802,0.22459035053943172,0.4469665447294109,0.6044955995572744,0.5172040312081497,2.2403622995895134
0.024617645503344096,1.969561828599329,0.010550577077768752,0.13777167836287296,0.3856849546583418,0.5718250325263244,0.44992953761001436,2.2848623294247097
-0.01405416255844489,2.0369479961668895,-0.035756677959113393,0.03209145435501722,0.34488032353922093,0.4175755694866988,0.3561721754585325,2.2125276521967425
0.0029258559202125535,1.9937226476262793,-0.007139673849825277,0.0954077364170949,0.34856474961375067,0.49183795440915623,0.4147344120672573,2.261700039712086
0.009232666290763311,1.97915045653861,0.01682777821308765,0.1314010324033147,0.3614659633955256,0.5239659663309654,0.479045648869095,2.3018458097814216
-0.009475285104523454,1.9917869885512791,-0.0058043137817014095,0.09043454800253348,0.3373680972664957,0.4860235797810135,0.4386095321687773,2.28679929405771
-0.04133431814078244,2.034670203773681,-0.10809916869400445,-0.010151703492530924,0.2958865253825564,0.40007970059501735,0.3408038961536875,2.342028527526964
-0.09508532591539341,2.029221880399835,-0.17412364947821712,-0.11717972923704459,0.224551833013948,0.3572323127509617,0.25720362466153335,2.245907845086211
-0.03824501893729669,1.9805982756872538,-0.0944712041458458,0.015434156212298124,0.2850955223884709,0.4196115805430558,0.3408748553981069,2.305953231308787
-0.07870652615270271,2.029444456048002,-0.11239209789954734,-0.05730370409260066,0.2453871695782512,0.356134475190512,0.3133064935669747,2.3583939682838473
-0.08328425936349192,2.0072868261986825,-0.1552833401882289,-0.0795761876062614,0.2598812186272162,0.33888731940630584,0.29155306114090257,2.220496982292051
-0.1035220146680694,1.9951936279952671,-0.17587664760650132,-0.15690857052524423,0.2226193805471438,0.27946150931403113,0.18583672765990022,2.2806030242992135
-0.07077200607601244,1.9832087177327662,-0.10319772499040164,-0.03969452441673867,0.2319212523656336,0.36295494684254004,0.301369569715903,2.342230524524321
-0.04093878597717082,2.0360432826394708,-0.11678546966746291,-0.027757482088049852,0.24655111531833562,0.35675774809803584,0.30655910518353174,2.30205209758758
-0.033205970757176705,1.9929427608307746,-0.11613177481022795,-0.04306150980382058,0.21070858288922892,0.32835863608226035,0.2728168916050699,2.2460481722661867
-0.07955183437806218,2.0041646414148704,-0.18079256927096404,-0.13279142298792362,0.16627232894426106,0.25159431072851746,0.17689529075161525,2.3186326090245695
-0.028482003277798623,1.9846703066096192,-0.06386305430034667,-0.004038405099864444,0.19141158125054647,0.34514685717162924,0.2675591445677958,2.3953806611205954
-0.0014344601898152736,1.9655118192933745,-0.017879579154877177,0.026277518508291096,0.22477045347620794,0.3749228273840453,0.3142651515324269,2.2912205269773827
0.018419515891326857,1.9668012983443308,-0.02624888544990569,0.05452894772128609,0.20465648407485534,0.3409309253763823,0.3014906518645481,2.365832506937623
-0.01597796903490328,1.9704021839671202,-0.08588830617203647,-0.05868916079440377,0.17994456193974143,0.3050905431267955,0.22778103774014888,2.3592728838822343
0.034550325011786766,1.9750766361639882,0.034749617775993585,0.08882502857237469,0.24083089853929507,0.3498727677884987,0.3105182445829907,2.3664506851916847
0.08292652974670167,1.9840054377556389,0.07677756706069994,0.1426862688421224,0.2771439189361683,0.44720721568496946,0.3780736721756005,2.334589518287674
0.09663737112864594,1.9695097938480999,0.03639148449781651,0.14078930221783578,0.2456411169928794,0.39841745929677325,0.3364964932287158,2.3643660703672884
0.05185773353233754,1.9836421944126397,0.025005166467283887,0.06944434688323523,0.2250016121235253,0.3291505628424144,0.24509299741357052,2.352995144586411
0.09611837274065076,1.9306418203161684,0.0839927702968681,0.1885134172248984,0.2654240663962349,0.4285019089611032,0.3978616791632897,2.277429538818758
0.13279828806808205,1.939206237006862,0.11964245512677477,0.265736053179221,0.3224994847512661,0.471339972664085,0.43323882650319234,2.2185033420633333
0.10736258494488522,1.961655071903063,0.16011406505267278,0.24342637712448287,0.28261931583101635,0.48742544228936974,0.4077749135168598,2.374268051059049
0.09583404588013675,1.9199215152010412,0.07739374453524979,0.17436566818578283,0.2876940879149874,0.42329763849658925,0.35726476112722666,2.3930559584460545
0.09375966285142649,1.9563471696359622,0.09565267986565906,0.19653933077775332,0.310733654320631,0.436540001339647,0.3935337384959472,2.4024832310863986
0.1438617830272563,1.9348027236747964,0.19031387057816718,0.31474100435550867,0.33444345325592967,0.5796422339943076,0.4743725824558354,2.3290437033260547
0.1498611429019251,1.961104888224404,0.18962553433657992,0.33309023324483983,0.34611496463489705,0.5402440890081391,0.446339752231142,2.317655464270298
0.12409249327267415,1.9293005749764336,0.15014197188496178,0.2561638311304456,0.3053718735424564,0.45628965061711435,0.4278577894585469,2.3867846543296585
0.08078870185462197,1.9264884306317256,0.10600325006726867,0.21620878379937267,0.25140292030284767,0.4400277627089807,0.33164276865918935,2.300155178221903
0.1516203434938781,1.9581518488569176,0.22593407359239984,0.36761244738301707,0.37642124493286794,0.5699943362597558,0.5381776847076377,2.262141544885652
0.1637796000401828,1.9526435986049835,0.19962992920376724,0.36864245391349154,0.37140832188984485,0.5665169747125635,0.4946166221023667,2.265468768327194
0.1392937932835429,1.9338808608675548,0.1669768407804555,0.3105944661272207,0.3636922184362039,0.5514062288101962,0.48736601199535856,2.3429639286894353
0.1293863443912322,1.9312503905905816,0.11920672146335477,0.25904885503099395,0.3425282130189554,0.4521224681867628,0.35733502217102403,2.324678073371725
0.18088129036775005,1.9105758256433463,0.2094109035279557,0.31170671711188985,0.34402636962613725,0.5142605573097825,0.4471440113980383,2.4044001663292063
0.24094485485726413,1.9108712813645952,0.2671211798524028,0.4331822566424705,0.42283387812682127,0.6013150794664868,0.5585825423806465,2.4435651025575202
0.25109069956290064,1.9069168056018804,0.30950693434667026,0.43154935355965995,0.4208322074993735,0.6111834650092768,0.5204250367813745,2.390919129718934
0.25008747028898093,1.8567888193932678,0.28700695565299106,0.3787623492317463,0.3747733947061466,0.5579114557938928,0.5024623322214676,2.4501100984575714
0.2537596828925364,1.8631505964175026,0.28643916926169655,0.43221161311273426,0.39046039419385076,0.5608194722650406,0.46372855485113756,2.4500982325490424
0.32369580045991997,1.8361062027459742,0.390959256399515,0.5375761304139456,0.4428015054968703,0.7184176618178573,0.6567905900743787,2.5767844318791555
0.32171833954747814,1.8172789482793237,0.39029211478293646,0.5552342853824815,0.4663553599403708,0.6574942439899947,0.608081728237236,2.455412805117854
0.30641943157395124,1.7946121676271567,0.37842207718217385,0.49146340562002805,0.42964197979362506,0.6582420341246732,0.59330400810768,2.5201733704757836
0.27500403934163287,1.8237783575319977,0.3195001926612596,0.4539395690951042,0.39449804604208816,0.5822274574762953,0.535907197718541,2.500695274061819
0.3497019004787411,1.7715901703101322,0.45307574760637054,0.6114399804372864,0.502677387098933,0.7308783454282497,0.7212474763645567,2.5437211847005874
0.3749481087329756,1.7965569806820292,0.47746947990177996,0.6333034332064069,0.519614486405758,0.7534660811338514,0.7328025902461036,2.5010527795359874
0.3678933362931324,1.7909819337152681,0.4838283056805037,0.6166841957212194,0.517998946577025,0.7379430020696043,0.6731269109225861,2.4712597298282595
0.28046978388191457,1.875617928789455,0.37073515418030656,0.505987119897535,0.4743891023034061,0.659726204858729,0.6117560414398869,2.5525682923120256
0.2538503072780743,1.8890851148584127,0.31200234163140406,0.46632123472268583,0.46934826106011246,0.6579691917453757,0.6188845769599753,2.4367874713070528
0.2887996732464917,1.8874665079541455,0.3800918573821304,0.5534142976567726,0.47329113591276994,0.7482641974410837,0.7162669480526095,2.526018450669405
0.2681110167982846,1.883793911033327,0.35802524313953715,0.5203414641352517,0.49399322577001853,0.7269930195842174,0.6981051616977487,2.4777723513840075
0.2225134761311184,1.9303586283728846,0.31481013295666427,0.46624948965574964,0.4696183359832152,0.6832510722109151,0.5884409942865326,2.4022333870283763
0.17744718317267302,1.9202011873017413,0.24229926537978494,0.3865040975980724,0.4427462053752599,0.5894312996754209,0.479695300385897,2.3066951353032654
0.24940883356579613,1.913633932657036,0.34023202861041585,0.5158309019857217,0.48924830213240617,0.7615700913429053,0.7066057632806569,2.3261062226116054
0.2276786614530798,1.9189323002340861,0.323953500258811,0.5193830948707182,0.48769438525886,0.7515601421370336,0.6828589042206523,2.3625278352723593
0.20261244915073073,1.899126564218142,0.2832534694390146,0.46352790993325016,0.48967123213873004,0.7038639783742571,0.6424404755265265,2.3483979369885746
0.17855045455392754,1.9310031617881056,0.19872392466589658,0.3673077905812868,0.447463377456878,0.6319213819447289,0.5503946135263382,2.264128766429506
0.24159518688883144,1.8905666738010058,0.32222745457528373,0.5335112201040638,0.530693448755022,0.7751357584189706,0.7262366705826261,2.281570188800634
0.24418816073278699,1.9008149428480225,0.3204193658569759,0.5225227066552391,0.5278183290533915,0.7854669386132536,0.7381297148451753,2.4753749118546775
0.2031851092032084,1.8976074400050797,0.27942905836435944,0.44627696834922065,0.5018619668181992,0.7265405517250642,0.6782938580546658,2.3981785736470083
0.15019686436963306,1.9247978994121515,0.21688910098771522,0.33570799564553744,0.4521970326398373,0.6304457185259953,0.6057160455978017,2.4585021549979875
0.17601092653854997,1.9247632550597449,0.251156852373508,0.4182320245353853,0.49533374917948714,0.6791774001774453,0.6417175824264111,2.3727312985188496
0.20583984976478611,1.9034204254928602,0.325700411933953,0.5050088658727122,0.5207621060669242,0.7796865496585131,0.7432472906680642,2.357055103951172
0.17820980253330332,1.9429653812384535,0.2682722819005568,0.4357591099259375,0.5327315886774561,0.7593061822187781,0.6968001924422671,2.4768329395340642
0.1596293839088294,1.9498093070675755,0.212009793773924,0.36009861187157977,0.46448326547270635,0.6939845090037683,0.6045619446981755,2.4591902945923114
0.12794217860651658,1.9055081389494433,0.12134498341462936,0.273090786219081,0.40195132199264555,0.576221264478509,0.5044904577216832,2.533646402579388
0.19294789082543273,1.9250903483080293,0.2586766557747704,0.46344595364220004,0.4958354025390768,0.7167593219506768,0.697861389614847,2.471734111588044
0.16962439105938729,1.9310029306920289,0.24114081619007302,0.40323707450572355,0.49789109837633516,0.7178473450813707,0.6582254916148411,2.43499140805029
0.14164129639393175,1.9326975106668753,0.2157255685524656,0.3506013674480638,0.4704549648026757,0.6447417416248697,0.5487747459933492,2.392477999998078
0.09413674854730593,1.9776473353515065,0.1141223221033891,0.23706863399584713,0.41819623302899456,0.5471153967278881,0.43849027925467077,2.4486181766564883
0.08295312151710939,1.960852333283919,0.14369464667835835,0.24477856010752577,0.3919058437952384,0.5221871003353039,0.4705815541188543,2.4154470164620796
0.12551418894393065,1.9269042783897767,0.21698054034647912,0.36421457229826415,0.47916636141930824,0.688381427094851,0.6149491348248924,2.424157838746353
0.12439578099472748,1.915834871311167,0.18299029254528748,0.33439370887708575,0.42488909883629095,0.6171816007294273,0.5604467009490275,2.4154494105040105
0.10557909433483995,1.9104078669897848,0.15307873434235017,0.3103746050836246,0.3868860914607764,0.5745798755084295,0.504389662848847,2.387659071061449
0.11540307810977794,1.8631047996324201,0.13729463250328694,0.21312781707454284,0.32989783215459323,0.5131990382220236,0.4185724683923877,2.5896675801622044
0.21848009441777663,1.792824275883128,0.2638352647182466,0.41015940611847235,0.44336348566604666,0.6336778844281215,0.5818412481229466,2.5930518496590587
0.20356086875663695,1.8107142693263734,0.26523388548074484,0.38494130523698733,0.4336639277088247,0.6145428096192675,0.5835120879463803,2.574157448558572
0.19559046801945787,1.7797426297445937,0.2522997014663095,0.3651428498419975,0.3846991778483418,0.6245000832608342,0.5093070367003065,2.579848843157663
0.18006530993133374,1.8415251438650195,0.19660428353403891,0.299572417318452,0.3610878534369605,0.519570435219794,0.4222666892499563,2.5174397067872505
0.18029065449492554,1.85053287101363,0.2437099506743248,0.32781260249455185,0.3745271736900887,0.5101774007277399,0.4815308044703322,2.575674225091188
0.19435327045234957,1.8747571927695774,0.2516860271389526,0.36847346408175985,0.4147563050550254,0.5635894595307913,0.4987542532233151,2.5398391104968456
0.1345276751401908,1.9282656329981902,0.17123145442218252,0.2726285074665352,0.3368362745209387,0.4715969521964053,0.4024533930650771,2.5807635973086867
0.11419838956721086,1.9336761007422811,0.11864616385643457,0.18549491562608553,0.3252040986236476,0.3781506402073284,0.28620038723080843,2.468968719118669
0.05882338586253604,1.9769331879795644,0.0425997804295412,0.058192651431551196,0.24228572720130973,0.2560376070963801,0.18284045952253866,2.3982140853766296
0.1362774630861558,1.9239858920848405,0.17861333944103858,0.2525507251238391,0.37439358269627654,0.4210755737120291,0.35073976858177464,2.423518884220958
0.135808073712155,1.950397855894938,0.14932757320936338,0.21191591341340973,0.3071303700574772,0.35540195976820954,0.3225333471205862,2.584014550184538
0.13228586426887973,1.9192641693777797,0.133527293637877,0.16600856476352693,0.28660693546922167,0.3281141261183263,0.26498978242848253,2.376494346174939
0.0755981411247333,1.9240260436507783,0.04306318378004876,0.04378718527338488,0.2070316966692775,0.22333488016145897,0.15278371455899337,2.448101755139899
0.14517806545061052,1.918991063707464,0.15829596854113598,0.19018899219759441,0.2892002019880183,0.34742059747856846,0.31254183094561805,2.3860639264763885
0.15075323726470366,1.93621667104125,0.16670035862719082,0.24812856198357955,0.27775794038001766,0.3704500277035117,0.3283458234754334,2.4299466239794443
0.14566072627556925,1.9464485341786393,0.13291176547653183,0.17230972565825742,0.2594597183403102,0.321997376918777,0.2673537101222712,2.419204211602157
0.09503772082239512,1.9564591763694072,0.08268580171389621,0.0826981796615937,0.20990361937330138,0.26111869769599805,0.2096354042265738,2.428661427222939
0.16385901841214162,1.9156840891857208,0.11596982856308748,0.16737906284854048,0.26197053462265163,0.3123364827235772,0.26400276645062687,2.5552438060877996
0.17870922189648286,1.9327797254551982,0.20372120823871046,0.25493983491119143,0.30352970123632833,0.3786484475587786,0.32650988997080727,2.502110658765334
0.17165484812359733,1.935054153813532,0.1730824027759814,0.23523887341581648,0.28621645993733297,0.3437339427498313,0.28887496755775083,2.440424589657555
0.14281256230864559,1.9582986208027084,0.11674342740373107,0.1036462379784727,0.24781629010535947,0.27217882875965277,0.171739971107651,2.378182853518353
0.13257994862654465,1.9144912649235668,0.10942006902769012,0.15554696353420472,0.2658938741584071,0.2468652082398452,0.20379628488652202,2.4561561108101455
0.21305434761851658,1.9225375229367505,0.2228804110988987,0.27646080155551056,0.315902961784546,0.4162243121726787,0.38869888783039463,2.4400593555293875
0.18437281360079677,1.9251594626556618,0.18887450125592106,0.234582816930451,0.3085853567051073,0.40107104427754015,0.3489370643166839,2.3976476616205473
0.1770394416331167,1.9252367705940996,0.15860036147260162,0.19657767974410445,0.27741704521593746,0.3249144178746349,0.2673174777547254,2.4384288218271997
0.13341528723614138,1.9104904166283367,0.11530026534874305,0.11702554946943629,0.250329015566465,0.2667208856595556,0.1985449492689745,2.4282971144192795
0.21282246870108837,1.8942365938532781,0.25054602398437603,0.3136553967961167,0.3409894144178352,0.44516292758884585,0.3916229229365713,2.4811610712908214
0.19883549939366904,1.9118989186300905,0.21615957744917896,0.2882850675385623,0.34150830776518004,0.4210432625145648,0.38575305283533284,2.467121233655371
0.18416890272573708,1.9084579364276526,0.19094837028191855,0.25672869485392613,0.3139271055891289,0.3924524080350868,0.34997976355204863,2.433882287940398
0.15015412722535018,1.8918486517960147,0.09650255441685544,0.12748611732242987,0.26354927884922164,0.2865156638054037,0.2504735678933613,2.455951084949021
0.16953914566462944,1.912573529142821,0.14505092350787874,0.22716565949084433,0.25423684977856176,0.3204967559655357,0.27994667215897,2.478837938904505
0.20067540078534465,1.905329607444514,0.22625520682048356,0.2990150911206851,0.3538509608007732,0.469430051493251,0.41016059683084466,2.40015297009829
0.1913154531364586,1.9284626057966079,0.21444915195108571,0.2625937404294352,0.35425533838470386,0.4643047626413587,0.4046620422919935,2.492531326390425
0.17672114021456953,1.9542649541141137,0.1749473818793017,0.21006368647656937,0.29209956389782515,0.36202011195211276,0.30931164052071514,2.3242586724903394
0.12894147110506016,1.9599671541674517,0.0826277330287972,0.1077321485040976,0.23540668675505375,0.2617125868925873,0.22556593477637846,2.374240826314573
0.19646480165574765,1.9314528045813482,0.2225339101542422,0.2993259054653907,0.3398115006648922,0.3968406949925963,0.36802105493535886,2.4340603217152235
0.21253590392585162,1.960893799056802,0.22831019555263063,0.2839992044120556,0.3554191538138736,0.4270842050515654,0.38457218948988364,2.4077048334142397
0.18534298975187086,1.915527153614685,0.20951622845951154,0.2528329270350149,0.33092811376989517,0.41990890394916,0.3559927425576896,2.3629336205048945
0.17280401697823994,1.902096713297974,0.14736893139820922,0.1822410692553342,0.3089055524443362,0.3142824433013151,0.264243399225953,2.3714053074574557
0.13285225832508257,1.9166587464868698,0.11724600157047092,0.13039852275852548,0.23904870141016044,0.29797955027506173,0.23574233670494574,2.4283200959757645
0.21587590308547414,1.892321986405485,0.25373159135612433,0.34059253074337964,0.3848905388572017,0.5006297047662105,0.444453299285875,2.3273000728466826
0.21841225416701715,1.875305708032988,0.25057724999086495,0.3218143964860944,0.35835787636932426,0.4615060720734859,0.4314617990675265,2.379924603629841
0.1823351502664551,1.8988115122932268,0.2124100576369121,0.2530758731683739,0.35030659046274154,0.4254453505751429,0.3718621462852105,2.369681526014752
0.13446204742109735,1.932989390275161,0.13637609487507885,0.11976778523452232,0.27322195308871183,0.3056240926029481,0.2258166042752049,2.3757316606733614
0.13682966161120533,1.9340991802390353,0.15138265266332004,0.19873930867368067,0.2877463936900711,0.31869738324445485,0.2706546551766161,2.2558408181639877
0.1975706213687812,1.9443436465155797,0.25403207653847354,0.3194827074511063,0.3967150048709266,0.47131304604014107,0.41073853375646746,2.304951933112036
0.18577012670454934,1.9242370523749477,0.20928687789317377,0.24829102862103314,0.35849111701853226,0.39185090567530406,0.3817761806430073,2.311099833215368
0.20325289385011205,1.9460452205634358,0.19799239415922643,0.180620317297193,0.30139258114184414,0.27976618734106157,0.24651193855966394,2.3986828419417883
0.13884242665407348,1.9155782336309386,0.0895082298331995,0.08518110299121578,0.20985100889874228,0.14082170563460386,0.08971756763478257,2.3569070329213435
0.20919644342230626,1.9366052055607874,0.1977856240142237,0.23754488578242253,0.2644636639683135,0.2771161844178289,0.24989280832706004,2.3248859523986467
0.18670726822672715,1.926594064847094,0.21086275314027875,0.234893757368194,0.24557360964201733,0.2770162061976839,0.2542468623328515,2.405369048008042
0.1916502785907516,1.9222634757918027,0.1878406944704048,0.193599333105201,0.28252845413636446,0.2740465436755706,0.22591984772766285,2.4506499787145457
0.1349598887227621,1.964473129368823,0.12089607683847144,0.08589507090798591,0.17992977760468,0.1089594685450369,0.10717791361387966,2.423016641094655
0.19408739254913776,1.9279034923734306,0.1916390804858465,0.22267833654660488,0.2251587297245312,0.22372626828606149,0.21582424170080336,2.4512626210104056
0.22289167308766447,1.9633778582473962,0.20943044331081442,0.25657792877879854,0.2702027427114284,0.29215115357531923,0.2417958641485229,2.428490617311941
0.1915139452610898,1.9386307212311988,0.20441543411708782,0.21496126040419994,0.24687647359562356,0.23647647455910897,0.22309159288212915,2.3175673750581494
0.19502179504405015,1.924861590157491,0.17847606509587602,0.15964937917230165,0.13372286834356686,0.1267598157773352,0.1074024643396055,2.319031818570837
0.21297417623183626,1.9255407085577843,0.22406381239970882,0.1975737412043602,0.1322334857005957,0.13681397802852557,0.11055205044394452,2.233863861589383
0.2875157210620668,1.8850523391084593,0.33706247405426054,0.36509516850558227,0.2285686234111605,0.31488112854231737,0.32576878603529374,2.1825343454353905
0.27948367491638426,1.8534443677382644,0.3276566055079531,0.36824419868658886,0.21752041060577712,0.3469090551026789,0.30205924779587806,2.0873217248592293
0.26116821706376675,1.8640565065829307,0.295223761620639,0.3247638644406765,0.16785031732799988,0.24550954272732195,0.2651018006171342,2.2210792192779194
0.23125507796102146,1.9002470544475212,0.289872943285989,0.24830796582414624,0.1460240941561028,0.23442536812077752,0.1823683195384156,2.2023322517268435
0.3369670153658221,1.867779743569511,0.4220736433549742,0.45730692120480193,0.3103777249448939,0.46389481312023084,0.37506696861607636,2.2396246856341837
0.3231848090273908,1.9046478022048847,0.39082467588956415,0.42343776724905413,0.2855012361430924,0.4407109858267677,0.36275288665050476,2.081224084965179
0.30390249661278124,1.8583330116116246,0.3850744479753685,0.4110920168067187,0.24995492372292769,0.3950813441321719,0.3374696484084085,2.2142042972433513
0.2629243774165139,1.9102224590378265,0.313358073524429,0.3206471798184906,0.19917678041386622,0.2757204899184072,0.22519770217894375,2.2685973522692056
0.35419665125256167,1.862813561811302,0.4279462482164871,0.43468750712180915,0.2872142444769441,0.40410178151468584,0.3582443858954674,2.2047519368295614
0.3437663916783933,1.865755279916559,0.47928985208421365,0.49361919217015815,0.32581113402300543,0.4896324570997683,0.42980217619294725,2.1849352810001306
0.354401178228216,1.864639383499397,0.43165922305841725,0.46358614454745495,0.30529054096146446,0.4504260621007233,0.3962299211600148,2.2131901856343013
0.2998776306157689,1.900760817559298,0.35720012656417643,0.38120039171989845,0.25078466684561734,0.35295769129963916,0.3292641432459883,2.200822540755589
0.26660300182459346,1.8841956215322462,0.30774598016753735,0.34721448906654906,0.20422275426861164,0.3032248235824243,0.23587316961515903,2.310549191964148
0.3439275532283316,1.8643430120635982,0.46604351598919275,0.5043031932785843,0.32616005737608955,0.45669441504365954,0.42740953042925806,2.2104066217202005
0.332569572176039,1.8784394274361527,0.43510430413449047,0.47523088458243623,0.3055139573886552,0.4550507060538378,0.37016881391253864,2.20872763265074
0.3107898288449211,1.901359314258428,0.37161055181815816,0.41069426159581,0.2921250315283812,0.3900138800210483,0.3701497578601408,2.229743296727213
0.2572737946010053,1.877922082583433,0.2874720308597832,0.30969655707391314,0.23423907525983978,0.2645512204391327,0.24423855937505057,2.179304715344601
0.3303392127161918,1.8562843013760357,0.4237798409547249,0.4905293349651298,0.3218833044351126,0.48121209401892184,0.38811470507615536,2.236210271445187
0.3215975724598588,1.8838323890525166,0.3947132074505887,0.44262561296213393,0.3178883548530059,0.4619728817810302,0.3938643793119314,2.1693303434864015
0.32267548615383335,1.8438224172107862,0.36556044785913017,0.4244563379066713,0.3005912073286616,0.4280451385812357,0.3561679661321713,2.2006060464201482
0.2509643116880564,1.8742173060621081,0.28928889892638887,0.290524756641168,0.23880123662325056,0.31809014903469984,0.26023368245654754,2.1714639335568076
0.262049568525365,1.8882087119249724,0.32907500409541385,0.3336013321331509,0.24434547470973816,0.3142767345840697,0.2867158401594166,2.288439400561389
0.3174449229677799,1.837865840493653,0.4295917325265833,0.46949834401104396,0.34410025739936834,0.49473756721008194,0.458382168578492,2.227804929567815
0.30699404428150995,1.8978582892828528,0.4028753962317831,0.4536808925965251,0.3467108837207317,0.4773927868103637,0.40033913016328226,2.2701949494162053
0.2826513865836201,1.9215354792057922,0.3411707546848619,0.3554339411014366,0.26566481365610767,0.38589677320700655,0.3241945498922183,2.300323938390066
0.20634060624126732,1.8957045272767856,0.26113548209098175,0.25069768488420313,0.22827244159754914,0.29348245517269367,0.21852807854113523,2.254314673040049
0.29356269582333155,1.8691355303526684,0.3998114035425706,0.43604036834204535,0.33694951006105267,0.4461350252497676,0.40953919794372323,2.3415384876562313
0.31521004711283396,1.857879351193171,0.42428118712890867,0.4642293532721817,0.39972009498983463,0.4649481475574149,0.46399990826105886,2.2927342433200772
0.316186335516553,1.8711160749414903,0.37854619998156264,0.41931758568029104,0.34304832537064617,0.4530585062671515,0.4170038745153364,2.247395487893422
0.26035323082738077,1.929044493243252,0.31889075690697094,0.334266941038465,0.29332508490279763,0.33170339136459515,0.2995982126041225,2.165624716277598
0.22642366995577554,1.9541966126245072,0.2601036721477151,0.2372892805845078,0.1943028386568572,0.30486807009532646,0.23553926162518837,2.25423075392037
0.3050154939836687,1.8969420233753267,0.3963616869216459,0.44547683625427836,0.365870241661495,0.5061784826348693,0.4496134504006274,2.246527018387763
0.28769074738736866,1.8895286283898391,0.36457799084762965,0.4208930492217241,0.33828801173648915,0.4603813300566101,0.3990400959677717,2.113709011017889
0.27615015740170323,1.9227073842471927,0.3351180930146883,0.35580096240830283,0.31424709845432264,0.39570782678095345,0.32129349167997456,2.2072526050661136
0.19931832785969233,1.9272706805282485,0.23994708769771,0.26848508572275703,0.2430393323321098,0.31418026531850174,0.23711637747928832,2.292029953964014
0.25444772968334806,1.8551038457112665,0.3529718189841635,0.3691752597608672,0.3024778475878264,0.38396619129812437,0.31975776041129733,2.2437367684925604
0.2859516005969005,1.8567250283052994,0.35098133660696634,0.4076106390622889,0.3444793443510862,0.45163084245759616,0.3911729524484116,2.1995784501561526
0.24303415038375167,1.909743410384878,0.3518524397289312,0.33933966458451326,0.3188065487285404,0.4045064753281249,0.39674985312187777,2.2980793801382076
0.21333948895619312,1.9336260786904231,0.24042531799641623,0.2604492053827454,0.26907309277826197,0.3233634638310571,0.2399853792494851,2.297564650560678
0.20730767659848245,1.86244581655403,0.2577488629264828,0.28218929674846616,0.23437017642955024,0.28443821174311645,0.28495429657419485,2.218122702390423
0.2775445641491135,1.8684674392362792,0.3923102578490861,0.44991181779231304,0.3529563752757811,0.4835838112687599,0.42596430547057607,2.1971468438209145
0.2769481744966002,1.8707439982323821,0.3804842444668949,0.39064457215132864,0.31533941224293593,0.4153651149377819,0.3860759092448037,2.2666719006632228
0.24852591403269425,1.87993631971368,0.34635844255122333,0.33409549384889714,0.27901412299043704,0.385812867764808,0.28019862990402405,2.305124085838787
0.20752161885553122,1.8633686740845095,0.24697026944606676,0.23928108610912263,0.19777923270784545,0.2936513278845422,0.22300005610584672,2.1615140857759263
0.2781767499883024,1.8392692180642956,0.3917785301326971,0.4486896068744114,0.3246557613863504,0.4696537704051324,0.38860270177996203,2.1719065686136383
0.2871007638391771,1.8568896266063024,0.3858843592800783,0.4407871918749896,0.33119925992439003,0.4481878925757805,0.40548190557330416,2.28074329262246
0.2652144910639782,1.8632490466871598,0.3378389097233528,0.4165202423415621,0.3205644451106275,0.43948507497075107,0.3438690527962864,2.2493318955979427
0.2566278233628577,1.9234877361928953,0.29451876040879105,0.3298965141514574,0.23029399653674246,0.3214869801158724,0.2738124405660304,2.1676528989400583
0.24882539502074594,1.8712845843932004,0.3195927779038339,0.3557100043488554,0.25673683456767016,0.3265463189927747,0.2885042843457256,2.2441707642423516
0.3029916049388891,1.8863081501471044,0.42698808146660233,0.47070332978245716,0.3531007073067853,0.49531674724140584,0.4395650994411732,2.256315563398008
0.26246553259974315,1.8744073863362816,0.3613122957256318,0.46633960228939336,0.32006038609047505,0.4127537068087615,0.32721732027907124,2.2197523558673335
0.25612344821831695,1.8456302651807894,0.3448706044377125,0.36937131299495213,0.2920967927722564,0.37953714161652546,0.2785205401463056,2.1891911993098314
0.20746861107250664,1.906202237782029,0.2987393449117402,0.31963814543688546,0.2247355732585552,0.2844143838434584,0.19266632833190184,2.279388206266483
0.29774078748256777,1.8783392223805053,0.4010871718169743,0.4706209169784443,0.3531869211168675,0.47117168608533755,0.4171250988146144,2.2047840926565936
0.2898732699630571,1.85521587704547,0.39881022891512413,0.46016809498665556,0.3211367299505716,0.39111468364595015,0.37714240436418506,2.2397640497927234
0.2810317295633615,1.8606473479598684,0.36712606549442306,0.4240597126311695,0.327020890191856,0.3966018354973297,0.3185996125802643,2.294317161832093
0.2108871884257773,1.8803328348644797,0.29641693677559394,0.3394462698058572,0.23936815817668786,0.3177999337922924,0.26377164914520496,2.149621248906928
0.2950541653500838,1.863782331340982,0.4064829442010651,0.4804000979347815,0.3270500607027079,0.43858591566635885,0.38043253402893695,2.235754426613861
0.30317810127513317,1.8580057816274398,0.40812313208144,0.4999796368793265,0.3358098726686726,0.47682550819055386,0.3931747880314768,2.3344207156978882
0.27769237026569693,1.8935574815349447,0.4120226829582932,0.44256298222167656,0.3111944154874011,0.4101687935227169,0.3253005734188463,2.2034094013255676
0.2349655296048734,1.8980232062042122,0.3285997460833599,0.35286043171696413,0.2485659416462107,0.30694004656660573,0.19663842665706163,2.2250973289087805
0.24141712285594152,1.8876063030412993,0.35955090433787484,0.4029036428816491,0.2842986081673922,0.3580585703373989,0.23929039236698033,2.223197776205376
0.31742966342589646,1.8788355744364014,0.44868790070121306,0.5361075282878597,0.420563217816674,0.5323581079669109,0.43385297446269744,2.1598412791644908
0.2985777296766754,1.8799505419449725,0.4405805523037111,0.5181507950884756,0.3534909503980189,0.4956848030517745,0.3772163478430087,2.214076847548619
0.2706101099329828,1.873538042491733,0.3953282646461202,0.4359660233809433,0.3028661387739596,0.389592463542608,0.30236672398291786,2.1907524639224265
0.23067443941550322,1.912233390182487,0.3269235667534042,0.36069475732938316,0.25377727402781836,0.28752406864501445,0.2260900211194367,2.221285045690663
0.32851362077203944,1.8607227520510845,0.4873368846718671,0.5542343359398081,0.3729600183591999,0.5040261854801303,0.43797788402566434,2.1500427769048245
0.32789014031446007,1.8544457454925805,0.46627488022071306,0.5441508592867831,0.4129511077042556,0.5066281527951672,0.4175300296410149,2.2000980539764647
0.2948905707744441,1.8787603797565966,0.4313833543919347,0.4886859864412257,0.3626199557857878,0.45693789481286684,0.3619345695245245,2.231261713279248
0.2714142789373278,1.9099272856898972,0.36135708080059875,0.4166666905084623,0.2822070908630771,0.3704797718605387,0.2682728683366766,2.23443666948916
0.2662308269441824,1.8750084264546256,0.35929239233473514,0.39155612925061306,0.27425434124727877,0.3157116986864091,0.26294751776594677,2.2265022479266174
0.3418995208015896,1.8348077136009817,0.518050407219875,0.5813107184294557,0.4309498396480093,0.544124228445362,0.4507881669635951,2.1609585205951904
0.33114334822399144,1.8744770109453717,0.47157466683877086,0.5707771186091616,0.3820163047047786,0.4973658576846094,0.4103758799396276,2.245048263931648
0.29051313618624286,1.8944991296966818,0.46941540189535397,0.48579450802867513,0.3300760416656182,0.43063387627122285,0.339130947310108,2.181298467174707
0.27766015330359267,1.894049198770173,0.3597111540365781,0.36620575278718914,0.2844278413138397,0.2856997565796187,0.22545961709773743,2.263018727733239
0.3010228991996172,1.8807253250097589,0.3702687136890427,0.43883959356184354,0.309311101718551,0.36924072084315174,0.26502033400880665,2.2571035468700744
0.3337250107959594,1.8612680918100546,0.48140472529580325,0.5296908372461588,0.3919219403741631,0.48871524432198815,0.3859439520589968,2.2410270059113264
0.3191355551968915,1.8935100078912324,0.4631033958186062,0.5239833295984156,0.3305692760260728,0.4504246534039577,0.3243056778418091,2.176072320202314
0.2929682676931068,1.8402230006157854,0.39863906164968965,0.4591902004212073,0.323094502757851,0.3682645427838567,0.29608216830583456,2.2123126562532676
0.2761097400927354,1.860377471226095,0.34329890602632196,0.37436223582628664,0.22558218162453123,0.28971620154056693,0.20316457998599044,2.21353221165185
0.35622152294435616,1.8714789565260048,0.49816458519691487,0.5621955621929418,0.39272222084202474,0.501684499948063,0.38027111399437113,2.2628323698852695
0.3593009740579154,1.835989520482281,0.4390721075625142,0.5367178125872527,0.3819698812924299,0.4294671400387525,0.3564944450546023,2.211284162007483
0.33411316400194213,1.8712786040581806,0.4553133577527961,0.49337218966529667,0.3406398858395679,0.42768367295975224,0.29343459456201254,2.2515855562372327
0.285601891820116,1.8862750868890217,0.35763443350899227,0.40386783442766105,0.2465158793643385,0.3191406419214545,0.2233618077914422,2.2516981822851156
0.29696975840151824,1.8793179440271663,0.37437054917818735,0.3951183702010667,0.25779364443507413,0.2989089499893997,0.22743128689927938,2.2449689111221107
0.3809478169469088,1.8528240951163086,0.49984190122565064,0.5850827355987032,0.38577429254069046,0.493982491861743,0.4116193746149503,2.2126570621439474
0.34554037554516337,1.8361509019200968,0.47529810502587294,0.5468680577967472,0.37251420389871026,0.4395798907883743,0.3697079297663109,2.2089237156430976
0.36238558357363565,1.8878984724930263,0.4501126614216229,0.49430531256846455,0.32566349710050496,0.38846227371712594,0.311267814303259,2.2270417615264058
0.2840967021778857,1.8725244416450564,0.3519878737491431,0.3653930266427005,0.28318121924688205,0.31487550792169755,0.18283939381685224,2.281915010654936
0.35871526883918203,1.8649213487378036,0.47657357929855865,0.4915378786070483,0.3075630171572617,0.41497596755599997,0.31194985094487837,2.2754078727799945
0.3871983549605848,1.8586205860766185,0.5157905124654867,0.5770362775913036,0.4106372978228717,0.5045127481893282,0.37892431649254743,2.2407044804258045
0.4058682624239366,1.8817478454642187,0.4892652501649121,0.5308242290639706,0.3971146937556861,0.4809616832530754,0.3474698118612379,2.2224013315749116
0.3465066376504284,1.900578371712318,0.40792145566673615,0.42270767267685416,0.30950853818442237,0.3611440954483497,0.2705160578000455,2.2428922802260622
0.3072152964344597,1.896739365606754,0.37611301449701895,0.37200123583135086,0.2524910900405102,0.31958287696392723,0.20077335298207757,2.14460514543018
0.3874339935366441,1.8908343431627403,0.5128318189682826,0.5651581892756744,0.392134828035994,0.4586816518224719,0.38525407914562,2.2156236105125715
0.3987417489126266,1.8669652582040106,0.5100507945288331,0.5200913280846411,0.400432642459379,0.47640600691151,0.37183627750989073,2.319272343916442
0.3599566564795599,1.8900471989515955,0.4656500005050427,0.4842404088771617,0.37098873225906165,0.42100793186739777,0.3060439596192094,2.276987381642041
0.33688429040853485,1.873685261097665,0.3718984927046024,0.39703485852894366,0.2875466933076317,0.30740003580095554,0.2159705361903094,2.177415327689161
0.33970633377844395,1.8871550110401463,0.4304871480918547,0.4504149440981486,0.3090417813963575,0.3925911659818747,0.262502689442808,2.226365869246458
0.39652052726276027,1.8926793794053836,0.49010595719691735,0.5649709155126662,0.3939255629729395,0.4978867110653314,0.3265823321166612,2.13661240694622
0.3774605535977545,1.9137571721646747,0.4687248380977287,0.5051441573034602,0.3706803753337049,0.4136899797927034,0.35350459623699415,2.166102932763695
0.3327455142856502,1.900026791448812,0.43672752256606684,0.4194480425872548,0.32896311181652715,0.37812594742829025,0.28555675906258016,2.109749732154753
0.30981318370399985,1.9084678265298234,0.35644902637028786,0.35527217787022736,0.2933666983791196,0.3000086494633713,0.1798586331169609,2.2509337797495235
0.39739081647486035,1.8792189990710013,0.4777198081748866,0.5725816808079829,0.3784530901785143,0.49392420949358534,0.39706430518464475,2.187517151579477
0.406575895452293,1.8540821179069478,0.5178867086120703,0.5267365938940506,0.4036090129106966,0.45214846869276254,0.40301089172812116,2.191371155492296
0.40383986114478243,1.8906277216861402,0.4729601543071167,0.5142115731884157,0.3731668675105936,0.4346260705612235,0.32893201586777493,2.3163960763263187
0.339143322028923,1.8809449391237407,0.39132153853979285,0.39714819638888343,0.31567801685520847,0.33663015750415237,0.24712699647683908,2.178210028078027
0.31749987855533984,1.8537593681516,0.42069068381201974,0.42572889970053607,0.2954704330258017,0.32866831660581985,0.25616672126349804,2.2040779609388697
0.4215135024451678,1.8541447873550623,0.5423343029331156,0.584146355406165,0.436264140732656,0.5443371577506864,0.4257237398470201,2.2468238954406474
0.40049173491489143,1.873039915450426,0.5109102497092955,0.5355607877253882,0.42866562418503057,0.4945187045370011,0.40061733176806164,2.183874640067727
0.38800959139192054,1.8915573331618754,0.4720549841630729,0.4829064659687947,0.4119979456898492,0.44974128649235734,0.3279722489980822,2.2580517806419476
0.3766830530306466,1.9130875549801625,0.40738249830050605,0.3640433857412913,0.3254898259052548,0.325938884971728,0.21259870181724877,2.18866756106494
0.4067481943675774,1.8863375069189223,0.48645870462393415,0.5092542445144211,0.3978516079412529,0.410743330266016,0.3119131836789152,2.233230518040065
0.4743499258194853,1.9044735105262238,0.5814567624462658,0.6190897974471793,0.4229339917657408,0.5400404560120636,0.41954542643204656,2.1803055770920823
0.4295731054693251,1.9019372295316894,0.5690994375107306,0.5896540315660728,0.40726744251034214,0.5379604237651244,0.41609811770853594,2.207493776763892
0.4307884768330329,1.891436357382972,0.5274566971812754,0.518302912066698,0.33752774319072093,0.4711071487673807,0.3456868001130043,2.215707025196957
0.3889601956471174,1.870026418225488,0.4803008896749023,0.47316024672746015,0.3374622377136873,0.3988536075663229,0.28783562332367363,2.2402905931919848
0.45976555582441314,1.9005008134162567,0.6224321712642515,0.6710344761884562,0.4280317973059165,0.5238338176315842,0.4236913970224328,2.221862835605808
0.4348692121201823,1.8448476342806235,0.5949977561727943,0.6141947736573502,0.40876798486252885,0.5135859753437729,0.3910590678055795,2.1617870205262446
0.40924318727974773,1.8794688334712972,0.5420432870773493,0.541569626345948,0.38117555334621267,0.4991419596950661,0.35707137037665193,2.258041450388905
0.35750743988354583,1.8958889586579006,0.46142877939961513,0.48119611504890336,0.31772461877130553,0.396765677857006,0.274929797203213,2.134450144871121
0.4392885078792134,1.8445191906040117,0.584252975986133,0.6359780430424803,0.4466141922006141,0.5467859490957673,0.4196536377829,2.240197695604337
0.4328946458871027,1.894692671121591,0.5501740766252927,0.6196531336703113,0.42732603544279074,0.5542159036073668,0.42480845996935884,2.155939952629504
0.42576265914402295,1.8671682527178497,0.5735972339066393,0.6004788430761034,0.48560529712116246,0.5637746241363172,0.4609399840440313,2.1839050638726727
0.41966127898046907,1.9019794393942766,0.5211606235840605,0.5535553153758409,0.4603589998458917,0.5445058831770702,0.40216186523139624,2.2064229405099924
0.5028891854626852,1.81647243921704,0.678852246900923,0.705316755171762,0.5605058995645393,0.7280580449372015,0.593258571511469,2.1802301403539364
0.5228099059346225,1.8712394928401812,0.6550785493313029,0.6869722489952769,0.5857584444539484,0.6551850643373462,0.5813584543853563,2.2764233917918655
0.5026666036750627,1.8773390749466279,0.5935101553544347,0.6561898292666878,0.5385293652182311,0.6209835883412835,0.5443332906362562,2.176246565241532
0.46810790147270015,1.882014388669975,0.554052224375831,0.593134912357904,0.5004402161005562,0.5481636759178079,0.38545449984986546,2.2874363907743698
0.5563866694057729,1.851181192400508,0.7036115226892075,0.7497606490469687,0.6281941623513818,0.6925178928654201,0.5778808333233164,2.3084392110575807
0.5599604175530214,1.8094907748648419,0.7016081395094393,0.7340076021206742,0.610696162947349,0.7065603562230616,0.605902928095867,2.3108877250153927
0.5411587724188897,1.890253102545162,0.6520883308574763,0.6821960777785343,0.5978577867742813,0.6739364263673041,0.5534616933963671,2.194495963521872
0.4684586949182121,1.8942173618148355,0.574587558831322,0.5342349692531858,0.4970815913356916,0.5298474915662792,0.4176954787127079,2.2739765014620965
0.4786278192451608,1.8796609963277826,0.6142540687751552,0.6573145298277652,0.5685797250713452,0.6677262217798388,0.550103727590672,2.4154129822592845
0.5402170690131427,1.8828232289934055,0.6873828035439749,0.7218873711294923,0.6592418062161788,0.735578760307993,0.6045308815854439,2.462955667529531
0.513245090659485,1.8746355651167308,0.6503279570588228,0.6946976027155993,0.6165802188989952,0.6568365241793579,0.5595873012687913,2.36241400486297
0.4862375674010104,1.8578827112007161,0.5727064648960981,0.5562417312052735,0.5407075154723744,0.5816398710025691,0.5006365901531881,2.386949630535042
0.4143034688655069,1.9326186788683675,0.5078563374179013,0.46803241974693083,0.48318122028172683,0.480853901904329,0.3665605061961897,2.3190520028426627
0.48890738503205183,1.8619603445387936,0.6164200643166806,0.6638964877448226,0.6406712943138666,0.6786727334905986,0.5686096861253991,2.3514849499963395
0.4727261327037861,1.8742235816080612,0.5995802340287669,0.6286833163332093,0.6176510172097958,0.6794165092981481,0.5738334044131046,2.291747321501967
0.48457811298082704,1.9142547777719081,0.5714132830004048,0.6260174442530769,0.6117833568078471,0.5980184737101303,0.5066773353338198,2.258030581668029
0.39513375801698836,1.8806044939379762,0.5100200132591276,0.4849779952179673,0.5354893010225235,0.58476435576831,0.4047084682014206,2.302595454696164
0.3468735205765636,1.9573756539867018,0.411285596032193,0.46039885969448596,0.48273338869072113,0.5029393922133738,0.41126099507006714,2.3737349717248923
0.42327107323053714,1.9204127386648489,0.5653786101963422,0.6056187799349835,0.6454760563529099,0.6752813962059093,0.6162233551682358,2.402483715593343
0.39624471604988554,1.9001425298902763,0.5382219948527536,0.5754926027507288,0.5952635131903795,0.6868586602786506,0.5643650648334114,2.358018998514401
0.3846219625257602,1.8945414434352497,0.47201859975513843,0.5380999250788491,0.5369625749322727,0.6203230793227832,0.5180000389342376,2.3470359788771176
0.32885008197685833,1.882333809757045,0.41694593555552933,0.42398613927494716,0.5082945342151317,0.5132599636330658,0.36651293341202,2.3166434988702926
0.33949594112480386,1.9237969544804223,0.4239738754528036,0.3922168235620898,0.5203568348578635,0.5190770476819675,0.36182797473525563,2.3642490018514706
0.34745068416074265,1.9333791772660354,0.4704741609870645,0.5262630503419813,0.5818549713816298,0.6468923797094926,0.5051557332580645,2.476019397222252
0.3249342543047766,1.9071018546893954,0.39902909185724456,0.413119016830198,0.5402314481967504,0.5362342637045554,0.4184939296739246,2.309575037761891
0.260481404291696,1.9538811093994664,0.32477341644914687,0.33909186449925127,0.48516025205363716,0.46301325473870975,0.3241631323880668,2.4089215651336238
0.19465882357047512,1.9336001891549417,0.23143423297386692,0.21083424742326554,0.3508592895088736,0.2727031230977349,0.20392947190650565,2.3390456189472904
0.24351699777137645,1.947547444564594,0.2861114382277437,0.3097433676642618,0.411155099730927,0.3893407534647746,0.2886262320937725,2.448335595329966
0.23818673984992927,1.8964084646799457,0.29611047877176067,0.3053383473469366,0.46322037325635324,0.4520375062432355,0.30696253321722794,2.4310803812451707
0.21072797669330884,1.9050360918810594,0.27859944260966873,0.2756985086604479,0.39728594092568204,0.3492638444381004,0.2796564571046716,2.4255509716338826
0.2011512194568103,1.957893608218331,0.19336792447331383,0.20525734332939854,0.28164349106068237,0.2880215310378142,0.1616296509997197,2.3364135272463744
0.18181928020363364,1.9143808221845962,0.1926499598736116,0.16794576532371894,0.2782267039821604,0.22275830133096053,0.12973286419455657,2.3602588161536677
0.25340655198079687,1.9040796015556016,0.2953181288377076,0.3242580704909127,0.3487250409084074,0.3432830913645254,0.2913315974937426,2.3958451754416012
0.2759259751053617,1.9114703654593779,0.2840372776439081,0.2606093984236538,0.3071263293286547,0.26791783737115044,0.18526319877575093,2.4180396080552957
0.24645093254626252,1.9087907943555675,0.25378236251409864,0.2426435765306481,0.23127843758030373,0.1840351050401615,0.1346659133152054,2.310923856919923
0.2083691470729078,1.8816321362585418,0.19117586891535562,0.13403460997166247,0.19942881430152265,0.1089576467748408,0.04148050308838453,2.4413751688351644
0.28396103557189983,1.8931127672950432,0.30209762222001074,0.34003304442512294,0.2585673237827945,0.2377260898548678,0.19398141474350766,2.3684701512344493
0.3005055289296187,1.9237521710852428,0.2944171693826565,0.30413776104120444,0.22666030724089636,0.208392058954099,0.14523452512627497,2.393157688086975
0.29908926099798655,1.9141564207524016,0.2977098498624611,0.2641839958815378,0.19784394812214293,0.12148710265562554,0.07548302601753235,2.4122023443938874
0.22162649259922712,1.9025753503754648,0.19054243257862755,0.1409709389367252,0.11149479758510616,0.018864717294239948,-0.032176718134230564,2.3609437139289104
0.2244179651038489,1.9233353364139787,0.2447166171733217,0.19442384918255387,0.12466312009057753,0.06231096087613502,0.03249417697127947,2.309011783506518
0.2614462888387413,1.9098470189223387,0.2833669169115442,0.2835241871648059,0.1602130089746169,0.15287503917357176,0.07352963189870856,2.2900766569064284
0.23553621953089773,1.8992105707070193,0.25926202720904257,0.2303655876224105,0.1378702974840813,0.1186363325541758,0.029529816439077025,2.4764131736025665
0.20697244266404133,1.9513347330187947,0.1921095957767849,0.13439972019683516,0.09133827558353276,0.05381583908956563,-0.0690063079454325,2.3818161191800304
0.1724235881087081,1.9551386386989578,0.12225391399734564,0.05377411485428147,0.04146588073738726,-0.0486012915469299,-0.10533917245219204,2.423807876877486
0.2426626824698925,1.9239928989234643,0.25837082586104193,0.2587066446123236,0.13469014554151162,0.10835274769728813,0.046108850607589166,2.4458736833140446
0.2395345354582985,1.9611918684806153,0.2275618364563897,0.21140536793106077,0.09418742757105507,0.06275701934396777,0.006528245679509928,2.4419240469754344
0.23540634540943112,1.9291412532347607,0.23363555230510738,0.16825623443760768,0.06206766747418139,0.05484273181153036,-0.0625262450081202,2.389515223753238
0.17797745422529146,1.922943351708643,0.11846258049729237,0.04036244942123184,0.012400804584370772,-0.05437289461149368,-0.10991314017629618,2.39617844103633
0.18469399559880006,1.929090513351368,0.12267809241325003,0.07066054331120017,0.006013407565437435,-0.054797761797940395,-0.06278814572749367,2.474505127186854
0.2285119175108882,1.9332006416664242,0.22096215708659125,0.2262389301608904,0.09337300819709672,0.053861342574227894,0.02861178639920112,2.3887645736417613
0.2230440986574602,1.9297727576371948,0.1972450542526512,0.1945984807916805,0.04960822220807082,0.022344798878295803,-0.022609385474693367,2.4269961808133673
0.1932906223949842,1.9338840218141364,0.14800384518881543,0.1245202811248091,0.0491632263624969,-0.0355626707442639,-0.10416327414981465,2.3118275881463353
0.16158681447806192,1.9830446761631162,0.1036304746375329,0.020638537509108087,-0.015060364678796961,-0.11068883021389234,-0.1602480251789626,2.4570604002484036
0.21537595744803836,1.9584443674705032,0.20892108705836737,0.17803052364425215,0.06426416371396734,0.03311586150499498,-0.025598031593275568,2.42355366543748
0.19398485782000366,1.9175100710823183,0.20932588654214399,0.17957696964480013,0.0183257619183865,0.028754860354568215,-0.04367216993994389,2.384345283933575
0.18623153286446015,1.935192332989523,0.20117499798427096,0.12892607947760515,0.03396208324242031,-0.019646335247817944,-0.08610596724692186,2.4633350919270858
0.1385005405464207,1.969123476801988,0.10210920076898192,0.04352187598593851,-0.021826619393992087,-0.11840449343700885,-0.1551918972847475,2.2951852758582763
0.12705888040035487,1.946963846942668,0.05420364168517968,0.00628550906469331,-0.03732442628090429,-0.1270359952277595,-0.1831001857556036,2.35806486272164
0.2042490407606065,1.9399842688524884,0.2094398537098612,0.1894213009658528,0.055783088038684425,0.03493614656343737,-0.03726185686177046,2.296705459468998
0.19483694201538315,1.9581772377370088,0.18804121519463118,0.14953096817056802,0.027066137978377904,-0.0380792796599238,-0.06768563264744991,2.3444647762181385
0.17506480844624403,1.9257024706032677,0.14193835280534545,0.09358971785847822,-0.009813987837937814,-0.04542606003561301,-0.09682300533087464,2.279623828652507
0.12604094081300962,1.9480822524716968,0.056569721958016385,0.011901033066676505,-0.0646291806563239,-0.13439240467253727,-0.2076031537056753,2.4088549208995866
0.15122226145883794,1.9631431916985234,0.17079904061471118,0.135956659505097,0.02923910736310895,-0.040525298757049556,-0.09423314069887927,2.383687718757928
0.19116523819613318,1.9453726115664018,0.19595808544051133,0.1718937233864926,0.04312686372785569,-0.015481635936288297,-0.09073295515233275,2.358760376512929
0.17114199597446741,1.940432354815484,0.15449928935486124,0.14956377740254184,0.018578819946328692,-0.012844186426574124,-0.11688426147863164,2.2505811727369562
0.14279583428735093,1.975878699126579,0.12064046100269138,0.05025426598407853,-0.03289660140319379,-0.0861614396739191,-0.14955177048749008,2.4468152938237444
0.12033680199894221,1.9433573748976847,0.08651520062911437,0.024028909457692715,-0.05554138902784373,-0.13496162348054097,-0.19012283146819275,2.412371118056021
0.1875263437311771,1.9486727391549004,0.20841114879243686,0.22036966140324613,0.04973054752987747,-0.025624765825724302,-0.07041941484793088,2.3856729300717046
0.1819698941802101,1.9283580752029967,0.17383362429857083,0.15931736861044243,0.002897217800253275,-0.009806712481389266,-0.08680342607056345,2.3839807666981
0.16647398290004362,1.940232700928637,0.14458134818699522,0.14373739174508593,-0.012102271072755216,-0.05621047429414732,-0.14626463368320508,2.3675495389113257
0.10126975113956449,1.9465941785469991,0.07868041509651337,0.04350884552558748,-0.04013901683037514,-0.1622944262898595,-0.21805308037562063,2.2900718462337424
0.13527384870167236,1.9494675057380728,0.12231631816728118,0.11023612553826494,0.014555208887175833,-0.0694878457873285,-0.13330660968223926,2.4279240486462106
0.1793296114867781,1.9398179084413711,0.225108725365117,0.23451000465429692,0.06173131888778669,0.03382632839222379,-0.03053224077810656,2.3177674702663285
0.1897158676595907,1.9323058700805118,0.1903018058220658,0.19732141758959185,0.05140057052355841,-0.019611075735217063,-0.07566716830037139,2.339774271094242
0.17811772579400048,1.9350816019059627,0.15975225267078774,0.13751389538524117,0.029228395759115088,-0.0702123884853263,-0.11568816631973179,2.3987154383718425
0.12248050084336436,1.9469927784694663,0.09804836076465502,0.03458768766915507,-0.04067451665844943,-0.14027060285233023,-0.2098445882009169,2.4017419275539202
0.1912855728247652,1.963469190113355,0.20037360670199292,0.22867964138539598,0.056713361232290475,0.03146160486885196,-0.05445177305676489,2.3472320434792318
0.20391855454041818,1.918284570627221,0.2655897621687718,0.2736292608745665,0.059609133465891265,0.020611226532628295,-0.056734541932637696,2.461673264612301
0.19966983263303895,1.9046070979654124,0.23883108489568444,0.2541416690192344,0.0704502095056351,0.01637875101184696,-0.07854501729971661,2.4036109616348034
0.1723953383134282,1.9553568643908297,0.16119584689151464,0.13298880445605993,-0.003927293509730827,-0.04487845011488922,-0.13226501156827075,2.389894974136642
0.13668889457848057,1.9836846222181295,0.14903955379259354,0.09130952502098215,-0.033770473601372086,-0.09990205979380733,-0.15770875282076494,2.486101930522295
0.2538905823523522,1.9186617040233374,0.2709347120856613,0.27614792576819663,0.0894281008405438,0.052833385497630045,0.029991921424204305,2.4423204043773676
0.23895970820974222,1.9216652793954208,0.25988800129427997,0.27448380590321286,0.07238971657128353,0.04089069470468785,-0.03782977222013469,2.445467537695099
0.21581004232585949,1.9372656580092928,0.24059458156196536,0.2314191287637156,0.04320279250739667,4.6978258448325603E-4,-0.07046089270053867,2.344186931788411
0.18690899374370276,1.9535756520416958,0.18254503326065305,0.12760683544455226,-0.006919002276772529,-0.0805633624491645,-0.14103573116379556,2.4466714523754853
0.1617741029684311,1.9870304238125092,0.1596245590560099,0.1517763083464472,0.005899394930262908,-0.07466458748289155,-0.14675126832256213,2.3785788823925373
0.2656580140489743,1.9181918613514888,0.2542736210869521,0.3079320100440851,0.09766472366228755,0.07224434614608982,0.01883808821216949,2.3811176499486524
0.2524742974473394,1.9220481149159896,0.28084623388357505,0.2986621213738015,0.06681078019411685,0.04420375803228282,-0.010629147364294881,2.4300387485860293
0.2074085591485283,1.9528994686480605,0.21188114569756955,0.21007728251776625,0.05475013448075173,0.00938885258725265,-0.07087971219170094,2.45475799754713
0.199162678693692,1.9316449059148113,0.15175036067897751,0.1078129283239803,-3.440362813415159E-5,-0.04645763478634896,-0.17628725995390634,2.4068566857086533
0.18122968607883297,1.9718399328968288,0.1856895324835107,0.17390848224317362,0.02220283788469895,-0.06488625622686649,-0.11756563282375218,2.4243792542413742
0.252582465677904,1.894694176419186,0.3024558554789965,0.2908664191509858,0.11454024636928371,0.061758947907792114,0.0394766106005414,2.3468246925855323
0.2602291986912274,1.9134184495210769,0.2715052166035451,0.2380823905005519,0.09029268972088732,0.04730182531565999,0.010367975143069445,2.3933474176157743
0.23255609983630834,1.965752970833556,0.22465669382645492,0.1775954372043,0.06976630478984075,-0.011008806221793597,-0.06991420425007111,2.370135531551041
0.1748610317618603,1.9328776753710604,0.13200398887598686,0.10576850829127145,0.02446239924640831,-0.08555054444345633,-0.1470031267192176,2.3041306355545585
0.23629766725902338,1.9370303584048523,0.24873807503469686,0.2318954253682865,0.0765040517892037,0.049613301485531676,-0.012561483472021117,2.32627700443525
0.2610041348336691,1.9181040706620875,0.25181441127067067,0.2745176565240488,0.10633100856228633,0.04983613732224069,-0.0033213246290617043,2.3497305712054573
0.22999944271123232,1.9094958904748578,0.239879593558536,0.22003866116786044,0.07625200674243922,0.024863729240663438,-0.05997105382645423,2.353571029201825
0.1984152599653364,1.9781124885994763,0.1422608594821885,0.13684318616809762,0.03715836106997856,-0.073227950738161,-0.10545410781187502,2.370249686812604
0.17386028240230442,1.9580293107676325,0.12972375519099688,0.05484755922951572,-0.02096910476373435,-0.10829891792331169,-0.16108597729374366,2.4123038125492977
0.27027552671846766,1.906925994132099,0.25336098923317274,0.27821366884174353,0.14686791494667636,0.07217188770594861,0.0372008022603062,2.3972502248514282
0.2572728850447675,1.9338453680655625,0.24382877851425436,0.27692574406024373,0.12627353236329442,0.11280573351859396,0.024201955042299498,2.3746750974522826
0.23623454046100908,1.9206391044326292,0.23071274823440638,0.23375644723884853,0.12196818566064849,0.06511649492692036,-0.03880749358424856,2.3079189328209715
0.1910229230610571,1.9319110377512891,0.15434530047545664,0.11703942485867339,0.02575175529182315,-0.03591905770370101,-0.14450398559621763,2.3354270205976437
0.20710882719121296,1.9366286327871496,0.1740830407751277,0.12534583202791658,0.06960328554647262,-0.021500164213108696,-0.09135596362464855,2.3074855555011937
0.27585603992280644,1.9317616573418008,0.3122083074020676,0.3220512176669527,0.1351764754366272,0.1439439099620916,0.05046840902598885,2.435537483858664
0.2753216443740732,1.9269541641642565,0.3061045795474667,0.3009561591939852,0.15072130705807055,0.11337329041569785,0.03794993400715717,2.321066273297072
0.24937779470772561,1.9096972233619594,0.24255426632578736,0.24282009740385052,0.1510419828613538,0.056014398114100424,-0.030182560836169485,2.3546036038377403
0.2007271625071878,1.9648060306187918,0.14736847037208345,0.1328184171182337,0.06677652419228904,-0.05838483148591713,-0.10785925906157989,2.4169185651250706
0.21149078734423948,1.949091529863155,0.17165951684879344,0.1574852328692439,0.09238094443882733,-0.029109543200451643,-0.07701326980657178,2.3507723266925766
0.2811280736073997,1.9165186108673011,0.28793017863732945,0.324745030787668,0.1771389249313942,0.12337652043662597,0.054438570627584344,2.4070769549143716
0.2722249850254148,1.9147742630970819,0.28989684780784863,0.2836180585007384,0.17834218910882615,0.11317108356012318,0.010432554464884359,2.3351919584297907
0.24254704050310172,1.9144350720663112,0.23844370212654464,0.21148462587108127,0.09495526202843785,0.060946935260124256,-0.01134289297604049,2.401964951162037
0.18182276488031673,1.9508550794429715,0.1640841357194013,0.10916982744841221,0.0658595313936271,-0.06655324209909608,-0.09279847559012648,2.379929313639212
0.24649650954646612,1.9164809959271023,0.26298915843757176,0.2315886294057093,0.15088377839057998,0.0736577077194151,-0.004863977383380913,2.4407216149838225
0.29381625955235235,1.91416106118011,0.2894621417956673,0.3224045875918156,0.21741827135242545,0.15362128480314435,0.08091435487683674,2.3743964192835927
0.27623686363947075,1.9521592403278374,0.30057625080919304,0.26310051312344657,0.18427185603739102,0.1168939115578155,0.008791977314332173,2.3725911076902375
0.24315801821757138,1.931133085185358,0.2490125343578372,0.20078439612176907,0.14700272132442257,0.07661654920757659,-0.0053650070923688085,2.4610712077005714
0.21842471670013897,1.9352978634941027,0.17366328808126935,0.15335447070364738,0.09510342779079985,0.004248052936748378,-0.04197102589638419,2.3062540069234663
0.2960029756478533,1.9193627182704938,0.35465578059876735,0.33919674011837664,0.25126242991135095,0.1956974962673501,0.13027727162726044,2.3542470910674225
0.3027749411182252,1.8766470650901246,0.35148365780553537,0.3433911178916825,0.2400836706243557,0.17129335896702014,0.10606765821101174,2.401327055662577
0.2882855119388447,1.8972239818718644,0.3037269040575856,0.2908613053127978,0.19247921062433163,0.15933004729640707,0.09749518874936779,2.339442567815956
0.2418636306119535,1.9412042749044847,0.24448757704031113,0.1906734257131831,0.15462724896014052,0.03224777465030543,-0.04784845430476128,2.40009828932543
0.3089236144608364,1.9116593940985847,0.31322877436145985,0.3347429100119609,0.22585500425255808,0.15609804122817222,0.08862003351441933,2.270654526342903
0.33927616625382356,1.9243009853863624,0.3899145992383711,0.3753517929240694,0.2880015226508871,0.23794605008049802,0.15864554927115004,2.332778223204987
0.3414579415992518,1.9267664948782166,0.36219509663464133,0.3781227105421617,0.27167647748995527,0.23672760880902066,0.12686522646085654,2.2836129643132597
0.30070006624880197,1.9191983393338485,0.3152789518911891,0.27036971741286264,0.24586392673178128,0.16397127867689967,0.07757657436397716,2.448788282988499
0.2696227733495496,1.9373538024614592,0.26343679998628083,0.22934514240148748,0.1858734170977341,0.09683965236607481,0.04137324535180899,2.416941287839378
0.3579742475231664,1.9099437547061269,0.40726282370889905,0.420281407603756,0.31250717404173994,0.2614146445844707,0.16094571107437755,2.3420716454960346
0.34854038598576925,1.8842216381603614,0.40146316705975726,0.36506787870744173,0.27200279637668096,0.2798921330133844,0.16429917013170878,2.2762115649132384
0.3258489392593937,1.8713823011743185,0.3468706632875927,0.34016778928035674,0.3037163985580171,0.21760996882436573,0.1257034223947736,2.4709008414686613
0.2653933935835842,1.9172199390397215,0.2694903401559006,0.24763137536372778,0.20880104745362407,0.11244144546290205,0.09895352787186798,2.3752853314296027
0.30945346064343454,1.9221000492764542,0.30834381262087784,0.33076824932281573,0.24419494319035615,0.19352186660904627,0.11160803706564691,2.335079871323474
0.34298396690838184,1.9060886468466256,0.40891118316727354,0.38506383048035603,0.33117966778539887,0.29355740519563706,0.21576320474674096,2.401282326992233
0.34643609886866816,1.8840841865859577,0.34841390314543264,0.35148898353732183,0.32113301382319964,0.25386852273435045,0.20307477602882812,2.4896135004325384
0.3082368587413485,1.8947661731758731,0.3014271384502173,0.28724640923817923,0.2568551052191492,0.1812346697274893,0.1335703313754323,2.360727173411137
0.2535752214831587,1.919825870870881,0.2478403024952948,0.2047108415510056,0.20391867218015552,0.08881781016151928,0.05823616049308653,2.4206101599331262
0.33650298029394704,1.8880245864573004,0.32857014421176606,0.3733861241032204,0.3114879678870148,0.26508561425522903,0.18813485146300782,2.395181530765981
0.3091706407854806,1.892880312349472,0.324923436174886,0.3143153487490013,0.29495473635183783,0.2399753192663679,0.13268703747354058,2.391651968847184
0.29484570364973345,1.917881801508928,0.2779150996378385,0.2477494128202432,0.263136828327173,0.17042404939171804,0.0895199282748151,2.424760536791425
0.20805207288441785,1.9256236785740881,0.16420393960782617,0.11871338156287443,0.1797694566249271,0.08505035084563299,-0.0010295118770727353,2.422324241785759
0.25015265217002197,1.9001915095169162,0.21684438718862323,0.2010283876799615,0.2145093272474112,0.1423119977744655,0.09721515541878849,2.5106028370503686
0.26397867672980013,1.9448155006125694,0.27398908435817937,0.27221562503220237,0.30229736983786015,0.21310327643730748,0.11382388428382381,2.4910573516552112
0.23508040897737334,1.9432464746167126,0.22518103251354446,0.22527992360466145,0.2521500177928122,0.18995299625775208,0.12177766166630677,2.5064812334988344
0.2008913817441172,1.9077851703553834,0.17275063093720247,0.1209432631827531,0.1639428386502087,0.10104592282169284,0.01705687160049336,2.410435810567504
0.193616656828067,1.960770615236324,0.17928640938423146,0.12168394967119443,0.15222074675941674,0.07569565917706471,-0.003249275037569572,2.4121315306772004
0.2955085692195095,1.9470807543145576,0.2810788097804623,0.3084721935037384,0.28720055465940153,0.27904513816411275,0.16440179886474354,2.4464107254162677
0.25141219781222507,1.8876750781833536,0.2469162930924209,0.24469210130063548,0.27366316350775577,0.2131275454416849,0.15832289861512067,2.429909989397323
0.21679775743615187,1.9301987571070407,0.2324189814416959,0.21953330783983785,0.24424229433062664,0.17160636599903592,0.10011851169862464,2.3560715020948804
0.17922843935193253,1.9496731526149222,0.13985128271032596,0.11623022028715023,0.17138961251976498,0.09077690202886063,0.01871195608002013,2.3479189842793544
0.273125121684442,1.9182115162901958,0.28831552142172556,0.28207520487341314,0.2673373180774346,0.2016841656903933,0.18142859991191257,2.4351263894021047
0.2476466082153642,1.9418803174633168,0.27035847287807413,0.2868578580309511,0.2894573443759595,0.23526786176944506,0.12298023715275436,2.3101424897123954
0.23125008677399442,1.908800170485258,0.2520782701719535,0.23898456518816302,0.24852164053971487,0.19444961258429588,0.07263728654125265,2.3223705656454694
0.17758750828415223,1.9877043152564993,0.14446284472826007,0.10922875206031556,0.1791171410295567,0.10354590096560154,0.04878574174842922,2.3700815785061655
0.23560841948799624,1.91431091846099,0.2617681420633331,0.26657440520927694,0.2706218746455767,0.23767649795656628,0.14790600835531992,2.27509648996632
0.23071089743607262,1.9018445030896407,0.25234223869898076,0.2563466409219894,0.2686351663035702,0.23869031146079608,0.16947944061215145,2.4207628204685694
0.23472522431972312,1.9548840172444515,0.2565460310129527,0.25866965066602243,0.2684285415667566,0.2051624640961812,0.12486235733036881,2.404480035118473
0.1940470471416876,1.9463559026758532,0.19697513495596078,0.15719388051557692,0.2334019400656457,0.15617815884532646,0.05446313373177491,2.2988351411308585
0.25962735814125915,1.9303618031697043,0.2810595792659473,0.3198523969084629,0.327617871196376,0.2644584943863689,0.1967265274628333,2.3176413001957124
0.2604959988159699,1.9625483046705205,0.2663451284000428,0.29282082275510996,0.2713915556838576,0.271842485929495,0.17732476777896708,2.3734613892010827
0.23318635779936558,1.8933926843543323,0.27973490237559406,0.2711129899513903,0.2832120767257201,0.2299872824062331,0.1326007979207637,2.3979154384177126
0.18992352116220526,1.9288672868230756,0.21618970522163466,0.19743074266067154,0.24272244559307504,0.17947163794615462,0.08369563340214975,2.4755663184357055
0.26914873989580884,1.93749857314557,0.3399796745155138,0.3772260428552454,0.3417427923195817,0.31047163474919937,0.27781208377736455,2.4411360293130198
0.27991779525968663,1.9104869253925605,0.34564167962401837,0.36574773496308854,0.35413543268030506,0.363939287176551,0.2819491154167598,2.411957852500099
0.2727174881039075,1.8934985616143372,0.3269622992465019,0.35872140819176196,0.36316961790978886,0.33764199732185207,0.2336325574226524,2.341510554940402
0.25197151154906017,1.922816874380409,0.29052011486840396,0.285061819209506,0.2969547083075609,0.2671322084692312,0.16921372813316246,2.4162481369673348
0.3166478303135292,1.9186956927174015,0.3899668145045039,0.4626542605160206,0.4284791226832243,0.4207569962621255,0.3572839263056614,2.37677985673716
0.31969711685829233,1.906938332781395,0.4412677553923699,0.4645877662301905,0.41366397357614404,0.4382731729665744,0.35470121598568266,2.4659614523833278
0.297510128710327,1.879529724449376,0.38803455388638497,0.4356637062467983,0.43667653764957276,0.3830292294296401,0.3119351340726172,2.336705478355893
0.2747673298851189,1.9489939174092938,0.32840068350819884,0.3682623243686715,0.37231373109219834,0.31049585566265026,0.25716952679456606,2.4610197111134315
0.3482743331549834,1.93071103678899,0.4613252553118962,0.5157816849600271,0.44307942746795576,0.45618095667148445,0.4277457284078475,2.3868357311166566
0.3559669983115169,1.8879752993097294,0.4413768272802484,0.5349486588363646,0.5239135553260355,0.5084628620669919,0.40344819976024504,2.4724692004262394
0.34115759502925386,1.9009224281941892,0.43844473255301614,0.4903172585658285,0.46069452734352134,0.4773934691610185,0.40358697485865264,2.4754671025443122
0.3125139418594133,1.8920643453050765,0.3623810339044851,0.399591331143172,0.37981541967389926,0.3778809692478637,0.30051645402253274,2.2969627816130616
0.3274619666285675,1.9091006308529372,0.4241949099331803,0.4574535161382784,0.43340698008633166,0.4270259607325346,0.3544431371667447,2.326154652372175
0.3522186234830002,1.8881572448355202,0.5011855049695642,0.5543064805088481,0.5030331393009584,0.5472006706772786,0.42644363008677294,2.4237876304166552
0.34225212411487693,1.877461891225316,0.4414842830044109,0.535656606739074,0.5012287353227834,0.4989901228297051,0.42483899629178956,2.456582791325651
0.30049304089225076,1.9164176439815417,0.3895197451320827,0.4358162936395646,0.42380236281444167,0.4127954450984288,0.3742486301023212,2.37426159483364
0.2688993574598416,1.9278614654236996,0.3113184652515379,0.33660678389814624,0.38331917280671796,0.3226747308737739,0.23571232614033003,2.3611754930818445
0.31580419904047957,1.923779882679553,0.45070959218404294,0.48949586248327787,0.4398466407882341,0.47336632769895215,0.38864130177154743,2.3177238167908674
0.3074962536730552,1.8753647368903705,0.4201024957031406,0.5061833631810948,0.432817900513886,0.4817856338142901,0.3926291970768883,2.3178215837354306
0.3146851005723841,1.9015230712916877,0.40645394262806706,0.46902454601504473,0.44117013783281434,0.44431229532950467,0.3565644273005828,2.301949679302798
0.26788951438140235,1.9311571756874537,0.3446458281911187,0.35192570638852905,0.37339293234278487,0.35055241590190905,0.2777795577853608,2.3486269605405665
0.24419860135465338,1.9370578637562463,0.29753575138987937,0.2965772152511204,0.35800784986055784,0.30703213526624873,0.2502741832844931,2.3679386180593043
0.3159079145870264,1.8988637016544996,0.4129261546917338,0.4893547217870221,0.457685409596905,0.46404471068094905,0.38433173082913236,2.3962142940772657
0.29109610236605227,1.8965248482391466,0.37830840764654444,0.44089147182133703,0.4057379033716299,0.391301352649041,0.3371413833874144,2.3745240917355743
0.27608887411375155,1.9542230885136112,0.33833972259416817,0.38124001562533716,0.3776279883406515,0.35568751410547844,0.27442872005973357,2.3806327671440886
0.2298996295073015,1.949639658681544,0.25524746721179176,0.26618531833867815,0.3230050840567849,0.2386820291523205,0.17349248075205606,2.3818909159153736
0.23186864889197034,1.954906969808969,0.27849742778305747,0.2740423775487572,0.317508578998487,0.2412661083023709,0.18126190681152635,2.3635383570048574
0.28234475446435875,1.9177294257423005,0.3657167308422914,0.390839854343337,0.3779628817724062,0.34468370364107986,0.2764363768970274,2.4840162298823922
0.25167886391338185,1.9228457686067444,0.310446325104567,0.3140579802776853,0.34726839031488066,0.3183744065197706,0.2408669417493159,2.430351979462078
0.23113025734839568,1.9283736563973968,0.26540592558019926,0.23657500643097323,0.330060248292092,0.2605773484658579,0.17232537127163358,2.377480620394774
0.16768965232583605,1.9783933616187754,0.15658664658218016,0.14533998256543149,0.2199349154470614,0.14506266017855296,0.0656912418899162,2.368774829352378
0.23236570732993167,1.9459141665219768,0.3098596107924499,0.29284118909734064,0.31480648307898607,0.2567977004843194,0.18196483825606855,2.388503196026373
0.2219703620243518,1.9339917976771168,0.28753818267506775,0.2546146615952091,0.2774767763687298,0.2545330415474173,0.16608563050794886,2.3398185557299493
0.21456835222124573,1.9268885327709575,0.2402778866077001,0.22022178086998764,0.26574089045740845,0.2165081431365813,0.1698999464420929,2.4088751813172795
0.16118075507417093,1.9661741268873043,0.1858782616100692,0.12635161377473147,0.2070703470065273,0.10781755753083314,0.04887123007536435,2.4810162488880865
0.18119453602465885,1.923572790462004,0.1673679552746251,0.1137980945339074,0.1891413260736573,0.11013968186073779,0.04539255617703582,2.343647896635248
0.21279219085396198,1.9002972911499458,0.25645136777237576,0.2475944200320056,0.2637719362718226,0.23542174735643057,0.14753042783111192,2.368963013707095
0.20202322260503994,1.9735559567107603,0.19882678500545173,0.19455875554859967,0.24992889363396326,0.21926327030330306,0.15867201535247452,2.4130939657034802
0.18267188999628284,1.9494812145635914,0.2088358554084548,0.17396695644409135,0.2450659267898056,0.1858639421163153,0.10611991794371166,2.297044657165497
0.16131515565081805,1.9322977856390062,0.15631368235620738,0.12577498308807986,0.18440923230578352,0.11679863318309686,0.036606468164029404,2.41621473364746
0.22957968956117983,1.9366076835745263,0.2756022990698359,0.2842801998425091,0.2834297094271567,0.24433073640919942,0.15803292205880734,2.3063248931461766
0.17170137365094565,1.9755847002618514,0.18410145288543006,0.20571004281812114,0.22244482246040181,0.17136967838505326,0.07740137571270538,2.329945228323279
0.14796824365077912,1.9833675740703225,0.16511428011211587,0.15098689439174195,0.168574288847235,0.15003689461762096,0.017717980290386105,2.385178992579607
0.08104313670070687,1.9636743440781856,0.09150993570240568,0.03916195812243301,0.11570153809417046,0.06418903515837493,-0.005938637639871422,2.4321485098022446
0.13733983955295476,1.976434554047741,0.15455825666082446,0.18458822532782923,0.267064677857358,0.21447970427987165,0.10244260888083881,2.3915610997469874
0.13238504502423348,1.9733743258656686,0.13262544992795372,0.12412612473947597,0.259027600833099,0.20228384047178966,0.08807805470389583,2.3930512164238626
0.15816326098403283,1.9767691766734206,0.12721141013791723,0.11897400760591666,0.24628844203554467,0.16619053087150645,0.08359594209700998,2.334719181735998
0.13619163886661725,1.9712368377092286,0.07679123835352285,0.07190314886140588,0.22679798412737023,0.12903638512101998,0.026670568048072992,2.3544073292020005
0.20468053123729474,1.9338501271498256,0.19391897182913584,0.20856514401646187,0.30821172374302325,0.2346151043120379,0.14246968193576803,2.32087103211071
0.19201064150426916,1.984417919137875,0.1667550313592829,0.16274011141588182,0.26632031067106676,0.1647654073588002,0.08985522602498808,2.4087013877665315
0.19184746856122,1.9475680102751365,0.13324172950523042,0.09734234167602648,0.2050471561268456,0.12661505121941727,0.04788590001798501,2.342891928498255
0.15870443422549527,1.9678241630238777,0.1453652702959412,0.07698064756431512,0.20966614578993997,0.11056403308138056,0.06790977062964829,2.276287940599026
0.21583760958851675,1.9674301240885776,0.2289312521465627,0.2212244320436812,0.2956346499038024,0.22965911274454334,0.14044631275543848,2.362598047140607
0.20245869684253115,1.9399827171713608,0.18587236965727624,0.19086697949735684,0.27623679156163683,0.20364587608085105,0.14197780885108988,2.3403445584991367
0.17889982368397014,1.9452175065102857,0.13133625841642813,0.12962573676782393,0.24047705117410884,0.1657074205269562,0.11844218040409178,2.3404010117693046
0.23007006521833026,1.9367076986045,0.24199948035056013,0.2569607892732179,0.2856914938974955,0.2808813756451825,0.1953143964302705,2.319045722246161
0.2630852816001097,1.922019351548568,0.2851260856239697,0.3036720778837091,0.3403469316644967,0.31797439737681565,0.25579075668840845,2.377232483015826
0.2570393318981397,1.9177915459536554,0.26895282724349584,0.28039445501641846,0.3317964450341358,0.29921573764852644,0.20854135198828222,2.3773978235337454
0.22951516813763792,1.9433901553190014,0.23045449708331764,0.22914702480789054,0.2857475808122643,0.2600006268275104,0.21486370465546203,2.2424787158074886
0.31517201144704066,1.9250381417810836,0.3623033804575184,0.43299364415194275,0.38230003916910776,0.4301664912899268,0.35562738233227087,2.3620503560084605
0.3253377452537486,1.929075649272421,0.36994986018682874,0.43622030158927,0.40560510400115746,0.4478244067789276,0.3649023913997135,2.347158719805149
0.3190335317535105,1.9562934709675752,0.34794970626147315,0.4102722054318458,0.3956467057239011,0.41426928774875,0.3000098907003826,2.292325961982382
0.33370243501809393,1.921184455421701,0.40470240296840576,0.4437619357161711,0.4112346875890891,0.41735665578177006,0.35289399472200994,2.4731877455264835
0.39899234200787975,1.8755966758787948,0.46398761137772904,0.5986049264586705,0.4682267001326685,0.5622786873395662,0.47755100579228715,2.3414833925469667
0.3954749230177504,1.9150321796255971,0.48114553951497285,0.5614880123106823,0.4817740740437316,0.5327051080436734,0.4949504729507481,2.312736754467447
0.35331657687500306,1.9356719704846026,0.45190621763804334,0.4989885697013966,0.45767939530554735,0.4689464319232568,0.420644917370566,2.360250059891275
0.4170250033160138,1.8803029566376035,0.5057151095221473,0.5862085833044121,0.4858216486950989,0.5437465039892538,0.493392849366553,2.334045405868666
0.43774632551307363,1.9198740583439036,0.5766815903620679,0.6658741545150129,0.5265929188076484,0.6430820649005191,0.559933214295913,2.3262240918582497
0.43550598128627666,1.910018295861669,0.5349024694144389,0.6367378337488345,0.5366087771730972,0.5978066452061852,0.5403247387674759,2.360837220727259
0.39940609109886965,1.9081707773618686,0.48123869595826363,0.5475313630501628,0.48468454017971774,0.5434027014239077,0.4567059949332359,2.2949317191559437
0.401115387743123,1.8856446306184311,0.5094523600905306,0.5805489833865107,0.4892324734080371,0.5632594305680338,0.45941280838846493,2.297154391046783
0.4754296142377972,1.9001596907042064,0.5867461031136267,0.7170662794541144,0.5537007943809741,0.6919748585266,0.6295385652836663,2.3985736367107204
0.49342397089247786,1.8730758781663188,0.6150824889330611,0.7285253432539963,0.5781372212969055,0.6568082418274221,0.6166034117811161,2.3815142532587132
0.46416380918758515,1.877615204195007,0.5905869666770407,0.6989993685077232,0.5347054977565565,0.6322201848539468,0.6034875632602913,2.420324299350931
0.45069015512566585,1.8653066537683862,0.5321250560810245,0.637063469586025,0.4887482048393291,0.5571061397005961,0.4693608147681811,2.550515786992217
0.4690924258776824,1.8233521334178033,0.5962930236638228,0.7207110696642349,0.523372789122596,0.6150716316504719,0.5622653482429795,2.377700394582852
0.5070767550126403,1.8492080242688405,0.6651665670419054,0.7942558224192703,0.5778531640002547,0.7259712151286266,0.668426963541815,2.4372441549751045
0.4548334735167954,1.8879348063775347,0.6250366994721672,0.7534984229844162,0.5036871813248736,0.6800062268935554,0.6294560377483032,2.5252663765150705
0.36944443449181874,1.939049568809726,0.5037487896911363,0.6110988751504997,0.46889445450919737,0.5981249782038776,0.5468712296546743,2.5043536987559847
0.2570158962750384,1.9147199721312782,0.40030964243046246,0.48441159678791645,0.40441219643224746,0.528205109646606,0.4673471762045946,2.3458098188428007
0.2940926770308059,1.9009885689900505,0.4772594705451494,0.6328605512992383,0.4909091846039046,0.6855701913578555,0.6004051912666087,2.4556585180869757
0.3012389399686753,1.9193214373967982,0.4969825033519054,0.6032857454531088,0.4775220829843345,0.6569862506332701,0.6237911347466932,2.4328966686275475
0.2877471375327334,1.9319253157821423,0.4573590811859098,0.5878818622458344,0.46673937428558776,0.6564505727157023,0.5623079482946355,2.4077028444533437
0.2368984780979378,1.9314341192668836,0.361726620164675,0.4739652588975637,0.4067159699840511,0.5261216690283614,0.4754887982096259,2.431141631969639
0.2795804012576323,1.9137615548289257,0.4277257681628306,0.5676166627821123,0.4592494561160494,0.6368655072428497,0.556640056634614,2.4166749120643165
0.3039131138248541,1.88757076195778,0.4930038950952142,0.6235614573485649,0.5021804976418976,0.6525256772528076,0.6102779951150771,2.4444359399439457
0.3153002818077817,1.9293328637437759,0.46941648366352656,0.5921922931600393,0.46467024617595487,0.6431986836395738,0.5677791658092093,2.451780357870967
0.2520338297903693,1.8962843372887102,0.415156643551421,0.5049800767995316,0.42893780385366587,0.5636524995141876,0.4893590882774181,2.4874240666778284
0.28012059777209697,1.8558423022121355,0.4076973323806814,0.524061018819645,0.4032899954810081,0.5557935361119957,0.48543308585992,2.4837300450946995
0.338832726387911,1.8219068275687877,0.5233522470511772,0.6622792468454343,0.4829878434889641,0.6811049938164919,0.6039487166071921,2.5872694061364165
0.361924136713443,1.831667710657002,0.5191071564179321,0.6540759055677079,0.4901750841106288,0.6651197484954755,0.5981297007257304,2.6126177156655657
0.33188255831562574,1.8399239734498412,0.45642684212735696,0.5920868853323034,0.42067088957319604,0.6198359617623244,0.5434883263235627,2.470019553675969
0.28362495577199276,1.8601319004481192,0.3865013368959203,0.4972684101248593,0.3883570805438099,0.5108842718558447,0.4343762999646468,2.4943275351036047
0.35708129886816165,1.8263642923733485,0.4909519083051182,0.6393115158011826,0.43339290941140574,0.6498551737537094,0.5851638157341813,2.4992758201866963
0.34178550593982393,1.8442559645955352,0.47870089557431367,0.6368168339906118,0.433504406559661,0.6242713130981701,0.5882760624933516,2.5398696555272893
0.3398282273496589,1.8341642189600653,0.46418903965645436,0.5715066143616664,0.405471928147556,0.6099395967548586,0.5349102387422248,2.5653412798713924
0.3044768146861726,1.8636370392880879,0.4166229692473616,0.5100755749889285,0.3549631624683318,0.4739693510601275,0.4279979929136077,2.560556472406627
0.2713204919444615,1.8514806454613268,0.3803871127747798,0.4677929009669926,0.3121756569632972,0.4445915221984223,0.37840925141476617,2.628476170080402
0.2857495499518072,1.879814633570749,0.4273742111289534,0.5519272865437802,0.38619240563880286,0.5556253546244682,0.5079056960493765,2.4999595263265855
0.2913904722942011,1.9005727597300937,0.4006818665557529,0.5264655228164594,0.33711298771969767,0.5265121776585541,0.5049952362417246,2.5661558309206565
0.24822430016378175,1.894801830857542,0.342728350220543,0.45184600713210865,0.34246406344309294,0.4377794988613258,0.40328045108346633,2.4264138618399813
0.21963278380021967,1.8643501761492896,0.2764950822362369,0.376928300064068,0.2700336270988408,0.3755597098864528,0.32946971870175845,2.490357520196178
0.32007330133936335,1.8354014747231477,0.42766555212655655,0.55625453976613,0.3781815773894053,0.5399414758584176,0.4833655971261233,2.4644738106024864
0.3256608942063473,1.8491161415477737,0.39917663383013563,0.5396893423637451,0.34659554399651255,0.516727885194145,0.47226095057356077,2.5038332170268633
0.32650389510816347,1.8492541427234253,0.41556121984666516,0.5078318553296447,0.3273054805839594,0.47035178302819153,0.42211992039404056,2.5227525875075054
0.27149643268915735,1.8763832770735338,0.33090486073978514,0.414916359189309,0.27430608907232673,0.3624395965653644,0.3148433545363163,2.520150212750293
0.31259191850854795,1.8511348235296727,0.41248737984063594,0.4945830708522225,0.29078197474630396,0.39894128038059,0.3580155267684977,2.5579427222455453
0.35897176700968186,1.8644533709677036,0.47259907101529774,0.5679616670535811,0.36287227027156427,0.5289458047843594,0.46742435187514625,2.646437196137078
0.3613568495569098,1.8583790260869755,0.4744074509092564,0.5420680190142476,0.34301843562660966,0.4576976843880861,0.42978081190777007,2.5531866769884997
0.3367964954485517,1.8657510376781772,0.40107516362680395,0.4758998054309343,0.3231891441047089,0.3766774793857009,0.33034814640889565,2.484307591138012
0.2995874226377766,1.8698551724281502,0.36788849824637987,0.3830942874296859,0.25153525842530083,0.3009852522837729,0.2567305493144478,2.476184912294535
0.38144492902674676,1.822783905528433,0.4938208011018014,0.5963372522886018,0.3518210501201385,0.4922388954973324,0.4073667957348845,2.488975150451806
0.383556874552315,1.8392053589832702,0.47958046688915834,0.5318352560616401,0.3193426921492455,0.42028150415583787,0.4073919383017195,2.593034998870213
0.34209258450457647,1.8806373946546668,0.4200711317095537,0.4901131869293836,0.32455036993332964,0.393211021162749,0.32056766668043285,2.5779611971686767
0.299661281386202,1.8515264142709198,0.34164629698834115,0.3717480326543823,0.2649158858288985,0.2769699554179797,0.25255245375331997,2.4863207502058144
0.3167984606759869,1.8656286833191336,0.3918885063518152,0.42446033690248847,0.29120776796693637,0.3243663835694153,0.28185185600951773,2.4995875500969107
0.3737947090102069,1.8413028884666245,0.4610457666853389,0.5270069632591522,0.3111000097569839,0.4248223191426012,0.3660588568084348,2.3992214782423744
0.3753618039223817,1.8484488823696756,0.46190230235146756,0.4947218959526558,0.28030300478710285,0.3852689886055002,0.29702904397674496,2.4990416966279594
0.3201260301569558,1.8382885510365417,0.3860944429869846,0.43338961697311146,0.2755307531094872,0.3563986653673469,0.25408427455679017,2.5533496864021368
0.3103388842973428,1.9003967908706902,0.3218289240518343,0.37847163617027224,0.22034467930861598,0.26314391398297676,0.21075558549136925,2.5278095266637557
0.3976441256041941,1.8579835820092028,0.49019345496243183,0.531355838685654,0.33029561847029837,0.40605506889603465,0.33970669973790485,2.6094328249964773
0.3562628940804221,1.8337109989074465,0.4603000006859998,0.4666774263617658,0.3050473700456255,0.35168067119511637,0.2711175858593825,2.5673397817894332
0.3582184638266036,1.8439908743034117,0.40047285723140325,0.4401192232463472,0.25531006520036614,0.3048902360950428,0.2792602444094143,2.5503746846668323
0.30999190994679277,1.8569295143179225,0.34328713513506237,0.31815333063980855,0.20445596155198878,0.21115101935327357,0.163289275206656,2.534735522487727
0.38009760463671277,1.855084294537271,0.4835869190606094,0.5240326210976722,0.30884197319617124,0.3993715057808191,0.3260097663542489,2.436718923134419
0.40760750681712965,1.8364861616365997,0.48518292250331224,0.5368847570422681,0.2888060387185355,0.39795957106114765,0.3302046410308,2.5776412385078116
0.38879480718317466,1.8597242145050392,0.49008690662172216,0.5295855632618616,0.3323578843374462,0.35605097289627297,0.2873171837004922,2.603985455908993
0.3576696331685042,1.8835232655842054,0.41108689911825563,0.44294876083993434,0.25753332965890735,0.293933828328846,0.2193669726515346,2.561408728724726
0.3764188633572208,1.8650567246682879,0.4461146427660315,0.48079243754488,0.2838966064046822,0.33522612454215817,0.25867779434623583,2.6526674281585207
0.4316548674630172,1.8252700815991583,0.5581077867211941,0.6131005725530729,0.34800872604563055,0.4489644614027498,0.3929065839107039,2.684961883512558
0.42031753358699114,1.8139448486242613,0.5144528928472343,0.5719256860415833,0.31288195357484166,0.3961524121299236,0.3431223976258536,2.497705100843106
0.3661766118086934,1.897354009372104,0.4653079154226569,0.4712079334110537,0.3134661466975465,0.3271590459128012,0.24685933846616775,2.5881015894640838
0.322128935577049,1.8813776239712325,0.4098368824211698,0.41967869548455544,0.21391557115252718,0.27275541852255275,0.220485821023873,2.5846046512650767
0.3996843555448582,1.907938470695424,0.5297292942435198,0.6001532526777485,0.3162552763236551,0.43004669649546884,0.3568469122840372,2.392900405958488
0.35205711617932356,1.8868312743668858,0.4951472763758453,0.5028843076894254,0.3119064530824306,0.380253430352049,0.31347108944851665,2.397172087429718
0.34421446792006116,1.9082814243912312,0.4263136556642711,0.4823071050611873,0.2319537586832373,0.3323873316256105,0.24518684681206038,2.420888016537734
0.2736666135893185,1.9889665648401638,0.34724690602675246,0.35174872407872565,0.18368860734110123,0.18414342771765338,0.10744439493263064,2.4309056497767267
0.35805353307964155,1.9504812317928768,0.45117754284207795,0.5034123331453786,0.29395617824669434,0.37079659159957146,0.26987909329611076,2.4393072533272506
0.35727061896973583,1.9507428835513145,0.46299244715413845,0.5048223694742637,0.26920672537313073,0.373024156821452,0.257325453141869,2.494158587219454
0.35817771406280297,1.9359674262651554,0.4409925122625813,0.4783071430584813,0.2697001037527371,0.30802079555250456,0.25091013937259654,2.478012811471189
0.3062750137940718,1.9350222325396826,0.38423034063558625,0.39361478105109954,0.20940002045803974,0.23078251646898879,0.16105803023575532,2.516065223559852
0.37632405807096436,1.9166625808398436,0.489663272609611,0.5277611482353366,0.30833114082854174,0.36191070622497146,0.2794220474973855,2.444322928472419
0.3886263985213132,1.9597276048475119,0.5109859716890015,0.5580854098370662,0.35852471815742426,0.34645579537910765,0.3234099043171627,2.3776293473643446
0.37421120671413993,1.9270680674587357,0.464238260307772,0.4839963673606805,0.3048052292606088,0.334434554556617,0.28793979670867675,2.4130960022466326
0.31016742984556317,1.9398931552855077,0.3666675843232998,0.39516320045512554,0.21121290881654997,0.258096743258283,0.20109579311877193,2.424168733764105
0.37848577980660936,1.9117261230650728,0.512569302292339,0.5521705075040212,0.34469185238178124,0.40915720949670176,0.3273858745163131,2.445301824593385
0.41433131780212207,1.8879596266168017,0.5391398809913516,0.5967112849009414,0.35590416400904806,0.4888309687429419,0.4285754115406395,2.4684480283317907
0.40486506381615256,1.9085108287031345,0.5289898538252616,0.5775500315824896,0.34168011980731094,0.43567166266867646,0.38743179355423046,2.4792820792331165
0.3570137882346976,1.9450146337062677,0.42782942187120787,0.4740138478379121,0.3116639433292947,0.34087066570453717,0.2936622905040219,2.350303398201237
