-0.001234461822495668,1.5544007385494971,0.0696139871523249,0.04496846980798077,-0.054150124954754936,-0.022287831666403676,0.016481200827665368,1.862116918579614
-0.010039837050974583,1.5533054650668383,0.0522666810440533,4.4581515883668904E-4,-0.05617652375867939,-0.036079105220946275,-0.03172264814840635,1.8027008896836707
-0.04666062100546739,1.5193399532685294,-0.015066292421200625,-0.06667405602227698,-0.08673414306005565,-0.10410934946014626,-0.07530973176686624,1.8382349251886443
-0.0896431824966788,1.4859087642951438,-0.11060381018810403,-0.20026364504220054,-0.15008140596407932,-0.21924300444088837,-0.1719875313097353,1.8432069424777566
-0.043446949002048936,1.5249971645169405,-0.016527719056866064,-0.06963776791863571,-0.0974079610208867,-0.12657566460766398,-0.09367841130839549,1.6913105420861294
0.009033155169925743,1.518997950331045,0.042534382546678476,0.04287477408881461,-0.05996528077798397,-0.026171166936100915,-0.014100938748674505,1.6533578687379236
-0.008089461087466988,1.5250392118554643,0.033595312997271115,0.007574307323118722,-0.09174084388002426,-0.06747071047050787,-0.04848565352749551,1.3963387062805335
-0.05015341784828994,1.506445127823218,-0.03985628183453081,-0.09538184638130119,-0.13210253505647263,-0.15926391130952727,-0.12873600031606847,1.3248382171586093
-0.09730440466242181,1.4759920276788825,-0.09642603272148119,-0.19882820695476922,-0.16739821268577346,-0.23649928570027295,-0.2186142908225032,1.3995108265969611
-0.006197771831394214,1.4838103808394647,-0.0018037061586579917,-0.012002807551768004,-0.09972835441451518,-0.1052271110904737,-0.09172369999211094,1.3955619320094992
0.0011652797407114414,1.5047137853856838,0.04469947525057026,0.014606229468038141,-0.1149414269554847,-0.05672198984461159,-0.03460033242086868,1.4016963525020607
-0.005807468674638782,1.4854173003284814,0.05214595790095858,0.01139407002416951,-0.1095509040228242,-0.05934208333960445,-0.057372788249353324,1.5215728185438282
-0.04886973535322672,1.4836972908845256,-0.019624627009712556,-0.08716151334816082,-0.12430818521276198,-0.1613852315279264,-0.1420606076111157,1.5795162775699343
-0.1018116902703529,1.4872098442005368,-0.0801523387218007,-0.18924735283591623,-0.17240683720846683,-0.22757457988501834,-0.1997414396728553,1.5026441671608002
1.6782358993433478E-4,1.5124096433522403,0.051566043668933595,0.0021214696873911934,-0.10352018431582818,-0.08884431881083255,-0.054086224759376966,1.641569211043878
-0.008627413311561052,1.5094744254114965,0.05098210122971545,0.02074529712754581,-0.09130834146279249,-0.0649696382191046,-0.07660255593030996,1.5566330148959557
-0.01594712169180328,1.5028587462947343,0.009955161501965862,-0.006567031304311889,-0.09293935298950551,-0.08114785419012308,-0.09470916882338291,1.6026938902544612
-0.05867527339018987,1.5020951914215996,-0.027076042252736382,-0.1004265918729917,-0.15837753703921945,-0.15821485931198281,-0.15518670362938378,1.7094849626858126
-0.07135874055175871,1.5071264324106064,-0.03591411101048736,-0.11773347409440499,-0.14901935139760675,-0.1757840570992892,-0.1612169275193703,1.780238686289808
0.0025657318496703613,1.5539181524910939,0.07677446593674164,0.015229751808007994,-0.04862896435134417,-0.03951969797696493,-0.0341251497809807,1.8716437799539636
0.0015927001201301826,1.529226981016657,0.021316384727059462,0.003487931135644856,-0.0976811855406087,-0.06950007005494764,-0.07249451193390044,1.8547577040290868
-0.02976397481516306,1.5204055393893188,-0.0077561668676575934,-0.07668230550383154,-0.11899393920398489,-0.13898126277640163,-0.11341036738236113,1.8572315735381704
-0.08904473699968757,1.5314130380024542,-0.09773666602383489,-0.17505452287343387,-0.14900805324297733,-0.22072240150624184,-0.1825833647954212,1.792373910165663
-0.03459068875617189,1.5130431592713993,0.0016570754190315812,-0.053325828528876164,-0.11145942174347014,-0.10850519755295336,-0.10491303579921694,1.858179155532762
0.022378142469752844,1.5410876299104648,0.07083522869233545,0.06205419373862918,-0.0473770872342872,-0.007015989191590716,-0.004769708127220509,1.8992797079544639
0.0027155060770228884,1.5364464844574526,0.05497559754869377,0.04630908263672909,-0.055314169594140206,-0.03473177086782031,-0.05044892091795639,1.854967235940495
-0.013671386539660118,1.5296002638023496,-0.00893849965027052,-0.06421819964400369,-0.10937759374731228,-0.09265644437410785,-0.08587143010741027,1.8521065559254661
-0.08207031265375599,1.5309874391152896,-0.08142581554604428,-0.14579892628269941,-0.11918601881948004,-0.19633184452100633,-0.1737151457681375,1.7348747120796217
0.022980154784123335,1.553635700744804,0.06467281303470229,0.041867810299979935,-0.02441706576863647,-0.03069313165887504,-0.01923859662147312,1.883067603297667
0.0410484048414077,1.5534817630342548,0.0990312666445017,0.08290962516887405,-0.0018552162448413415,-0.006601640935829135,0.016326814219347306,1.939424220200833
0.054022009405818826,1.559041908711235,0.08817220385143186,0.0602778116321679,-0.02058829042260591,-0.014312484812520523,-0.008544344292882491,1.9338409088786257
0.016592082594208628,1.5459660354719431,0.015830272840354154,-0.053950247468729784,-0.05304347511676645,-0.06941138352171819,-0.0635412675959527,1.8903800841544494
-0.012335883374754334,1.5301602855805134,-0.008590225085741171,-0.08951350714021648,-0.09810357291528764,-0.12865852355854643,-0.11419844017398476,1.7830463320320304
0.09264480999599038,1.5331598949826866,0.14567722700171265,0.1273616489858822,0.028010887497867162,0.06645145135887287,0.04742036832604202,1.8312239792401377
0.09266256643597763,1.5531733828718668,0.1432052221977615,0.10564099037009389,0.017024338917874148,0.06367733721707286,0.028145355514556367,1.931429884311366
0.08826441003572764,1.54189350102049,0.12101022210486204,0.07098476250117641,0.013094997229159511,0.011228798234563872,0.015603724074925239,1.7793059891759744
0.03386705008033558,1.5310943852911258,0.04931704188855154,-0.019382468329567304,-0.030350221530086596,-0.028548514283930015,-0.03660112554791892,1.8876649665690666
0.09267532108498325,1.5585455116396694,0.13923234236790383,0.09545959267667782,0.027505171611082006,0.021972720735594496,0.027582809346706153,1.857025712891891
0.13695530181754145,1.550004391735548,0.19474117002259123,0.15960254051902859,0.08628041730027512,0.10252432171735236,0.11614834387576539,1.8958556972156337
0.11676513623715458,1.5545992239997783,0.17505965282436492,0.1319660290513475,0.04965125971638684,0.0528591826651413,0.06917011038335513,1.8297605274415203
0.0867527574187655,1.5324631991944355,0.12220126161579943,0.03639676219700032,-0.007182669333194576,-0.010570217476123401,0.012474862090947829,1.9250270857721214
0.0718623917777471,1.5444192872877356,0.06884965794502967,-0.004527379701654351,-0.005082683454946539,-0.043170256298292985,-0.005506236182402716,1.8743926624105023
0.18299639192146008,1.5692025758193775,0.23517734664170453,0.22914640340808684,0.1108380598160346,0.15060671751201216,0.12419369683119733,1.9373838883668442
0.1816408375948395,1.5611782693331433,0.2419307291535694,0.18542927836714052,0.11333220353103456,0.12497469515137857,0.15060524250381382,1.8919861476423154
0.1737835349842313,1.562883795374487,0.2373348940583146,0.1586520157013453,0.10660669326544783,0.12053390253948265,0.10837051465910151,1.9050584452600081
0.10934173436716745,1.5589420550385116,0.14508607189288195,0.0560236586662563,0.07331578900595698,0.031283947349296105,0.044563261732237416,1.9070422077063696
0.18114983132487625,1.5533057977663822,0.2450379542925883,0.1956694619441291,0.12527659130618768,0.1247669289704231,0.143800748274751,1.802809781264711
0.23393139006423613,1.577470856958044,0.3290381391116678,0.30892327855175783,0.19528926896066154,0.24871637591633147,0.22172934087234825,1.8824420357793186
0.24393924088277022,1.5608399298387963,0.32556599455228674,0.2855277773917249,0.1781301004339142,0.22262065510398066,0.19969364709445087,1.9069374012418647
0.20868064979876133,1.5521752224682768,0.2488379867441181,0.18668348536813173,0.1451655131447475,0.15794713104147634,0.15254464018107888,1.987101059756834
0.1781883384360706,1.5554655553932584,0.22025916859860373,0.11982771551383259,0.11762843850070356,0.1285689838381452,0.09352124137023476,1.8454471409347764
0.2690748554244942,1.5903624952416755,0.35496503908922944,0.3314058848568534,0.2315667347255307,0.2414827534810955,0.25052080477818606,1.9276626103685652
0.24000217668543183,1.5934758308859802,0.32201944727651466,0.26124093145217503,0.2000593029589872,0.2449099790447984,0.2441751775992022,1.917351330661282
0.21167987038581632,1.5499800399722645,0.26692197783123717,0.19550224940078628,0.21635964508726593,0.18229716705240684,0.16710737891639288,1.9552384089922556
0.15526917828501902,1.5354095007745387,0.2052956740264153,0.12212113742506304,0.13774440760117138,0.12396320159515392,0.11702414347695286,1.886439752287993
0.2569039433236499,1.5581168773050518,0.34437477854544857,0.3130251109167181,0.2615441332806029,0.31583038286550175,0.3036844147484521,2.0137372695495093
0.2483811205734899,1.573264673239457,0.34560620467851827,0.29855055197329744,0.27321917582610533,0.30328091549897135,0.2929677269286009,1.9190437633917452
0.22360425177570656,1.5800979808953082,0.3232265036813524,0.23515811979869158,0.26840519027632787,0.27687167903733695,0.28431001856369303,1.8581398843543173
0.19450422136300854,1.5519600265625269,0.27246922089617365,0.2101328064167497,0.23829486868326358,0.2513672669507691,0.21468251212694978,1.8873505521122194
0.3319435757864569,1.5677463410693118,0.4498446601447097,0.4201165067793767,0.3649155054951534,0.415116722217293,0.4000217472453809,1.9442391739035891
0.31097741481053226,1.5935336179206958,0.4550672998555444,0.4027073870598072,0.37923834973763015,0.44264175156722074,0.40039426268961686,1.9476296939638444
0.29186776372915485,1.6069617530989713,0.4184885042002541,0.34953513725511653,0.35319367583780276,0.40280516435805175,0.40098334602602614,1.9596083580112251
0.22933064008666054,1.5707355293430374,0.32874676004743947,0.2823905544632527,0.31831605331835655,0.35090277780973,0.2966868987387537,1.96690457423919
0.32817317580507754,1.5791472011308474,0.4943143041330003,0.46432831282937653,0.4296178642299298,0.5326204173094361,0.4920144703404291,2.082722909628825
0.3329737986591835,1.6000268520733223,0.4834476263850326,0.4575336768318935,0.473310456287959,0.5502136520761695,0.5276776601003311,1.9882445828188577
0.30061767361632585,1.5823043282349165,0.42768921330950305,0.4095453740232879,0.430835857421001,0.5258948077923977,0.47785299423265376,1.9685289884518284
0.2655952202946608,1.569627714026297,0.364267244382448,0.30745658100397816,0.3902972724095739,0.4325534426441979,0.39409822354524254,1.9849011815079107
0.3379259940139622,1.594085740619912,0.499137271034425,0.4980965992386079,0.4947135756308068,0.6111317952925338,0.5836794131421349,1.9974121543386933
0.34781719648809556,1.592638492905105,0.48805031258798426,0.5153300344686194,0.5396050871283131,0.6222490700056847,0.60130276877807,2.088290718320099
0.3105205553758025,1.5721136333437058,0.45975814181293384,0.44723149613337465,0.48468297812989114,0.5966670929280168,0.5696017673128604,2.079591501799601
0.23765442256215083,1.5596195788102258,0.3898721158455173,0.3060298641034316,0.4583146523053737,0.4911833894650326,0.4208040082787431,2.0421876987610763
0.2808722670124315,1.597292731869359,0.4679106737539017,0.432229899499079,0.4978852083419584,0.5740172799459662,0.5323969376029951,1.9806210557686053
0.31162922708706264,1.6099272609758664,0.46565338283460506,0.4725261707254631,0.5484844632052195,0.6478668766807307,0.6423817284472514,2.1033120454396443
0.2821206252267121,1.5519980516969878,0.43600304935103473,0.4090140779283563,0.5368750573823188,0.6102607818938633,0.6101907778940967,2.007570152255046
0.2230090940058991,1.542098284528608,0.34949849580002806,0.30440998665497143,0.47087469938852256,0.52000717686255,0.4713990616443561,1.995534090084568
0.15939798086864831,1.5636509333395014,0.26968857887778147,0.23605656530959046,0.410934844007046,0.43299370571910084,0.42319475117118815,1.9195094544950635
0.229677751357997,1.5731626024759406,0.4118005705829865,0.3920586388985254,0.5062397814021316,0.6257940408541699,0.5694895908592597,2.009232120737213
0.189655699125008,1.5470175544739178,0.32804950596796967,0.3535868419101242,0.4978274035675096,0.5750961260935178,0.5454062284586427,2.072284678961511
0.1654677652175102,1.5230665085183779,0.3047946418541011,0.27974721396320235,0.4751041553956007,0.5217886659516445,0.48690792532721494,1.9561655110783094
0.09448869839259151,1.5706783511218405,0.20249134242095124,0.13189355360203442,0.34503113553846143,0.3999878247990902,0.3616315134423691,1.9076035882954299
0.12694622276137013,1.560544783301571,0.2504040582508403,0.23942710468232145,0.42467976386214906,0.4771910329303753,0.4593247972822335,1.9652101254851175
0.1319515231265345,1.558113828090659,0.2696001617326812,0.2679091523424736,0.44028358583928273,0.5289210704126499,0.5070023381480594,1.962898774660888
0.11598709744983847,1.5419473279353082,0.2696803534976537,0.21206287360188006,0.40647775945892084,0.45961966339432553,0.42940217496729444,1.9399193277302027
0.10618178604955869,1.5566635532942628,0.22570152474248317,0.18006013673175794,0.3409853947908871,0.3774398941967748,0.3647779137944477,1.9434909525283857
0.15689472719280648,1.5452280094504132,0.28223230261873855,0.2460912934517256,0.40457525366267705,0.4433418894029874,0.43365218149105794,1.9883032730749133
0.1697851713942225,1.5917893786371056,0.32753184063099355,0.33091762139233244,0.4187446789908985,0.5012457466754175,0.47469506383507487,1.9739169191142545
0.16329792424224007,1.564061025350692,0.30997274195669844,0.2956035151818132,0.3645820198384366,0.4744159433576204,0.43498495524723824,2.0339313697795247
0.13847443492770276,1.5775834875560748,0.23591431269628266,0.18058356306141332,0.33337280726314855,0.37374653316879947,0.3357885516006042,1.8881634296732774
0.09819027539232328,1.559873856681517,0.2058152157921383,0.19509747375100384,0.33760240183154233,0.372272323744898,0.35244218529600424,2.006360964250513
0.10966058286427502,1.5757225462392244,0.26876889647978996,0.251393192959577,0.38233651909124816,0.5048138524804527,0.4771698536001534,1.9966184061971863
0.08364695951188411,1.5513540740458986,0.20473671089627327,0.1893380517967484,0.3358893754427174,0.44494991798855804,0.38767592151869434,1.94406156370116
0.03834218383864276,1.5246390196035855,0.14215443150570273,0.09245007041829488,0.27940514948781486,0.3171916112410317,0.27546642088545714,2.0319982755232737
0.02236075032133361,1.541935822918328,0.14047424331258307,0.10431318537172538,0.27043202564943675,0.34230459401414065,0.32252998644649594,1.9505512962260763
0.06039250407736249,1.5403351692870895,0.17060432813683854,0.17680567214903822,0.30888488932278463,0.4356795024686106,0.4011255446935822,1.9575186948217804
0.03232465948639448,1.5595199522845782,0.1320912853747477,0.12904179666157495,0.25993057981923967,0.35641467539983934,0.357152988586942,1.9170076867507997
-0.026401619781028614,1.5513743456889313,0.05902855637297657,0.01820146661612489,0.20477496727049047,0.2763437602579655,0.24818590823028738,1.8612755579056381
-0.00934775784898873,1.532917821967016,0.1054678921448443,0.0673259221632479,0.20715734606342556,0.2828042854572892,0.27793865270091433,1.868694085975038
0.008846789873677166,1.5389547911995365,0.11516219684376172,0.1148862578871715,0.2319872195671857,0.3348346759106912,0.3140307409759144,1.8826021147798668
0.009034361338790771,1.554937764884831,0.10122020265140129,0.07608135887437152,0.17716420348652934,0.2659556191993065,0.268908198531725,1.9138056056440684
-0.038562046702160915,1.538466788691803,0.023651915534631515,-0.05350651240299101,0.12684064667031691,0.1907984858147258,0.1423161729428966,1.930741797787083
-0.02176860719030771,1.5303860332681876,0.07168878962260217,0.04219976830067547,0.1306624533311801,0.22526738586901435,0.2047757415143108,1.9380257940488252
-0.0031023752830285183,1.5499792403430726,0.08353231084506316,0.07732414513711267,0.1737913194414082,0.25286653540175247,0.23953708748999972,1.889299337839762
-0.028437386220041015,1.515664124680499,0.042693275210783505,0.033111679100829405,0.11287583504510032,0.19706628811869795,0.18752188871410913,1.8942686651480913
-0.060275254046964266,1.5303545651561972,-0.008960851372906684,-0.08890410370048049,0.037848071137267195,0.11429841185451159,0.08720887452728907,1.843448010270449
-0.06100718126589506,1.5148399765490304,0.0025828181848478876,-0.02047321862205911,0.07238267731785501,0.11962303147575358,0.13835777633093913,1.9030310107226607
-0.023546014077654547,1.5209402207705747,0.07804380918154488,0.0398798333715462,0.09180420677899628,0.17388091518911075,0.16305719391203097,1.9218608777482609
-0.04955376971238559,1.5257573430628877,0.04408066969199627,-0.005206870957057658,0.07283932227278732,0.1384672728730021,0.12887190991994824,1.87312749642367
-0.0749959321141985,1.5364275307292377,-0.043484400500265294,-0.0943242852665024,0.025641362164588167,0.06438242947341737,0.06022193158521518,1.860472473837713
-0.056467252243521684,1.5267311351940667,0.006525769948601254,-0.024214000001817046,0.02994585313791841,0.10595146160925382,0.10400080133641881,1.8745278005700314
-0.03481079937764313,1.5503929197308435,0.03718817310061905,0.0445763046079969,0.0648079406519095,0.16136957289307013,0.1635649079014218,1.9019906374697038
-0.05188358106830479,1.4959008427438254,0.040623803129597805,-0.007124505817848825,0.051456467759134115,0.09188414048866883,0.11545152101677295,1.9582148841057903
-0.08589841260068454,1.5038483761475288,-0.03429657872267747,-0.06767688831818759,-0.012145520607410414,0.0495690057534852,0.027894302988717173,1.8006894020686035
-0.055079070733585866,1.5096600565179201,0.011344175174579668,-0.03368018452958314,-0.020282067861926885,0.0652583102619067,0.05082624094590579,1.9251892539951534
-0.028906313395256393,1.5546900231087792,0.08477739262790956,0.08338911091800273,0.07456933327239217,0.17204727962551133,0.15799782495245596,1.8529830695209495
-0.03203159778599608,1.5280591318420496,0.05056351488972401,0.050343062639877076,0.026043357526840106,0.15548272334605248,0.11369559750203494,1.804575123631093
-0.05902693303785621,1.5262397194574682,0.00669253614168433,-0.044357536632646986,-0.00783515319584539,0.07127473264577754,0.06565892612322949,1.8264796820015357
-0.0683608632238876,1.5277516026467473,0.002484737664258954,-0.03544825556138387,-0.0034459165631407322,0.04831258267234701,0.0602245332991279,1.884649890168245
0.004958743221035311,1.5433190493894244,0.07890610313029481,0.13311786932014907,0.07043432687455722,0.16705777634660196,0.18549772584369492,1.894250474613761
-0.005178300878759182,1.5491584531328413,0.0967312127413412,0.09557668896348366,0.03812661675791966,0.16408842340676716,0.18062683162963578,1.8657130215222768
-0.021524899560674285,1.5341420827072394,0.04194329499432924,0.03799179752781781,0.01240081621465628,0.10942449830712533,0.10514991557487668,1.9281707500619438
-0.07363654422294653,1.510231418901654,0.008051016018199311,-0.023019965569926578,-0.02666294280719165,0.03899287469638231,0.04199192524084465,1.8832614654525242
0.015814207640285103,1.5389971335070467,0.13435350869756055,0.15522862250337696,0.053582736208383136,0.18316013930380548,0.1642957163879552,1.8525323639677043
0.015266621859821895,1.541772582244624,0.142692778980196,0.15660334297169556,0.054931911343403125,0.15625207601634378,0.17213398144526285,1.8414976591029446
-0.005345102591143576,1.567474189199552,0.09686335351217934,0.09753517427043726,0.05445063881110769,0.14089588437752076,0.1516097530557997,1.9315584116020865
-0.04400043382547378,1.5395159513446897,0.026100978829967203,0.023326631040823706,-0.028594731692458318,0.04874735260787352,0.05699826495622024,1.8082404466233213
-0.005604230152782021,1.5476099525942915,0.11572161370924675,0.13538084530497402,0.031764696748512476,0.10219474400277401,0.14478953604564454,1.9077341812213866
0.024474450387274856,1.543409581470513,0.14588324174922734,0.16512719021643293,0.04767793125233005,0.16036822513812465,0.1907153147187437,1.8564453855250556
0.03321771909243511,1.502718014089723,0.1328309982488352,0.1721001110605704,0.02618491553708217,0.15107787254710453,0.1476613826886266,1.889359700760758
0.0073822013546915,1.5272398337862685,0.10291094517659116,0.08940474184320299,0.01476594295268778,0.08730786205158023,0.07555706916167518,1.8598641066317159
0.02037632899814574,1.558524140255423,0.14622506663485746,0.1746401260452876,0.03835722623669576,0.12385810844222364,0.13669470874038353,1.9181001235881392
0.08307340181880651,1.5528410264391552,0.2156214839718643,0.2608172193566155,0.08382578761000609,0.2144965215141974,0.23647148089103476,1.8492942659054208
0.07689809788288872,1.5143894102657869,0.2040099412688412,0.25173656312267506,0.07602790602090995,0.1929354586196856,0.21188065735319758,1.9094281674672244
0.05370061347276358,1.5271871868930356,0.1501839988397614,0.16678610578832748,0.0524824457766269,0.12063657838178354,0.14952341835239322,1.8816464960876984
0.07812229791133098,1.5509372717644627,0.184250124201161,0.22256580719799696,0.05306732206520668,0.14794208952344723,0.15319368399724678,1.8399779716416653
0.13889699924990195,1.5717266556963154,0.2843377946316044,0.34981339682397694,0.114498701470758,0.24641027000663868,0.2677103191124253,1.9032319136595568
0.1463018047702107,1.5419759694634756,0.29346225459332537,0.345208181977363,0.1311841862628128,0.2567518654327212,0.2679443324242626,1.8773623024295678
0.11897829643586755,1.5477357647574994,0.24617493625093706,0.2986099850582959,0.10073127779603867,0.18877491461392354,0.18568725904177122,1.8302922205209933
0.09584803035289095,1.5687822132872324,0.21325357593468447,0.24810132682938058,0.06839038515780743,0.14463328910192136,0.15429001559147204,1.891956241701651
0.20284810053865301,1.5958448753555203,0.35888874537921767,0.44045592325756955,0.15204041658505002,0.29960545830876295,0.33167182297883485,1.950648105849249
0.19871530100683618,1.569233904738939,0.3582443403183686,0.3975109621201991,0.18233699011921878,0.2944235450786725,0.28767888940246866,1.9518718087958409
0.19277965118049228,1.5687316185863651,0.3209884709157187,0.37111453612001305,0.10978539300085416,0.2579399105426007,0.22662219734051914,1.9598229711236663
0.1348371995203756,1.5536600734599473,0.24276227909160053,0.2671624749713949,0.07861144460012152,0.16845924937296827,0.16254958644244452,1.9109589769398068
0.1651325495310217,1.5771727653905625,0.33188848388437964,0.37302852881557974,0.15455477021170994,0.24174367461781385,0.2450035463128579,1.926280943108738
0.23112798513428773,1.5732328383446752,0.39549161042443043,0.4442393875244479,0.18144952846156798,0.33801271546437384,0.32766405410084665,1.8859638993027605
0.24925854773403816,1.5707594261295637,0.3869146892370179,0.43224317125172906,0.1944834886665735,0.3186098469190564,0.3123293201962053,1.899832779350557
0.1650092465702765,1.5703343366941613,0.3361329494492637,0.34329490338071345,0.14340911633818956,0.23076309284718993,0.23812160980858607,1.8831178760574994
0.14142623592581421,1.5629521159702824,0.26235356415943784,0.23978530562314831,0.08669511160889906,0.15965771124621947,0.1585839654492022,1.8555121333924798
0.23754903584983456,1.5950612231815402,0.37752989392938285,0.4171283394667016,0.1537119880543388,0.3302297886631085,0.3062030305465576,1.9395219707797444
0.2040655670831395,1.5592428549364472,0.35871757240915547,0.37280345649798086,0.16414670600499306,0.2986971065050034,0.29088030230203776,1.8896388135935753
0.19239459269095877,1.5658209394458902,0.3230088276108267,0.3592386031847842,0.1547213696847038,0.24243425835162585,0.235690406534068,1.8380694371215713
0.13155553996225183,1.5511313620149212,0.2596713173183014,0.24865085518479835,0.10662073548137799,0.16990106607183567,0.15972643565853864,1.9300415570278553
0.14382513975553537,1.5389443317510296,0.28166562738220013,0.2730556351027249,0.10619693538856609,0.19164093130828558,0.18289369085521587,1.824036289754642
0.19675760945554696,1.602287786161996,0.35650024199158853,0.3937859668094853,0.16319217986287327,0.2867284596636214,0.3121778704853758,2.0271120609222613
0.18408046489426305,1.594345501897932,0.3104149081704305,0.3384372004291955,0.17502506357975012,0.29405297118933954,0.2663401138098492,1.9566004786242122
0.1437308461723776,1.5855487810890911,0.24191408303489306,0.25326224492694127,0.1198637580415014,0.2214888296994231,0.18508499085338095,1.8616427819777277
0.07982126391393377,1.5439439424917167,0.1416211956721699,0.14814858296395153,0.05537755781377157,0.10927410920250048,0.09211327725394383,1.9156639915285507
0.13424900309445634,1.5157932436765065,0.2563192545764295,0.3036019013851868,0.14716388173567224,0.2538753321422985,0.24653419794919407,1.929404122393343
0.13112705039922065,1.5460481587526218,0.2357543540298121,0.27820558847454463,0.13556594436643243,0.26134312518599423,0.2355803306785913,1.91237028628257
0.10630693178579881,1.5376110758955184,0.19794138467461714,0.2231446878279319,0.11571326500123315,0.21632371919954052,0.21540426327165874,1.878668788984132
0.05258776336919563,1.5648270488564127,0.13334686434576928,0.11529041716731049,0.06965773814847066,0.10918545715532438,0.09459259582494425,1.7786661638680297
0.040688574722028144,1.5384380615997033,0.13624169384878165,0.12099161963217533,0.057129162442215047,0.12980267012808777,0.1036101034297781,1.8351834308694996
0.10368778876046517,1.5634354823123353,0.2165293977195799,0.23478502874823035,0.11496723715081517,0.23644424827000332,0.2159640250465678,1.92099688491045
0.09166476934915804,1.533382341718725,0.18320092281012057,0.17695828361310875,0.06643833804827223,0.17790108526919102,0.15476162954239078,1.8873487604640606
0.057139559642201326,1.5533868729342895,0.13327983840458582,0.09389864712790795,0.05246459066573347,0.10307932167258108,0.10665930868654731,1.9035289799987447
-0.005080732290196191,1.5425430292016686,0.05671410148002352,-0.014721844638482567,-0.0020872774656554988,0.053086242563180064,0.030679267779229157,1.9261546224259263
0.05815186552507805,1.5733806678729372,0.16858036171544336,0.1910183242866412,0.07649323705971778,0.15387443691393876,0.18608456468889975,1.9443142213052735
0.04468418647267317,1.521977610947344,0.13813317258853464,0.12963894983936633,0.04620147450407162,0.1318016216105566,0.12464757228341064,1.8660208924626518
0.025177988310856665,1.5079935260883666,0.11720333190879074,0.07806520593010066,0.012866716219291384,0.10483859258827355,0.09573408219633536,1.930333831951108
-0.018452342457547163,1.5131977041902176,0.04197134189822201,-0.021195596213585917,-0.016457181696693003,0.02789284952587457,0.019797439535604824,1.818223444313177
0.07186080436445821,1.52693679022873,0.1556072489607972,0.1469787908080494,0.05475096299876857,0.17028437186647066,0.14043984703921447,1.8524919175622354
0.05095160014995953,1.5545210146682158,0.13570013534074413,0.13221700949170268,0.0552653813418688,0.16218663765428565,0.14105650476428533,1.8564036525137009
0.0231057720886717,1.5402296422224337,0.11522735576532947,0.09188306413645515,0.0279588003893579,0.11247107951723483,0.07268552865289624,1.9613942844836618
-0.014008292706201304,1.5192753819923752,0.04674864699286084,-0.007774703318048576,-0.042581039425928405,0.00828682956712453,0.006392513255811632,1.8872475913104712
0.040130512551478995,1.5429483610375405,0.14360711287161532,0.1729869305124531,0.047797870657411194,0.1636306515365389,0.1752143709028064,1.939188184198255
0.020510652528254198,1.539339092757937,0.0796737097144728,0.10090493667599591,0.10414493880255682,0.20165578576110876,0.1695243637280225,1.9308354170407345
-0.019780531196865313,1.5292202695446169,0.03267614859640307,0.03663604721750871,0.07808635226121236,0.17194949688342126,0.16262105802772864,1.9324032678379968
-0.08264602652212655,1.5217405014617544,-0.07832004477988393,-0.07714333267762889,0.01063133529221659,0.06439146839433604,0.07364184183217524,1.89134212564505
-0.012800433120862646,1.5171963467462324,0.017497426268297693,0.04323822452838377,0.09948564517213539,0.1893475976459994,0.17452581170648065,1.9009669921149441
0.031827321981447505,1.536745031146985,0.07063362317484208,0.11394834908237642,0.14233549281564029,0.24201393789753176,0.23974128748913678,1.934260628782861
0.03606755221885978,1.5329441815509335,0.04662036457958178,0.08294880686386924,0.14744182057390545,0.23671238614035822,0.21475563744789966,1.9431524935994042
1.3151528508424312E-4,1.510312239131879,0.010733712992333846,0.011071844698136733,0.09177556398586703,0.15399600624533333,0.12997244519698029,1.8757910802882363
0.07409559878353501,1.5661158514137425,0.09360279466899583,0.15372943486120938,0.14367890035403202,0.2448924530271084,0.26762104343193266,1.9263305947030467
0.08398978114881732,1.5171807280193976,0.14882164352368052,0.21947057006883658,0.18507335262292893,0.3306734636333483,0.29462094350727414,1.9249474211550646
0.09130713233235302,1.540533599528586,0.12604384741202795,0.18161852466968975,0.20142357628850877,0.319168709267605,0.3093702742412022,1.9680678294595755
0.025848391183792736,1.5349999999853958,0.05155045180919391,0.0753971468667984,0.14008060554612395,0.2409075503944043,0.20955103129266384,1.923858202978093
0.0322283760752671,1.527186235386769,0.09279280373727722,0.14649139082394036,0.15494100612277178,0.2854878545115629,0.25962763759265794,1.83726399707425
0.05222008136442667,1.5539175789874233,0.1402443759846285,0.2364871518922124,0.27307423025368305,0.3964776501147817,0.4075334340891587,1.891263607075281
0.054814023723701685,1.5412989058449322,0.11653339244337248,0.21876929100936088,0.29783328666945436,0.41333580725377317,0.4060636865990733,1.919012716866034
0.014862215289122536,1.5317347699617896,0.07081718707985535,0.12205843235860656,0.27101353719803184,0.3832615263483762,0.3809551106761049,1.8981202148617247
0.009677553926240062,1.5358707682698656,0.07059861053217395,0.16045086773466855,0.2631809131593589,0.37899360210336086,0.3577295813217941,1.8727087044965804
0.10375583719098744,1.5418142584967898,0.19752772675618074,0.30044498277868925,0.37406631435036847,0.5611954475444818,0.5370226676416455,1.9876932315384201
0.10016345805658923,1.523425544906599,0.17338281957206517,0.29246672389666334,0.3814210704869118,0.5476565449703339,0.5295933297311494,1.9463385780615061
0.06877593544657418,1.5533404693466006,0.150957881669454,0.22204950497483564,0.3788658829740927,0.5273134349858603,0.4865917657514768,1.9549821208858544
0.019871186973972138,1.5166699634222145,0.06818496314935954,0.1136934996333448,0.31664611887757227,0.4182225193681535,0.39227005584805913,1.8911261581984338
0.05217223229930566,1.5428865103892246,0.1142001993528674,0.20209724861295977,0.3678679218112856,0.505713701223828,0.46745754373667225,1.9922030522483545
0.11383793478291461,1.556769182959183,0.1967243460167554,0.31837733320295836,0.4228297599525962,0.5846084500410631,0.5708753783167868,1.9972863206284066
0.10218440594653688,1.5559032504831585,0.1875691477882847,0.28053631047188193,0.4191859529426615,0.5963720354323353,0.5802085621962686,1.9769825557361433
0.06745511097970666,1.5217799246034316,0.12915563326743437,0.1922308178725454,0.3752504603567589,0.5387580326861892,0.48317130112517115,2.0021123770471974
0.006304763744128382,1.5428663777170204,0.058108693431269606,0.07499512961837453,0.33134798388688663,0.4417673128681224,0.3753098471760367,1.8752297576735386
0.03038064899565345,1.512590323077252,0.10688312388320947,0.16699990157254102,0.3689360344217162,0.49795206945557674,0.4696845387750885,1.9564818983397416
0.04833697955022903,1.5344922405470016,0.14288149996932337,0.2434236299889858,0.3927912238649708,0.5860411974150247,0.5124002783661954,1.9154645360245106
0.0259282578554303,1.531613752427317,0.12469651975411664,0.196018425210934,0.39242412640591584,0.5646001292968174,0.49654956825226326,1.89531177440427
-0.022426320307673622,1.502601412034335,0.04159067735993522,0.09961609476033537,0.32704587979134253,0.5158733083855445,0.43023166381202205,1.9159807338718506
-0.07220766538677431,1.537265689161523,-0.00833143217371916,-0.016325640729391397,0.28239809735564797,0.37388888098073286,0.35268991759915563,1.8407350371840998
-0.04716460806925599,1.5219052653143403,0.023914720597681155,0.0663384279471496,0.29888107329171115,0.4546131872053722,0.4090232822471,1.8951495069171675
-0.03877693462404164,1.5163325229500924,0.058274755868704994,0.10675209147601973,0.3017661266325309,0.48307804685231076,0.46739039355428297,1.9342974080669446
-0.0577783473873113,1.5165799415267085,0.030298852040573747,0.0643386521874361,0.2828297518120698,0.44919262283976247,0.43110523325892486,1.9088914413686042
-0.10625661863282354,1.5340725876326418,-0.07141813013330936,-0.04133385095525262,0.23790974629921785,0.3621205255344173,0.32913117195145436,1.9377959717329443
-0.15497742630562297,1.5130752476563396,-0.14316406517125327,-0.1521287694943687,0.162332128227015,0.3010129157537631,0.25316036148810656,1.848123260028243
-0.09803912929403946,1.4959760410471004,-0.046186227954844374,0.005246264596219647,0.22295751063483712,0.386517060538078,0.3480402582806411,1.9096891747630798
-0.13370156250543064,1.5319766953278915,-0.06423633234751353,-0.0735953957559987,0.1822229543272471,0.3223005726204859,0.3142091335570411,1.9441217175673657
-0.13842472375230783,1.5159474427322135,-0.1064578644957711,-0.09333221488325759,0.1828007839604172,0.303280931102509,0.2889099195667141,1.8307606978595874
-0.1700278095987554,1.4947810965073578,-0.13786476808734274,-0.1735832933791372,0.15266269205593255,0.23794018260019872,0.20790616968233208,1.8650438207989
-0.11123293032195075,1.5107596507563437,-0.051092403741309085,-0.022450377078108045,0.17395131077272794,0.32576240762277037,0.31001554640035356,1.9358913188532525
-0.09340923804482326,1.5580920824817455,-0.04648655790353212,-0.025935005998306993,0.1812205867479419,0.32718854054893765,0.3128278592029845,1.8990075426424846
-0.08589152752799956,1.525254943265025,-0.07227314033232018,-0.04109218581347113,0.14392566223863978,0.2933156268213502,0.2765931681952782,1.8358631421196028
-0.13292725634467678,1.5230463936106204,-0.12614423448576648,-0.13376124222770702,0.09830922866140297,0.21216282845840728,0.18493016883063118,1.885428985857157
-0.06457710967297933,1.5376408040278498,0.004666797344059989,0.017963291862510535,0.13441629892295076,0.3145026168684819,0.2895840983159114,1.969357060878077
-0.03580674642898029,1.5329079667261978,0.049053142441156494,0.04707324596139521,0.1705918945679987,0.3441422652779624,0.3267354477099625,1.8918216587652494
-0.021345836395967793,1.5353031828041415,0.042954245821080046,0.06900884234526339,0.14059658207820813,0.31012092248022494,0.31340550359657554,1.9494752139682339
-0.058071963480846006,1.530189461614167,-0.011510591718786017,-0.0418160040876326,0.11637721049847538,0.2668873575750241,0.23728334894416703,1.9293149647199472
0.009715067490550785,1.5658684331684274,0.11200747533088302,0.12062236312991781,0.17955574606755192,0.33365744659404256,0.3455598175754684,1.9631671371689097
0.05638324808442713,1.5811082742260556,0.14992071212196081,0.1755795716484857,0.217312887030595,0.4077566617226194,0.3901731109165114,1.93510112046639
0.06658081940818142,1.5722390410094818,0.13699646810319155,0.17375048382387592,0.19534738581336175,0.3655378743049494,0.358577712885053,1.96157543772681
0.01937947902467381,1.5630078676163144,0.09071925200883624,0.08515618204458608,0.16577927774093576,0.291456006383321,0.2703924232002735,1.936138532726623
0.0668520568375617,1.5472196281633193,0.16956284571817992,0.22329714396140873,0.20876124186807576,0.4021818464982133,0.4065996975741871,1.898675604455438
0.09567283386760495,1.554262938160333,0.21133499353310742,0.2908535556375886,0.26824192367682875,0.44311126511915977,0.4520727034181641,1.8517950928205624
0.07429130575046569,1.5683931033119451,0.22373267310590206,0.2699333572198571,0.22928556647604145,0.451207494261521,0.4232382856175011,1.9754149904303577
0.05674894288975573,1.5201743291064245,0.14731344275699138,0.187915279929093,0.21755261998295788,0.3858358859914067,0.36427164808770723,1.9802211213966245
0.06523339244899462,1.5597065783404132,0.18058288458361085,0.22874188182930208,0.2522170753044971,0.4079846718898411,0.4051317857032627,2.0040271198700896
0.10973537745717613,1.561832668438139,0.2678012286629722,0.3424765300814015,0.2851921482872253,0.5343018685641369,0.4901060386736885,1.9550094415299117
0.11833872341154038,1.580519377836597,0.2645414619486294,0.34532475321899575,0.28889617556837954,0.5003112960296952,0.4613617280494898,1.9513872730272246
0.08617889863999925,1.5428636439844439,0.20561276472310813,0.2642113502654005,0.2479596111436507,0.41834966140025276,0.42265925988649916,1.9869970356362143
0.0423468877190204,1.526254343218689,0.18094366413570548,0.21605175026051335,0.19256401133084883,0.39292137072639644,0.34945328664264663,1.9100479046716972
0.11731269350563275,1.5835439230916664,0.3037083836532062,0.38802941447669365,0.31820860690041575,0.5318042393705319,0.5408991171130253,1.9060525178677368
0.11858194796683558,1.5747185296516322,0.27347268904668315,0.37569459615227474,0.3148176356022263,0.5213303908631163,0.5017952934558984,1.910723446908881
0.10161743344630246,1.5484987205377931,0.2458756814550932,0.31733747774083665,0.296062859550606,0.5031575728364925,0.4797672830646729,1.9583056631849058
0.08629626412375341,1.5389599846623527,0.20453686968469095,0.2525546757586467,0.26618743288071217,0.40434174924017163,0.3613360713920076,1.9358588532524912
0.15164973889944586,1.543135871448397,0.28835039750222446,0.3328649012457455,0.278160559818011,0.4671946346371582,0.44652551502730475,2.0080945528424703
0.21379214354853113,1.5679197701769305,0.35515765393721965,0.4432244173198791,0.35257116614262635,0.552337883165549,0.5354092525199412,2.0468893088293436
0.22927822960911529,1.5661381858142163,0.38044647596538006,0.44990493345984334,0.3426545082708043,0.5642349420612092,0.513689488124883,2.002109371134111
0.23113481840932387,1.5269738909751123,0.3624943871667596,0.3957950867677352,0.29892916115690765,0.5008537076028036,0.4872058598117195,2.0459404957495715
0.23992261629026815,1.5455284549633517,0.3808485940051123,0.45692452021927216,0.3130375517122276,0.5096858402302278,0.4637424283215968,2.044466571619001
0.3132179832880224,1.5407018526630607,0.48607668790184166,0.5670542745576304,0.37872294550093044,0.6636580683953298,0.6394215172053952,2.16652548090141
0.30526973939752733,1.5176912297829463,0.4814761888005084,0.5703868899125613,0.3920191774034979,0.6154288234870082,0.5941902758245817,2.0791213761091587
0.28099076315439425,1.4881563372604323,0.44783695101308907,0.49932904990260707,0.35355339415203413,0.6024141730994227,0.5760277968277301,2.118627168639752
0.24710530792310484,1.5007691991151895,0.39297247390063306,0.4522803962713246,0.3188748807137075,0.5246368775682094,0.5170915781900485,2.089549966568928
0.33522685665330076,1.4910453804077057,0.5418947470835155,0.6356314169352496,0.42644130125091156,0.6779333517589657,0.7056494956481772,2.1472404022547145
0.3517031854493816,1.5138234338472163,0.5532582454474044,0.6500625018648746,0.44192487901973404,0.6914011021028155,0.7050193580630122,2.1149273580855956
0.345257585636864,1.5036365777301637,0.5554303303680791,0.6242432787954759,0.4276210004792131,0.6710061862700523,0.6570061301665061,2.0868634752804893
0.2371991218602915,1.5291535864787027,0.4312927537913019,0.49371252378823083,0.3846553163590589,0.5900772727269958,0.5801099802594214,2.1317391596358055
0.2125757293765231,1.5338248168299056,0.38866812886892965,0.4731957043214951,0.3871512953012327,0.6018017737651243,0.5958185252325897,2.0509940853031328
0.24020532902410932,1.5395459470690014,0.45054191102875024,0.5533490905745052,0.40111779228836464,0.6934689892227535,0.6983947712616627,2.13673632816127
0.2166549666593799,1.52732527130864,0.4216237039851236,0.5151969932009879,0.40338995654674903,0.6618988344379104,0.6671583403494379,2.091614148629171
0.17277113342014036,1.5471335821871994,0.35827890221407344,0.44765144243284455,0.37834641504708066,0.6058090451893219,0.5606000151262884,2.016656143689256
0.1249435608631304,1.5264019283456982,0.28446200070619143,0.35983000583701674,0.35583365746429474,0.524626774835471,0.46142404105659335,1.936295792790689
0.1905409939019699,1.5377012818748428,0.39075429213115437,0.5035547636941516,0.4136787808167095,0.6855016704158458,0.6708884289958779,1.9782936473680084
0.16658673741586671,1.5369032234487467,0.36420664313255663,0.4926487147438705,0.4047382992700769,0.6809908147681529,0.6541779347071921,1.9930902912981863
0.13644430541512748,1.5171246965570564,0.3284030054213727,0.43522822682892087,0.3996671999105128,0.633648045159347,0.6126530126065817,1.9769999519168318
0.10455973984690249,1.5227330713044545,0.2414670018064441,0.3314357449899489,0.3557880736973224,0.5608263132449955,0.5260503203195024,1.8956004430969275
0.17906032218325751,1.5210299150557975,0.38242625875424485,0.5280799408249096,0.4440613696584535,0.7109189045352952,0.6953892487909209,1.937300331626143
0.1773770910764307,1.5200185744850572,0.37845719021376356,0.5077930557477545,0.43596625427218527,0.7073776285721394,0.7049607681465766,2.08590307389174
0.13402450238453179,1.5060301764684916,0.3241166038883385,0.43100074756853973,0.407789905149058,0.6535530721623151,0.6428260374612614,2.0172138945580427
0.0787104087402276,1.5062588360684417,0.25242440102762,0.30407150836569197,0.3519749379829612,0.5496553292621555,0.5591703484249233,2.0433549016519144
0.11531589992440058,1.5303389522291126,0.30836073341660597,0.41373574536416957,0.40263332037180877,0.6128008033209448,0.6239661356620898,1.9974256206273173
0.14846370544847798,1.5203495334378692,0.37199612082429606,0.4824134683281984,0.4284470032139288,0.6988513908627173,0.7164428370103674,1.9919201130049535
0.11742136476309398,1.5471319285236187,0.3201535534952712,0.42681432929706636,0.432657175174796,0.6777715372989195,0.6603450323137643,2.0839914650401243
0.0898176095092048,1.5325601028722327,0.2580368416810656,0.3329724790671989,0.36409227622964035,0.6134936281688891,0.567331286161681,2.0522063513674906
0.05252211829674368,1.4860477761590893,0.17460731155889403,0.2450832278720582,0.30345006723301904,0.4947711260831359,0.47531017302055134,2.095719661492764
0.13250679021337267,1.5345661070336625,0.312775484128716,0.45198052324165783,0.404257980159909,0.653134213515031,0.6722503184392268,2.081325550738058
0.10439296985864872,1.5294274742785425,0.28276786215893285,0.388105289303994,0.3914034178059429,0.6412268733703046,0.6268262313395816,2.0296010909075712
0.06928364735187202,1.5194540075759546,0.2462462187356476,0.32745955195609927,0.36141103134389185,0.5696412936363375,0.5217213999195636,1.997816340547537
0.021021026739313095,1.5389096842974865,0.14839776605042818,0.21267384645554926,0.3042157871606689,0.46411393857928046,0.42223299602603576,2.017097446928966
0.01152446211717717,1.527898273524828,0.17155018213039291,0.2215218509170404,0.2898880193682226,0.45674542717683975,0.4431459218620002,2.0025462115086574
0.06310480993407402,1.5218213395853328,0.2746077795532347,0.34740221870533994,0.3757913926029124,0.6004953001552166,0.5903818100507691,2.0223580731533906
0.0556608353262454,1.5094581728012888,0.2290124676754243,0.31209827802380186,0.3237105171731122,0.5470745359996612,0.530589520632309,2.008094040516978
0.04450280912709474,1.5075255737656597,0.19702920810260188,0.27774194436394783,0.28209365847141654,0.4981612568414462,0.47304849154126555,1.9739960481714853
0.05528039985965619,1.4748141927161116,0.17415272943599389,0.19551466580695662,0.2265872164905414,0.43110055562940647,0.392172317625975,2.1174240875380295
0.165527532538461,1.4542951314051513,0.33341921941242664,0.4112201358896014,0.3374033460352207,0.5578434547074074,0.5643021863811244,2.1512938444910494
0.15880536729307987,1.4739391991964421,0.3290456143417952,0.38735915457658743,0.3219647905694944,0.5349536282864404,0.5545434229041888,2.1278888532852953
0.1452826057255059,1.443706637239241,0.3121339650054038,0.3618044980011459,0.2688263869485438,0.5394580910077609,0.481482896382657,2.1333750157321583
0.12814440685405254,1.4869855902762108,0.26327387538466496,0.2884242766134734,0.24295257275410348,0.4416327507116177,0.3989640805247175,2.0671497303000654
0.13664536325038243,1.5151806580323508,0.3131001379428844,0.3356189455713324,0.26465290796741026,0.44622043724984095,0.46595195594109695,2.122556581154244
0.14490043185088067,1.5321190521544996,0.3340700115210809,0.3705276211731353,0.3014486689861382,0.4827278694937547,0.47933692096432645,2.0909884250055777
0.08841684807217795,1.543204938062129,0.2314955776303802,0.2628658367852051,0.22477450435746613,0.39122060460117253,0.36458109772768066,2.1062793936898303
0.0633126511567269,1.5333944680571174,0.16366073777120582,0.15696486830632125,0.19690750152456363,0.2871338366510663,0.2515034870029735,1.9957378618190151
0.008343770016243687,1.5537767946600674,0.09557211330195775,0.028402561014611433,0.11015894909233911,0.16246425225792804,0.13701058774099956,1.9182813395196747
0.10652898151096994,1.5499344502594792,0.24682393177074746,0.25549580862570465,0.2526636382353073,0.3428262598011047,0.3200705365008095,1.9816263019193512
0.09334744426465118,1.5644493148293486,0.19932788332220522,0.2054415059766372,0.194302991319257,0.2751201512654711,0.2899281027427473,2.091647219486514
0.09289001177470618,1.5370749219887692,0.1860771977003801,0.1532936834824708,0.16144204265836734,0.23228288758672613,0.22824404120323016,1.9118495790002896
0.037989219790952135,1.5213597218291948,0.10023903927836364,0.03286600385044333,0.07550757518808937,0.12318452182839787,0.11240186115283261,1.953228632509298
0.11941270070450045,1.5502019167269705,0.23701988336423133,0.20149762566584645,0.170067647075137,0.2620240021074952,0.265749536723438,1.9295467818030638
0.12360690044005679,1.565733061758433,0.23593716777227752,0.23234880090175106,0.15051764046154542,0.2766099000088018,0.26878942445064286,1.956994958581352
0.1141150412541112,1.567478823630414,0.21014144085308697,0.16999694175851932,0.13449393585119263,0.22174932838831568,0.21772194212149645,1.9346384188542591
0.06331517996706648,1.5591918714294717,0.15676475311161864,0.06453216720532728,0.07279819646578398,0.1456445507044179,0.1430922911818148,1.9284897826590108
0.1360681111607824,1.5499379188860263,0.20853070574377952,0.17593922166566936,0.13618279605418834,0.2249305823367458,0.22302523966011803,2.053796111288926
0.15919438673651692,1.575854620012795,0.2767961184156819,0.26481601475545247,0.17273616005549802,0.28532859878479605,0.2840755122301667,2.014141122240961
0.15005554642912605,1.5710986667806504,0.2488083587043025,0.22894208252293413,0.15591949090016122,0.2442477587472644,0.24453988322330494,1.9578918940429757
0.11706487718239525,1.574011091447286,0.18953260067938882,0.10437212639869226,0.10254196861981868,0.16130568574775728,0.12867209363556636,1.8866222183947692
0.11036467989581394,1.5468208339221894,0.1856897606970684,0.15465280877350385,0.12178582317840267,0.1551871297578165,0.1662350287481906,1.9622238182945915
0.1976946893165288,1.5801357001082894,0.3111984535617944,0.29225356597598223,0.18470318288415088,0.32760158248571936,0.33127289152550865,1.9713148129550464
0.16812333734435486,1.5739138341416046,0.27339118638805304,0.2448827839028374,0.1719147774378878,0.3033003559619476,0.3002447521848364,1.9312696113122356
0.15250141412057172,1.5638572068845955,0.2279897495058234,0.1834282051882433,0.1450482767068172,0.2265765563008163,0.218155944426945,1.9502229220082985
0.105791478148468,1.5398365055852512,0.1763244332373305,0.11616699593616223,0.11043336058552863,0.1701596642069203,0.1551286544159503,1.9366103901065506
0.2037964015072314,1.5671297473827763,0.3272958245539791,0.323248153033698,0.21082354744123188,0.35317886854022584,0.346706767582705,2.0196684690657682
0.19628164957935892,1.5766623167188194,0.29734999503735626,0.2943392790501752,0.20990210172783105,0.3327647610870798,0.3331734977087071,2.0039401516945463
0.17345458624896684,1.560660781636894,0.26636110547399455,0.249609190294713,0.18600495563767439,0.29750652118245235,0.29988671224688335,1.966872886826909
0.1263243773939138,1.5283005672688028,0.17244201534409698,0.1201754272366398,0.13084689007710903,0.18755433548523798,0.19618324565292403,1.9730543636677966
0.15392269376430687,1.558385204533316,0.22710840358382361,0.22783850661894361,0.1400597925044067,0.24088251446275577,0.23941863116566453,2.006569971763011
0.19679371307549684,1.569169163113795,0.31755809044565275,0.31255253282282136,0.23095177133889871,0.3857173570248067,0.37823533918803326,1.9502083106760049
0.18693108926981183,1.5874845730172824,0.2984033246072353,0.268073165037075,0.22169948322518074,0.3726020243149769,0.35777759776839163,2.0207734386948073
0.15574050058622604,1.5998942576959312,0.25837189060705745,0.20176149761259476,0.17168085701720304,0.2731659368377589,0.26937965248479123,1.8775462495057702
0.11188043973545077,1.5843878030626637,0.14987062309720323,0.10139000074647524,0.1085424477876083,0.17180428527823288,0.17366080061715966,1.9040187177688745
0.1876751671139226,1.598077350457622,0.29728779042629044,0.3113578463029653,0.2132490055004731,0.32235035296451764,0.33557580362106765,1.9877704093097441
0.2015979683521744,1.6188209959781172,0.31518625149318275,0.29335150971628776,0.23361151539630354,0.3416408047504608,0.34696673696226465,1.9599009263402498
0.18405564755852447,1.5820430573300008,0.2831257586950032,0.2533351287981887,0.20671895337904783,0.33576747747535685,0.3175534923606357,1.9254099983300903
0.15141003303207967,1.5490610345806215,0.22716997895209728,0.17383974516844228,0.17338664659441733,0.2234861031684256,0.22124989746642598,1.9150229558460934
0.11836542815669712,1.561038565807815,0.19657601519392678,0.13705081995362328,0.12218578755258853,0.21354532246853786,0.19731289528439758,1.9625053912193502
0.21679769916036018,1.5766263121512964,0.35752115626115,0.3629834446412918,0.25936783914154793,0.4188277984295854,0.40929410148450057,1.912317808638785
0.20873848459899458,1.5621314973524292,0.3189963953979349,0.32712084773146666,0.23285627894249045,0.37708469922485427,0.3817239167575524,1.9473038454828488
0.1706069574838906,1.5600169065521379,0.29881119824288355,0.258956464584657,0.21690048224487676,0.323635625663185,0.33055513807553727,1.9292984271276636
0.10731797975400578,1.5633563917458793,0.2075054188937339,0.12014237544110486,0.1349683597287594,0.21126157340183305,0.18362040964573045,1.9115134643411467
0.12384240937424079,1.5820072079090302,0.23969896920645256,0.20809819236438956,0.16090833963818946,0.23041721004480517,0.23199488976078167,1.8337123469477745
0.1760654175817402,1.5993842802924703,0.32519396673698464,0.3287824181240832,0.26297501992116157,0.3929513246617391,0.37049886047426106,1.8866847826531103
0.16894587851515788,1.5675265479042793,0.2809048134850145,0.24922052006197098,0.23643298033535248,0.30170739964167537,0.33381877811578425,1.88610009901081
0.1871458335411477,1.5819028631504848,0.2513438230365518,0.17617648516542017,0.17551429359192305,0.1822407027934527,0.18413703255834463,1.9383846751463436
0.1154458283828912,1.5301522432370336,0.15240350732694355,0.07317407767986325,0.08069091188913996,0.0384179498982966,0.030449238704943392,1.8703861046771122
0.19428776944535794,1.5814378107011513,0.27839658839460485,0.24943963011617162,0.14216801264499168,0.18132370378106744,0.19008673215975144,1.8714195017207509
0.16846668233963297,1.5645016737319826,0.2721382990437307,0.2424417094563521,0.11821119786517384,0.18167515458430036,0.19025161728262202,1.9388648272946343
0.16380823043599854,1.5502957021348227,0.25049720760979455,0.19044087792447206,0.14018139251459105,0.17561537713757763,0.15292586789171914,1.964936007555703
0.10316646925698664,1.5664886415890642,0.17566091756549385,0.07708448937431564,0.04005153723643706,0.008835998712106538,0.037445213148957504,1.91895311004843
0.16817943474688038,1.563430129652422,0.2606456610070334,0.22243725274961268,0.09795976789285568,0.13174356012559996,0.14860374205311555,1.9597261085806752
0.19834141156926627,1.5978625350845568,0.2819677274693824,0.25544207378535094,0.13477961249122075,0.19496270930074144,0.1860985156468957,1.9481342328654878
0.17862219369640986,1.5803370565157941,0.2802855398454867,0.22206230307620148,0.10021659270938182,0.13989399676944336,0.15275680727783386,1.8428640480681866
0.17546416482018204,1.55791615219435,0.23163448501628905,0.15477514781563073,-0.017184453162538083,0.02226789523486851,0.046247872741393636,1.822676053709297
0.21144807438069174,1.5930964702848964,0.3015963370765604,0.22942638295686163,-0.015416332218866957,0.04382676150113757,0.05971747929890733,1.761969785374987
0.2878651905069738,1.5848101057950674,0.430038710868872,0.40942981708010195,0.08244762949047388,0.22664651339725583,0.2754662008813742,1.7475552690620475
0.276622670782823,1.5579269351131648,0.4235309015037,0.41402039157884923,0.07312155448611143,0.24788505345781287,0.25218511059638626,1.670784793050966
0.2564483765616515,1.5546832557245918,0.3843483375201661,0.36416917566920537,0.022728843172728164,0.16022082116190403,0.20951461480646816,1.7679756539822207
0.2239136529501001,1.5809528205381238,0.3756591119038635,0.30528563976043016,0.008847925728672629,0.1505356528373859,0.13971572024156423,1.755482173518464
0.3358635089622771,1.593014923875524,0.5218012717737188,0.520679311531179,0.1758064545670334,0.3792330098474663,0.3559234145147433,1.8291286725288387
0.31984768041913864,1.6183262048863327,0.49698338623389815,0.49000178426491975,0.15470115192274816,0.358563390051517,0.3327490401836982,1.703661378846483
0.2984655078464034,1.5756463578141138,0.4759414719684917,0.4649866635864305,0.11313981066853529,0.3156702645908855,0.29307218281428127,1.7947109715831326
0.26071582759345985,1.6035813642512147,0.4087245815862699,0.3720173695907192,0.0599692737092333,0.19207566746259852,0.18972458713311785,1.8205657075215171
0.36744327263690396,1.606842148375734,0.5371846293996071,0.5223705489618795,0.15497781946594058,0.33772084089231313,0.33582917054489503,1.8084407580885131
0.36484121480685905,1.6109216917204479,0.582837829712523,0.565766891520745,0.19645905398542768,0.414677111683987,0.40242075794587256,1.7953937342375412
0.36281003745943574,1.60686071260554,0.5397925554258504,0.5445525579550566,0.18382404027178373,0.3645224908282831,0.36414865653477385,1.8121492106713804
0.2995322525757956,1.615207631119086,0.46140093944323424,0.4321093536431822,0.11330930551657603,0.2627592456384073,0.2873846718897524,1.7855721576191534
0.26808104024302354,1.5954818056015085,0.4219590870004096,0.39628815040829285,0.07620124943728515,0.21868918731436948,0.20728242798637322,1.8706120090424032
0.35659906130354546,1.605768044874646,0.5792663260130163,0.5799652701124011,0.19493568319055063,0.38658741054000856,0.40915003843111464,1.8282571223155109
0.3397856145884292,1.6146050717887537,0.5310322934951099,0.5318293651923481,0.18225896389830296,0.37923651553119686,0.35585905656957323,1.812715682338447
0.31895915817525305,1.6199436200786788,0.491770762642615,0.46723556971365615,0.1582157687561205,0.31655209282199465,0.347441440168291,1.826318288219394
0.2555644763665738,1.5885576121953657,0.39192673221229596,0.36026491522754284,0.09816827533233358,0.1971832405034322,0.21598433843191525,1.7708061285353498
0.34434129751075016,1.6054099469234009,0.5474647999791844,0.5570947826877262,0.2041216054075113,0.4117398023908587,0.3853425476973437,1.848821541818077
0.3312522214249519,1.6206362244862766,0.5181244873961576,0.5081584219858357,0.1968493610467943,0.39303611484729295,0.3789034207585678,1.7937464950616426
0.3257344032649366,1.5757821082585544,0.4873966037231024,0.47602727626260916,0.166809042637716,0.3527904091367568,0.33711538870362096,1.8078985370338017
0.2516519795195284,1.582610164466757,0.3887799234212856,0.32787393548670213,0.10379009794919608,0.23562985724284713,0.22730533175166434,1.7637983004286486
0.2682305867805806,1.6017788051090043,0.4474917604037515,0.3799096428655211,0.1232796453176367,0.2516664327285719,0.2730635019515043,1.881174353697816
0.32857257016260843,1.5830324654018197,0.541122366941368,0.5237006474722985,0.23018967026344148,0.4303975454824238,0.44048069519590904,1.8543959820845308
0.3212411010891766,1.621968006879617,0.511451452382527,0.49784116533673217,0.2231806065929916,0.4050793193526903,0.3889695403762984,1.8787397312802474
0.2824029418331519,1.6271697588917606,0.44410650288416387,0.3928450966452753,0.14701424094586923,0.32236741922559176,0.3100235144582061,1.8889167624731291
0.2075904158776882,1.5827992099035355,0.35515872099567847,0.2807489911291565,0.10461158306450616,0.2135671548886845,0.19502983586890174,1.8272548499195893
0.3092217747741429,1.6069988826449153,0.5008789917016037,0.481019361320837,0.2221374430244622,0.38771218259276446,0.39568389156593403,1.9437610760978208
0.33187163569077743,1.5993801954236224,0.5407894847483935,0.5085482950956403,0.2784013081654989,0.40689782839966465,0.44212401050468514,1.9014687879633425
0.3243252476207302,1.6041004207504943,0.48938517568385437,0.4634740685717966,0.21950320775142407,0.3912819985003456,0.39046290470039247,1.8664035078854955
0.2617468981078328,1.624507386795647,0.4153045780391748,0.3604097878578954,0.16811935680093398,0.2657624452546935,0.27822777244102126,1.7806409897866122
0.22781885539314606,1.63888102489126,0.3621820584097082,0.27331372523130054,0.07860413296815166,0.23038297861742632,0.22208022260607138,1.8369503195128283
0.31942065065870273,1.6255546848032207,0.5077141168696391,0.4894916518276127,0.24546753630105014,0.434716797291006,0.4290922385256486,1.871739960720693
0.2982559889115455,1.6076443680098031,0.47957792095146706,0.45860196792524743,0.22577945105592329,0.39335623775436934,0.3840861448417832,1.754063189857983
0.28320770238050624,1.629532680330645,0.4490795743644279,0.3883522280247668,0.18781840735368815,0.3245364532668112,0.3040419414381276,1.8212919510463415
0.20371783825092415,1.616427624373958,0.34800289131799456,0.2895232121564404,0.11555302109507545,0.23275542556204942,0.2192969283650403,1.875252844440042
0.2699082659050669,1.5819345340171584,0.45459479250527196,0.40460072853169704,0.18365886163424605,0.32141628567753067,0.31712875384499595,1.8611834040347213
0.29437356081501076,1.5855723867554687,0.44889566818446675,0.44337925231537983,0.22576681507797053,0.3808490813555184,0.37220191395015534,1.8266570324204798
0.2514770197322412,1.621623665807746,0.4479430708510707,0.38162342333954724,0.1911085279705267,0.3371922612414361,0.36018373914887253,1.8962712568906854
0.21601182829168789,1.6150832769532566,0.3518778552490099,0.28154924524958025,0.1459457661800026,0.2574765020470723,0.22484414092074134,1.8802978205450436
0.2153532958700836,1.5709214956997029,0.3788059007255874,0.31798694839237607,0.12230862375891108,0.22271397801409012,0.26699942342968075,1.8179443058164226
0.2874305304810599,1.59944688008305,0.49203467477096363,0.49073889712856544,0.24675237116439283,0.4184293892777129,0.41145193389619567,1.8391763426853691
0.2814131052428634,1.594074579640724,0.4829895459763439,0.4251173970914028,0.20053280649598437,0.35894920451630036,0.37526306420958006,1.8758187992232356
0.25306744014690985,1.58835752795768,0.43393820567641705,0.3664211902047705,0.1653059169278535,0.3164447591417779,0.27193727348959507,1.9017602492745667
0.20255533332733586,1.5574014817446034,0.3397198796303072,0.26765837463165437,0.0848356623010807,0.22206215513878422,0.2052476960295836,1.7705250580547542
0.2896149198908461,1.574846475722884,0.5006001393573521,0.48838357878068567,0.21586279118545454,0.4047566926321627,0.38704224718121655,1.810934532078519
0.2923516125357542,1.5872729399788832,0.4938371425307148,0.47127062557763155,0.22082457094422983,0.39705642978064415,0.4041604879423508,1.9069007125146316
0.27114342515921386,1.5861053357704875,0.45814138323024994,0.4421339825772043,0.2062157571571921,0.3814002082168424,0.34407165623940617,1.8676142342940434
0.24416851815425522,1.6103454381163773,0.38369539129431796,0.3439860839335059,0.1266413385918689,0.26131701515380007,0.2594783188522741,1.7854508015717587
0.24822369045898876,1.5804392119492592,0.4313908788352273,0.39163228521729154,0.15065886103326387,0.28471107333183987,0.2948774073184886,1.8640421312416326
0.30587638345794577,1.6089607805290027,0.5193699270164289,0.5039527812932156,0.24791897831238732,0.4385453569336698,0.44577948738662404,1.8947179102236678
0.2699096439174085,1.5933528590448895,0.49437202652040524,0.49506031347336393,0.21702494741722925,0.3687840308776638,0.342565206032097,1.8599992394657627
0.2583335772464191,1.5592173279506407,0.44685449494498136,0.3963850058063465,0.1858488518731157,0.32279967138045806,0.2963050090459899,1.8182078656056364
0.2072439198291658,1.595812114985431,0.39585982363962435,0.332770258821259,0.11272049847262476,0.2373776579904437,0.21204433504172363,1.8843838849922718
0.30638382823300025,1.6097312563122868,0.5097657979300774,0.5146630347737315,0.2504694851978023,0.427377293393863,0.4353052067009129,1.8566828210222739
0.3002514467955899,1.578948009878044,0.5151348052701674,0.4918249199148732,0.21435848475080582,0.3660548598719805,0.384308148893612,1.8811804940346213
0.2860610383739954,1.5791130010020211,0.4830083973930733,0.45086780461556764,0.21388732832738527,0.35796506705424946,0.3390103947602304,1.9188346782259806
0.219120188101365,1.5814846175837192,0.4053177863879874,0.36447466664678757,0.13180798697607438,0.27445284793404146,0.2771831355295543,1.7784133332826002
0.30883407168835997,1.5963031016395033,0.5227051856831353,0.5226804073835422,0.22910442587191626,0.3996994845022935,0.40524790828670826,1.8880603015478838
0.3109124176119879,1.586443562137529,0.5269327184707074,0.5282905127560072,0.24125951628327047,0.4379215797889946,0.4123892032972633,1.9606545114218803
0.27655613197381335,1.6000666996908972,0.5106713185190087,0.4752469469047027,0.21714896152210816,0.37101887306982906,0.3477697190294411,1.8476780549035028
0.2332418529698375,1.5944029458086844,0.4187325737571346,0.3657466204803341,0.14004450895464265,0.27153089651826623,0.23176764961070065,1.856957616890728
0.24662380882405932,1.6024610419471306,0.4660667695252001,0.43592904982482295,0.18849898049094047,0.3310667241617728,0.2945908385626042,1.8705777625766236
0.3238026423275964,1.6085352518252967,0.5621140069589702,0.5654142445453767,0.32052362034754633,0.5026500995705007,0.47248625138537936,1.842349715600248
0.31144639769879834,1.6080286403196682,0.5502715817044092,0.5505078395477654,0.2644522038572106,0.46050811581214307,0.4188103047042289,1.8782364674932084
0.27836896315898674,1.582073149196281,0.47973425347834825,0.462584855543318,0.21162848784725394,0.35504631708150086,0.3402904295313615,1.844606955377821
0.23399870684472998,1.6065770689087602,0.4272903573626615,0.37970785917394173,0.1608220487156116,0.2674999100488578,0.2694801605529672,1.8579167662067986
0.3404843097261365,1.6107414008733856,0.602421232334455,0.5973038589428691,0.28871233385788025,0.4871478935752441,0.48338220442573193,1.8505699184618472
0.3350093286588927,1.5968036009480453,0.5704319736976466,0.5798844533294096,0.320761221375326,0.47988361346720826,0.47668165524823874,1.884591910851852
0.30402835294022834,1.6112826722331344,0.524987421608544,0.5257829951239712,0.26873475636374167,0.4434707567915859,0.40258713305582333,1.9065757284947173
0.27378690768751024,1.6132678460313103,0.45884053346133186,0.4301166309234408,0.19664843748230465,0.3445111853463111,0.31678336650282446,1.890494734328441
0.2656536775866273,1.5901561195706697,0.4693659970955266,0.42184809197495327,0.18155802443218608,0.302776621306757,0.3110975600025393,1.8787331140429016
0.35546904607235175,1.5925928371831166,0.6165699519248796,0.6252640657767272,0.33937082852099426,0.5290639459843175,0.5056624656470984,1.866634785586576
0.345062585901379,1.6212753939330757,0.5740586756809223,0.602278967151334,0.29968237114842694,0.48207270541501235,0.4652110608059097,1.9274053948795529
0.30219851064570014,1.6189531215288362,0.563611679798194,0.5156720534596101,0.24669014363069794,0.4198908157960942,0.389466698552037,1.863137816500233
0.26631761807875537,1.6059400793931222,0.44714429988065096,0.39247244492146627,0.19518580931650226,0.27787556814925796,0.2844900880626217,1.9011668403677686
0.3090890187590711,1.6114512456588677,0.4941897201774081,0.48485490847021956,0.2235641821068252,0.3629887780467287,0.3365450311859348,1.9215631991163344
0.34747320918788294,1.6108204144891505,0.5875166760885593,0.5811789321737024,0.30895977176570666,0.48624405594101644,0.46275517493932034,1.9259616023651098
0.3331585852729726,1.6352038641954387,0.574111387337807,0.5682769889054332,0.25368519418698,0.4458228218530293,0.41233768275270116,1.8630841395928053
0.2988150924901632,1.5708862078761427,0.5039467199859338,0.48163487138529637,0.23501728417581463,0.354575352910996,0.3536370667544805,1.8832538490344928
0.26952249674660017,1.5810189245438155,0.4529904331725716,0.39782617403917564,0.14494172210711118,0.28938257781798793,0.27695545683324635,1.8703221388556737
0.37238097288947153,1.6268971032451762,0.6111033635940368,0.6111917083525511,0.3117187205339184,0.5063362889168032,0.4744578847000286,1.9441532477394532
0.3632158473871786,1.5944024883580856,0.5633618685993306,0.5793687985585285,0.30241895906012034,0.4411872128924622,0.4309766696645782,1.905954663276096
0.3406472384271759,1.6102169407249307,0.5548436072641804,0.5300441845196552,0.2581661065843048,0.42353225048080834,0.37249951788543445,1.9215244431626353
0.27785799400177663,1.5995419240797597,0.45976834200009176,0.43058204637178615,0.164676156355416,0.3168292874527065,0.29262614449953345,1.9053308644105449
0.2970264845132425,1.6037846274573047,0.47494289948701063,0.4428261236050743,0.17988655254789052,0.3083114620286284,0.3057767642564294,1.9050705561144003
0.3874829738883783,1.610734683412864,0.6122151425240037,0.6263576679013084,0.3137411073260593,0.5031958482659692,0.49773469055394726,1.9167156081985228
0.35797525567161526,1.584658457420339,0.5832356056811371,0.5967515786733683,0.2966016990173286,0.4536006926373732,0.4494156157327447,1.9072322816155662
0.3540773618796929,1.6154476048390674,0.5467409896059995,0.5265138989596244,0.24880359476911557,0.40240819683739076,0.3866736618598436,1.9137868234489979
0.2771293706413591,1.580738997134597,0.4632850175568804,0.39466590470250396,0.19269511636773207,0.3081035956493329,0.2633847357624651,1.926586932747145
0.35726216424226703,1.612190638256294,0.5775279530302643,0.5516401632907195,0.24157151189016451,0.42733740394099473,0.4123145260292903,1.9617865475538498
0.38764049105912957,1.6064895923766511,0.6198833563562358,0.6193131721428888,0.3316462443687441,0.5074740181080852,0.46726328454138677,1.9399251663420223
0.3992901383915559,1.6203004334320188,0.6005669076770481,0.5788401130097772,0.3188631090635536,0.4730764799298436,0.43997326079929133,1.9156749257087267
0.3395336593407096,1.6151866787774514,0.5113984097568997,0.46149444021643465,0.2297670117459531,0.3677233073959178,0.33905493999613207,1.9147789496961745
0.29323565547393116,1.6021867449184333,0.4734227250099117,0.4040334909573754,0.1689196232616187,0.3127191433317359,0.2770102789365389,1.833661788712447
0.3889573319190562,1.635761017469647,0.6158301504987207,0.6160025650376778,0.32213003037605853,0.4830561935436818,0.477873976415581,1.924868362380955
0.3921826560032285,1.6044695999594007,0.6145693331901095,0.5714965955649929,0.31336232442424433,0.4847538154607773,0.45587928848999293,2.001891575355182
0.35131729837467696,1.6190207535150387,0.5605139606441869,0.5293425828409919,0.2823462727223551,0.43250735935622703,0.393543703276813,1.9515877067427354
0.31161173196428343,1.575318707712218,0.4748355380108627,0.4295794534480605,0.2044338681831793,0.31893717149715906,0.3000341358593468,1.860192794360629
0.33133346433171934,1.6072585911846153,0.5407952849291062,0.5015471436366181,0.23128865945137705,0.3979105685827843,0.35388476534232377,1.9165430191926842
0.382872555823521,1.6242570763527053,0.6079132469586468,0.6087630703492017,0.3174986795048367,0.5026911957824535,0.42874696861725325,1.8636728882144817
0.3678709234312604,1.6354248145598431,0.5650118510901516,0.5445008443178362,0.2920279048771273,0.4328919750674217,0.42722335992026284,1.8764619815557375
0.32057049862918086,1.606349906492747,0.525488783060063,0.4596107522953946,0.24392100360978952,0.38201246419906304,0.3713016259241462,1.814865892195735
0.28682749255431395,1.6038575761007312,0.45814691005436725,0.39252633691244,0.20761971028191006,0.3039730067851282,0.2662715970112454,1.9186340076053743
0.3917558008836795,1.620703991103643,0.6009045070818778,0.6250065298545456,0.30420496864697416,0.5047370188101424,0.48850226759555004,1.9068392508051475
0.3924331189005293,1.598260443050624,0.6083833211235514,0.5806633502325701,0.3205732152439691,0.4709377665026082,0.4827679199253966,1.9089852361310031
0.3880574554948815,1.6212652637143043,0.5750882364241637,0.5595137468437381,0.28859055065485695,0.4452462701680141,0.4182282574557142,1.9960850359228481
0.3144942015974332,1.5855593501048146,0.4890922347889604,0.42966842223640145,0.2349097429623922,0.3415216765490581,0.32446297507130106,1.8641389469047556
0.30919230561526434,1.57519773935085,0.5195106497393752,0.4719046140773553,0.21883836013429425,0.34580198654683814,0.3376970473227436,1.8962678200536027
0.41404966559312084,1.6085619026932383,0.6397380473375202,0.6355008768462947,0.3650602298517504,0.5623635087476052,0.5197245931316207,1.9550565611466306
0.3897439486863484,1.6156665601101379,0.6124434861538365,0.5912116052960309,0.34744050041909436,0.5061297678962673,0.4877563647880496,1.9059147496812725
0.3722644437053572,1.6163395095649842,0.5703850083299978,0.5242534174464482,0.3343793553822855,0.4487693752424799,0.41746106257359017,1.951588638193802
0.36278052107946235,1.6159072509519201,0.4782037566565115,0.39352315023531337,0.2408815050668439,0.3226089901788275,0.2858823794499831,1.865772382934102
0.4275864922468944,1.6337772889891373,0.6143274932755436,0.578704471562,0.30992437168326414,0.41386248913569457,0.40127938404603103,1.9283241834827365
0.482451054926018,1.665689870432136,0.6915000671405327,0.688766682880323,0.3467877719848441,0.5403355902244555,0.49910483530978855,1.9029452246240848
0.4471954188382148,1.659598701152305,0.6744119474716791,0.648183874288345,0.3370727208635313,0.531969635599201,0.5007332169719808,1.9165087650976196
0.43043516824407463,1.6376918113936914,0.624134815319179,0.5819599800768228,0.2604766187058019,0.4572980677155756,0.4289030227020833,1.906260739889129
0.39296403159025184,1.6172162715970524,0.5818845243649375,0.5352453497747446,0.25373407193637143,0.4015453362471293,0.36987905550957967,1.924315676884374
0.4728231641686767,1.667427040435398,0.7334138571261664,0.746790113160031,0.3551793349040498,0.5271727546622158,0.5270241785886477,1.9409740612998791
0.4400823011065793,1.613110266258933,0.6966170935855892,0.6765835212106293,0.331189054176979,0.5289424752418135,0.4839411876157308,1.8852380945629985
0.40815283435268884,1.6281841278232734,0.6424773714385115,0.607041143236303,0.29923239011628533,0.4983187527693707,0.44996539143138337,1.9554422412312034
0.3506094231262797,1.6215331046951649,0.543099140699886,0.5317616447745556,0.23870977997127346,0.4072929089887394,0.373691117337446,1.8466939345310216
0.44469366550259626,1.616758660274151,0.6921495012610013,0.7064087326155555,0.3767390057530284,0.5636511595760081,0.5297056428654593,1.9716199536778038
0.42716940315857965,1.6463466621221627,0.6753902763752222,0.672427199746464,0.35346374692078053,0.5662065911699392,0.5228151911264725,1.891749275177875
0.4279790680167842,1.6216595339204014,0.6687902238810735,0.6425297525063285,0.4166531737950297,0.5818970148775527,0.557167988915078,1.9278175422164394
0.41533708530002045,1.6474569814197653,0.6182017426526156,0.583826954860928,0.3883124767830886,0.5522120198567264,0.4967719355019007,1.9382696345330532
0.5243448419228054,1.615208283808546,0.7879150064260103,0.7590260788977311,0.5068934020906831,0.7418186722808304,0.6871596211830193,1.9540273854895687
0.5417088970105794,1.6541494330968645,0.7646903244927008,0.7267160915466149,0.5167600901058187,0.6756564986543128,0.6743077747239093,2.0280391038269814
0.5210967454490568,1.6503188552200247,0.7103457347202081,0.6845056118220743,0.4718640867489937,0.6365699953275198,0.6238097003653139,1.9445071758353758
0.4786361058104639,1.6444965867269463,0.6537358359814158,0.6127103755027271,0.43045273592167477,0.557342324811293,0.4892491977281909,2.007462942243347
0.5792271086487124,1.6551132848490837,0.820443044116407,0.7963657346901799,0.5709758829960623,0.7154819882538104,0.682576038852741,2.0628979091868467
0.5820135823239838,1.6163046248258792,0.7957026691450864,0.7707310079311656,0.5494187006897991,0.715533909391708,0.6967368142117583,2.063127162128508
0.5534994971604912,1.6618152207147616,0.7415518525540085,0.7010683924039574,0.521947030746966,0.6830787396373735,0.6401258261386434,1.949483848357911
0.4683859248055026,1.639088945050592,0.658358599413596,0.5360589201584274,0.4202865620383582,0.5312801603293724,0.4946922545270571,1.9900238601927116
0.4997222157617361,1.6524299481452527,0.7139729173600601,0.6878890131446552,0.5061944524727602,0.6748166937549523,0.6330154568648703,2.138855275076814
0.555524200133215,1.6668352296850897,0.7846968311658249,0.7407052362241796,0.5805504860984634,0.7414494185292098,0.6962040620724075,2.1780166142996795
0.5271706917661523,1.648328790860544,0.7437171896525316,0.704515221622347,0.5464829256625776,0.6653285253756378,0.64002740749105,2.094134877521508
0.48799022573182677,1.608784589024436,0.6565906929082604,0.5649569241280147,0.46558750301299545,0.581118310544925,0.5657790569162359,2.0875223280510404
0.41165935461617054,1.6473258504092845,0.5797972976804842,0.46061493130386233,0.41309150033295444,0.4858548625663189,0.449926743288684,2.02104692893986
0.5014222926312665,1.6302435015442438,0.7033131665296656,0.6813731753389352,0.5679724074919784,0.6917337627572199,0.6556710303181893,2.091663252075674
0.48375318525513067,1.6335889330185844,0.6939697319659515,0.6408505595192218,0.544399579791167,0.6858930796724438,0.653559161118154,2.034973259409374
0.47957499748841287,1.6612556565651766,0.6561450885009164,0.6193750761727138,0.5295031648433669,0.6131807091240885,0.5838933217687892,1.9973133202732363
0.38887782799406284,1.6077100158933686,0.5788817439362771,0.48078321527809087,0.4459604423836505,0.5790655025206601,0.4857605001904264,2.0235045052820673
0.3426099373330225,1.655460051443654,0.501391080581999,0.4398459959799079,0.403623248009479,0.5114064445681606,0.47985235566305934,2.0727078863954405
0.4297014772337009,1.6614378789657422,0.6556569119527604,0.6096015030085029,0.5688512897687082,0.6981218259807933,0.7040964966570654,2.1317036991453233
0.4007412780565899,1.6328025412725098,0.617817155188257,0.5775134001224212,0.5237458483688566,0.6914975055857091,0.6602736981563972,2.0949844177459678
0.381877703462128,1.6166442155810448,0.5530098100909387,0.5328667648474759,0.4740317774599806,0.6280592222043726,0.5952601357027739,2.072541816381989
0.3234729694146075,1.587201439608744,0.47295021306088897,0.4040583353158973,0.4326509469498845,0.514918079275311,0.4485287278090063,2.0212680026351695
0.3352985569357968,1.6243506155618455,0.4910485040220042,0.4125819442222354,0.4428115508595822,0.5328659352453371,0.4564884283346383,2.077412996810789
0.3526778864599942,1.6431264589434087,0.5331109973366274,0.5208065706902207,0.5006377526607536,0.6511327022133867,0.5916705388829859,2.175446100794081
0.32230330368136123,1.6086556615394656,0.49370165161980223,0.4107543779511576,0.47043291192481074,0.5507332554739384,0.501846950202428,2.0305957489521984
0.25757674275925424,1.6275829009102516,0.386769328992204,0.3306988269265035,0.39631373180435786,0.45797332736702173,0.3962298517764624,2.082698357199903
0.1834373320590633,1.5840263038605114,0.3027945690738264,0.1914405703372272,0.27201831299622864,0.2766809759759649,0.2710753793465478,2.0042186995445497
0.24246306262541117,1.6173140121688647,0.38483009623556985,0.32058053391181895,0.3401685663857023,0.39881428948714176,0.3753317850733572,2.1071714384203997
0.2318223531795795,1.5785424805896433,0.3763247005269458,0.3160898521775022,0.3774179907079357,0.44766934523210306,0.3885064934332401,2.094025267901354
0.20455898365809444,1.5743944965285919,0.34946424921625896,0.27200962572140386,0.30705766384473093,0.35605128118887497,0.3614200802333686,2.0796561011056207
0.18308025529730207,1.6021767117363148,0.27720412996255367,0.19002626464793015,0.2089869542545575,0.28546218301726395,0.23272201380574237,1.9893231972493883
0.18038067501618812,1.5798568670952977,0.27827096894644554,0.1808610076626965,0.18906122730228886,0.22940689954196847,0.2128105844632584,2.003120499010904
0.2703683622417068,1.6099418289294025,0.40521012578353816,0.3537656862559529,0.26259651855635724,0.3517616010549581,0.3664157573026055,2.049670622063384
0.2880805928688902,1.6170044131302739,0.39071004731570014,0.29854533801363,0.22477944946117143,0.2812872893544345,0.26435212998876273,2.0583483316089177
0.26363527170780165,1.6063219335560242,0.3472821931912967,0.2649364533746711,0.14928422459639773,0.1917428952961622,0.21060866118646815,1.957303794510043
0.22645524268203954,1.5765475071539246,0.2889800866344687,0.1654242602039424,0.10112078286609713,0.10823998650946497,0.1189429510914298,2.0453096487558873
0.31061616237436307,1.6213309562048774,0.4387417880040956,0.3877740558404222,0.17182549474440179,0.2426931901423264,0.27075870709603544,2.0142856420841464
0.3250724730220658,1.6459997122731198,0.4217489045357722,0.3547059522227967,0.14587135449400265,0.21800676757890758,0.22307339281769867,2.024417903683401
0.3125628550818354,1.627342361834681,0.40310545905214457,0.308861179716775,0.11048076513242384,0.13084227609859989,0.1546548537349926,2.018626747269079
0.2277297955153363,1.591895040989601,0.2771538577399469,0.16817278117919515,0.02209467643556559,0.023416844760572136,0.03779473268811814,1.957106404017751
0.23490811789035593,1.619780522977241,0.34306368722168973,0.24230553275272265,0.04528419551597346,0.07472618852373206,0.11554962634039248,1.9296680767839312
0.26718901512475945,1.6085877561835586,0.38298210331375115,0.3239010426402127,0.07456261810545864,0.15560209501310968,0.15598408343406,1.9198579259254394
0.24277611432615556,1.5906990107932417,0.355996156755435,0.26116640723763906,0.04894763256343272,0.1272495520071287,0.11205395058040943,2.0623597945150514
0.20020322952589398,1.607459229749558,0.2721174983945234,0.1598714704923816,0.0049739542585079954,0.057146465901731176,0.011245852395476638,1.9720323804466142
0.16082605303799177,1.5979912994822332,0.20978912617106688,0.0771551827164691,-0.04571500378455676,-0.04393037948198399,-0.02935673384954275,1.996564612520846
0.24465070751485204,1.605608670003657,0.3571493274244698,0.30139191147974864,0.052481050839960824,0.11374963080729492,0.14010816335928866,2.039508199143667
0.23781926349799365,1.6344277305752657,0.32587013506879864,0.24458909284691666,0.006179897957226357,0.06936082021177623,0.09549984374415749,2.031232957671242
0.22139867703837418,1.5870722237189192,0.30911265765658913,0.20495767099054915,-0.014383984741960044,0.05383390949703102,0.024363486775855495,1.9763712786708225
0.16266187943141308,1.567027967322855,0.1918187041083768,0.06832288190667454,-0.07015781611083638,-0.04915152338551981,-0.03620143239150371,1.9629801899640427
0.17247054044974702,1.58300252710948,0.2196646750374443,0.11207179633512312,-0.07151144961760808,-0.03989792677249214,0.020868514823393247,2.0428164608847066
0.22012232721195993,1.6042359860714195,0.3233410704377346,0.2681698447769034,0.007121402084764791,0.06629883617580692,0.10002360374795277,1.987870056862014
0.212056933105504,1.5959808648992868,0.30666128388158365,0.2325766343987975,-0.03247679280984231,0.03301337931169657,0.06485617016523791,2.0080330875712513
0.1737166920244289,1.5790641629588968,0.23585917067057738,0.15229274983754862,-0.04216353731361856,-0.026635824044888144,-0.015947671075845937,1.9049004880875038
0.12585678029751246,1.5970063232655267,0.16537030236211842,0.044591973779335575,-0.09624547010725656,-0.10188600073657622,-0.07832723998980311,2.0127548038605565
0.2011857414927591,1.6137958254861124,0.2935595573468776,0.228906523291865,-0.014683146923420792,0.048506386114124125,0.07042025336160829,2.0059709074206307
0.1809436405713274,1.5779497240411595,0.28933554010354245,0.21634383199534812,-0.053040280077595495,0.04176813494190534,0.04753500318206529,1.9771220164849221
0.1670919239056801,1.5878623182038512,0.27807831384592574,0.17483004987975542,-0.052102525136204614,-0.005412324832128749,0.006588025825251642,2.030839264175482
0.11556882880009857,1.5916942989496017,0.18552500047815276,0.06933591699099675,-0.10951479069470227,-0.10272782800438011,-0.06164873826946633,1.8839244875430057
0.10711008620817727,1.571062768353542,0.15907411122578288,0.05627547625323581,-0.11626182139059277,-0.10309985325610263,-0.08834127181763625,1.9369438389409703
0.19015125205879385,1.5945428576419138,0.2874302820349882,0.2405837774316631,-0.022800676899047287,0.05884842627332663,0.05664572087375911,1.9066520646539145
0.16905140725327913,1.5998645663567648,0.27704276459915145,0.202500445212472,-0.05939230567928757,-0.0057755681833477485,0.034715614886841994,1.944795869307849
0.15335428777864657,1.5661361290919347,0.21696884173673375,0.13617011758505546,-0.08979426024196917,-0.027127806385197885,4.776163588471327E-5,1.8803284013759691
0.09459853452108646,1.5598585426290903,0.13010991084411577,0.03823224182450411,-0.14651272066473117,-0.11759393865457984,-0.10573169337674383,1.9691059817386605
0.1299555818128405,1.6055079250284918,0.24743117806936205,0.17845772068320206,-0.05369921991561351,-0.008363113544810306,0.00749237554967537,1.9747371889882117
0.17042012552665872,1.5894445052293347,0.28028911443538784,0.22217379420212913,-0.03130116910825139,0.014215557436845768,0.019258984530064832,1.9552787879452032
0.15309869086619676,1.5770074706869295,0.2453374696445369,0.20331194770134858,-0.05616253944861335,0.013864834832720049,-0.002632913394852998,1.8700624769188798
0.11938155426553834,1.588792307434194,0.19004289561576887,0.09758697339051767,-0.11290951783062048,-0.06073735578435822,-0.04774990111280729,2.0136622822765977
0.09250372914141243,1.5613840841369173,0.1764634341772728,0.0680460230423608,-0.13662071019941593,-0.10248388662872404,-0.08203496957199605,1.979856559478799
0.16886568413476957,1.594238784480609,0.29229047315891504,0.2696505145911815,-0.02248555319136688,0.014988905373102067,0.04146184891553134,1.9798443995976265
0.16089427786875474,1.5719867046361673,0.2532090553509583,0.20632276718669548,-0.0758433623824666,0.025455327246768557,0.025428294839538804,1.9748294266060733
0.13786758367428303,1.5728826830710336,0.2227448592408297,0.18184759759052535,-0.08782601734122338,-0.031992861960111134,-0.04377428957636101,1.9518889464156395
0.06669031732011688,1.554980584092498,0.16452215543120985,0.07484994418327043,-0.13193668732840064,-0.12924118776383614,-0.1071013135901238,1.8742601773129548
0.12428862939508238,1.586332349732899,0.22976793987703176,0.15843836239365924,-0.06965964990634625,-0.03964982412347019,-0.01810867343539302,2.0040174444929137
0.1670997661355416,1.5945024361656766,0.3109313404260534,0.28172473868141573,-0.01909099151780979,0.06229582452929697,0.08409666121425119,1.9326107677209357
0.1734104211711936,1.5809960291407912,0.27718281314094495,0.25237371549910403,-0.029840190538683795,0.01537360970378809,0.03601302907223819,1.9379832687709921
0.154044047934919,1.5727260056913361,0.23902916139691982,0.18450627096186756,-0.0587974196968973,-0.04142630104180878,-0.016270294309156844,1.975739762471025
0.09759827453001832,1.569475529755891,0.17856220701396652,0.08004883547531567,-0.11645153037013439,-0.1048017350624639,-0.1030712735530184,1.9639141439139676
0.18427892718094296,1.6149420295896002,0.30498033499209515,0.2945862667987516,-0.015159789314088713,0.062647862721953,0.05866434761072281,1.956863842051774
0.1974976125759462,1.5839569571012757,0.34985878099399503,0.32080300666904715,-0.017907218978741896,0.05274597243252312,0.05754519945530354,2.0504489107034694
0.19444813116848753,1.56796576922686,0.31559265360346184,0.29234723696084064,-0.01873617358517654,0.04499367154419933,0.03571411930105872,1.9909181791454365
0.15035274807606397,1.5917272120218784,0.2479358678868867,0.17734387382292485,-0.08690206465844955,-0.02831555449627097,-0.03571218330123353,1.9656042194882917
0.12300045368361762,1.6031708470617363,0.21329190108998713,0.13501869780250492,-0.11056567210963385,-0.07560405913947899,-0.062485242855263176,2.03812469199834
0.24427073911714092,1.5933732119085384,0.3618657605190363,0.33523500820913527,0.008468623244960533,0.08547334001326415,0.12313553836559336,2.0376065635879006
0.22809641168315176,1.5896963990055801,0.3512521040109348,0.32653446168268974,-0.0064613433139868726,0.061851026305258364,0.06248968498049893,2.03138041829712
0.20680639175528187,1.5934113239225938,0.332277299005735,0.27731266779966635,-0.04252462118069872,0.019308944900131138,0.02212920043234111,1.940163797022358
0.1630447387823531,1.5850794990161585,0.256695268622127,0.16275259861869942,-0.08915474738971738,-0.06038171888836984,-0.04997505918569546,2.0088130346324142
0.14982116715590726,1.6177352531694118,0.24146474832097725,0.18193954368808476,-0.08111643720680228,-0.055064718524737905,-0.04778341742932203,1.9619369009112488
0.2563649126654731,1.5971086806382666,0.35992894596810165,0.3537682815076948,0.012170538521966257,0.08859273101346317,0.11133107354260738,1.988567669038607
0.24785042284906,1.5888213511052998,0.3667354956730397,0.33883472131475534,-0.02090108582846842,0.05875028630552036,0.0839575128867002,2.0173370561768245
0.19355744216685614,1.6052698727044108,0.2976217585051875,0.24698057637509452,-0.034851348396832814,0.025602302281224357,0.01991157331541607,2.027083639770939
0.1632616418355789,1.5676767181500524,0.23653783633435171,0.14029907887190043,-0.09573901086026552,-0.041248430695625615,-0.08082515296980658,1.9754883757916648
0.16943824108214264,1.6130452123070511,0.26518399675984117,0.2184689214756716,-0.05612121948495479,-0.04338204146456367,-0.015915429566594766,1.9982081313900524
0.24281045975249263,1.5730678746278677,0.3821852255805917,0.3359130382159947,0.030232877246428036,0.0752823872168194,0.12134331182232092,1.957680059955778
0.24433482031469655,1.58538534915024,0.3481216837129749,0.28361028491366547,0.004563422145936302,0.06737800157317846,0.0883106838368524,1.9892446341958578
0.20776273214287075,1.609111193861691,0.3048934122099988,0.2117471307627877,-0.020399846098719254,0.005247473216579885,0.024074002133840394,1.9558248604017903
0.15026268502483925,1.5668902129146671,0.2118285850851464,0.13066296256484777,-0.07815618369545689,-0.0703100217345376,-0.06442066956888808,1.8872407170645682
0.22935112932522964,1.5984593643446097,0.34335521131328517,0.2876866767397289,-0.008029744783552298,0.06432444040730374,0.08312487995917048,1.9380297259623487
0.23827799839677039,1.5796085626955079,0.3383952877698624,0.30940108096646957,0.014772588857910274,0.07005269428531787,0.0828506187424043,1.9500321335283128
0.21194477576893378,1.5703445339621696,0.3214449440303121,0.25519322712905657,-0.015200757146391283,0.04468653420689473,0.02995852119378322,1.9607326709780275
0.166825854311015,1.6022052061685024,0.22239466086261994,0.1537027013860725,-0.06051917117928165,-0.06581271590336604,-0.02304376490458629,1.949299340225318
0.1481456003769832,1.5811269948860918,0.20491373765933635,0.08423888405226991,-0.10608009365834928,-0.08407628862168806,-0.07723317532263535,1.9838829178018482
0.2499856385744794,1.5809609438828127,0.34377988541649296,0.32692437538458896,0.05697227404294923,0.09874035721569792,0.13126507173945495,2.008381955451876
0.24304608673033604,1.6016884141102565,0.3381604394487906,0.32037979789390003,0.03648138580628507,0.12514939005832382,0.1101423301768452,1.9813033353481817
0.21635860435226437,1.579538251983014,0.3291671693828786,0.2618931800779541,0.024604977306548342,0.07440142594914922,0.06085975002598589,1.9236124370334773
0.1679828436084692,1.5643151763839844,0.23174392359860874,0.14136498555572893,-0.0700824836175996,-0.01758491957154545,-0.04577925893540362,1.925784128024894
0.18284135634313678,1.581392030678166,0.26737224716704033,0.1637147901272377,-0.030795222324083715,-7.389373582610131E-4,0.008538928282570413,1.917825520792115
0.2685541364731424,1.6066951017776077,0.4049936887897237,0.36169703193549907,0.056192002775783206,0.16792211610447305,0.1400072920800107,2.044634725691603
0.2598426619227496,1.5988224627746683,0.38646362298782344,0.3410915480130141,0.06861228406096669,0.1355377332392188,0.12250845254706269,1.9466750016314343
0.22896804773425206,1.5735188510613451,0.3234492331818915,0.2730729741542406,0.058186187538030704,0.07166179221556773,0.06350554615891321,1.969325489757018
0.17750540515767893,1.5991444115863793,0.22406809912491424,0.15261559567032934,-0.030371896206127943,-0.03592709236206132,-0.020909716129128633,2.002552665628893
0.19177810919901997,1.5896616748717498,0.25850206802274506,0.18468678919719891,-0.004041131607619694,0.0059964601429271375,0.01963308644947484,1.9551493855362194
0.26801977715366415,1.5941363877193448,0.37479458697833506,0.3611285007819579,0.08107533219587443,0.15266923708050353,0.15221216534651674,2.0270546990311087
0.25684909732781713,1.5893569909924694,0.3618324556460861,0.3232763006873264,0.0843270315989021,0.1338611118424859,0.10976702752166231,1.9625074405971006
0.22365554816869224,1.5802904093593548,0.32155138217811763,0.24888069901608817,0.011119546955303594,0.0816935510498587,0.08088901631693896,2.0004810962118302
0.16198306873767354,1.5824043440757651,0.23481932972185848,0.13144745442682074,-0.02588690904645613,-0.03899193233581422,-0.008004714864267473,1.9763544857116049
0.23919247236277505,1.5906330198318945,0.34136818980439043,0.2767692866233441,0.06357006250512488,0.10147596634718495,0.09899487606667849,2.0554204987469724
0.2836704194593128,1.6016679057783858,0.38336930787060003,0.3647270850635329,0.12426620936214736,0.17089198536236383,0.1728659808287225,2.0093430322921026
0.2678802884237508,1.6210739668984044,0.3746764641777336,0.3128798882272322,0.0898637925912595,0.12631687865475336,0.10734193395807393,2.0000858233037513
0.22795291525398487,1.5949658855299613,0.3296391673042941,0.2307800840019301,0.048385140677654925,0.08144243846985572,0.0737874650438519,2.0466467106816424
0.20221693383498965,1.5891073858316513,0.2622575066727745,0.19084173255592535,0.004501951146090824,0.02674013243982379,0.036552470378248526,1.9268550439403735
0.3060127564731954,1.6231648445632463,0.4438124890532381,0.39243696952519,0.16430985730931147,0.21413844376737243,0.21049360759269625,1.994311550699213
0.31013986014504047,1.587250785355515,0.4346728015688721,0.39176744429396915,0.15272503769415777,0.1926085611651559,0.189062680117011,2.032769577683923
0.2908109566652523,1.5884493371559951,0.39698258469498915,0.32990689294925657,0.10052266296198072,0.17194657983624456,0.17220390198530205,1.968755283021094
0.23197793392234692,1.6039647676625064,0.3273203963846893,0.2198820175925526,0.057874185635906544,0.05085912586692001,0.04506575114959165,2.0030205991171193
0.31348390942875065,1.6172653110321735,0.4152100844192998,0.3877013776036237,0.13420553292936044,0.18008881124994733,0.18238685095598675,1.9302191502299297
0.34468658679709563,1.6344236805208598,0.4833588417911553,0.4262493103770798,0.19627567854478656,0.26085451292935086,0.24913656421336033,1.9900600638583046
0.344167105910941,1.6295118005819045,0.45503554684675684,0.4142537489643233,0.17999572598511454,0.2544922402281107,0.22089854006254095,1.9464515033107543
0.2914752758930777,1.6055686152263375,0.3782442901177506,0.3004909329809709,0.14988435473323164,0.179084056333182,0.15511649329104238,2.067403007913456
0.2678127597917854,1.6126795670071532,0.36643145282587103,0.2598980713503149,0.0973828610085467,0.11726999489346615,0.12657461740774661,2.0317428418953853
0.3666137734311568,1.625451232365006,0.4976468427831339,0.46415272663812246,0.22514092312114375,0.2852695597046302,0.25426646985912515,2.007655009146464
0.351270682418753,1.598101198740117,0.471795773845591,0.40953902776279816,0.19061041618783234,0.2897786083891086,0.2503827020316542,1.9531489163107505
0.32881645712453883,1.573244931974728,0.43363278640571634,0.37075384513629595,0.19520332091675405,0.22822273888726566,0.20497829317474242,2.088093272622785
0.26090102900061785,1.5933892689730391,0.35775014574975544,0.25876966662124173,0.11873647716567882,0.12622485087972005,0.15867122472856493,2.0023152494734906
0.3138989708292197,1.6212215720879795,0.4070536846634978,0.3540267906472857,0.15610549227418663,0.2138272269072345,0.19351769749818812,1.9953661109694287
0.3562186762854673,1.6194341392699545,0.4996507736739836,0.41687816558677165,0.23841992194107572,0.29874000901603764,0.2919328427869414,2.0627160192574916
0.3511631550352268,1.5964130729206927,0.4499109692417016,0.38259628435069987,0.229262881850498,0.2670473290341678,0.27544758180755796,2.1203044019582724
0.30536502117578584,1.5833675706053119,0.38591031584521507,0.30594793456954683,0.16936628487864036,0.18491847652253748,0.19702422999304314,2.0047681399025286
0.24894809433907453,1.5915752336718199,0.33236752634094224,0.21733811210108275,0.11104719401714917,0.10364146433724096,0.13749387154805212,2.0372040909097233
0.3422873613544553,1.6022222412124665,0.4360788514552991,0.4060869124876756,0.23447839029275996,0.28141595139357223,0.2684104131749915,2.0484746913555156
0.3042203233086264,1.586790068213268,0.41346035776784,0.3335851727022673,0.2055540042505294,0.24121941264400673,0.20810860612371834,2.036983283900644
0.286224959666246,1.5940606352209958,0.36276023356948534,0.25632505862091925,0.1664875419169202,0.18012236438869422,0.16254255788368638,2.0452008241967063
0.20119885032456597,1.5701382400220936,0.2587831964350601,0.12553629664285748,0.08256393661063524,0.08624820192831667,0.06786813701978005,2.019516409521293
0.23702351214599982,1.5621295416311358,0.2926459560137824,0.22231212968850714,0.1250433752850126,0.1577011233721453,0.15927170422388293,2.1106996513242096
0.24607556493423158,1.6061102229724884,0.33952305007688205,0.2834468791352279,0.1960385220223042,0.22073864143449468,0.18186236904906683,2.1016733665054526
0.23086980639439192,1.599083578749848,0.3033224787406272,0.2318581595216427,0.15659179882901778,0.19607459576732525,0.1883445780914389,2.11473710542248
0.19193614678872623,1.5526383626415448,0.2381998446041456,0.12817545778636702,0.07230762796673014,0.10468336088330502,0.09482937839490353,2.023692228109485
0.18051520018923226,1.6042652903682382,0.2471061735106073,0.14326469218382878,0.062281635164011445,0.08431512432494875,0.07851735880692347,2.0231001555880956
0.28740293454243343,1.6269220557369763,0.3753624020380487,0.3359113059034847,0.2026854224019667,0.28332023847388627,0.2513809102238818,2.0850241465906647
0.24227307751450108,1.5694159086788515,0.3304462985305263,0.25996179447299855,0.17534675939315086,0.21943861873856116,0.22724733786375495,2.062839050672686
0.20076587525566372,1.5803590511508623,0.2942149296898261,0.22513821917232785,0.14281702949678549,0.17016028222826138,0.1760542335029232,1.9857297899816535
0.15788783223844352,1.5832844109639748,0.2183844942728374,0.12055064324460493,0.07692885783639508,0.09581650300815107,0.09428579994158563,1.973438265863164
0.26407059438206,1.595706889131268,0.3816879279935499,0.31600820682046976,0.1884058801852047,0.22638588945505161,0.251521243123537,2.0784186778748333
0.2413276170157072,1.6036504591364302,0.35099043084581216,0.2945437686140906,0.19329826509367665,0.24687240940626987,0.21406964176248894,1.9730840735817357
0.21261286742268182,1.5704226148559985,0.32050042365011105,0.2449929180743463,0.14964563345898635,0.20502897915122312,0.16140579969972757,1.9723523268006855
0.15705895288295407,1.6110961989938388,0.2100491088232429,0.11486373901892613,0.0887593523650043,0.10712735499335072,0.11488808231206751,1.9916064328388154
0.2303437529881047,1.5874776621540443,0.3552928824374176,0.28974035662363323,0.18577938041717842,0.2580923057036082,0.22992298936940647,1.9394315834169231
0.2186036111170414,1.5680679034731613,0.3329123373397652,0.27678865194668084,0.18136844541158734,0.25183938843203907,0.24130678410510942,2.0599783701643912
0.22377135767599474,1.6117319865294766,0.324461583014648,0.26711562864576793,0.1804465230130208,0.216142217138819,0.20556276874230606,2.047867052994662
0.18131105438731335,1.5898269549984305,0.2614829104909414,0.1667378885434325,0.13930638220121877,0.16588055489668685,0.14077007006120273,1.9469289009670567
0.25713138356280807,1.6079688985402902,0.3758745803701209,0.3434838252492028,0.23760058007080326,0.2890355858815755,0.28219966721150913,1.9949451396240006
0.25539164164543493,1.6221467269234946,0.36002579261440293,0.3099632776977436,0.19405806245431456,0.29318893853243644,0.26243673424955555,2.0287269137942
0.22335520031394787,1.567502237020367,0.3520614392883128,0.28372637065482864,0.19552942018123992,0.24681139068208796,0.22331220277810387,2.049396090366862
0.17482593332052968,1.5788212294211144,0.27452983925793795,0.19545809307172568,0.149503912372445,0.1904643229961749,0.16738729285966805,2.097745146259018
0.2759649858355284,1.6217515997976844,0.42468228817813275,0.3975351824385445,0.25907675985263934,0.3382441226289127,0.36462550369137314,2.1127234999839635
0.27837725450141604,1.5939736816231258,0.4266794397305502,0.38360067183150875,0.26180398739593436,0.382461670209221,0.3710298243982328,2.0882042849289935
0.2684118363523451,1.5756601390378027,0.4021790904558712,0.36730788611084253,0.2701719315420495,0.3505905353535066,0.31103607408058137,2.0220070806291752
0.24625979932931413,1.592348772380951,0.3577924481955353,0.2953841994565543,0.20903101048793027,0.28075992920740683,0.2487966781792081,2.0701399486540044
0.3276190854060261,1.625693195126586,0.477537048889348,0.48134503649955324,0.3478953972163476,0.4432320863631797,0.44136381697627913,2.078196642322774
0.3351358080034932,1.6177770836156666,0.5069606839268673,0.47929755233416965,0.33370805897100725,0.46185573791419554,0.4451063757524698,2.1408626500270183
0.30090176106841954,1.5807571345465028,0.4721900923303682,0.4431805655432605,0.3401482520314191,0.4063110128474031,0.4008606939788927,2.032980896785212
0.2695875836419587,1.6230669741624784,0.40025034685625943,0.3663997961288898,0.2687506189699772,0.3300124409319267,0.33063650005008416,2.1161313530269625
0.3595963613534345,1.6428550912427689,0.5521887508999331,0.5338372831722032,0.3663809606862699,0.4781519531749178,0.5009392254256636,2.0941833238166256
0.3624645325380551,1.6057347281351446,0.5305932793010509,0.5456179056232482,0.42348877968979853,0.521160060372164,0.48456494496291486,2.159428938617187
0.34788298534727563,1.6174365258047927,0.5232427249692737,0.49632536746336575,0.3741850893712957,0.49039850417088615,0.4787453193716076,2.155612383336896
0.30811023489536893,1.586374818527525,0.4350308991240066,0.3930638615093801,0.2933698486458678,0.38705967827898585,0.36790726288470177,1.9933922095546246
0.33330398228937896,1.6138208536741883,0.4975085748591823,0.46772342856036914,0.3464425655348024,0.4446772167498316,0.4298633580924351,2.0287100708184935
0.3665145513040907,1.607336001793597,0.5651526768451862,0.5539526451353274,0.41317230880146577,0.5554615677616619,0.5070220840618049,2.121946200994849
0.3444792609458231,1.5980285621648567,0.5278163308626185,0.5321245961478679,0.40889775457717425,0.5089137681831964,0.4875988033147596,2.145933623294498
0.3041047555633112,1.6089178268818831,0.46879610371331054,0.42704301947581214,0.330193788314067,0.41805520138627383,0.43328435282306127,2.058969794872808
0.260133088598411,1.5960344526376413,0.3807539723831101,0.315110793522286,0.28140101972912457,0.32533524527451413,0.3010975517598795,2.037987973423082
0.3285218917580814,1.6285450967255959,0.522899139989203,0.49420921773732635,0.3598473273036957,0.4887480047945809,0.47062092047788906,2.0433160040531324
0.3190773670189774,1.5893673814514138,0.5011105879796428,0.49433502905632437,0.3512981748440215,0.48447437020213824,0.47172488269222335,2.0334082628809282
0.321096775013097,1.6002706274020915,0.4704011456170926,0.4558687734482836,0.3482162391509949,0.45429607950474116,0.42178134652326116,2.0069324857523867
0.26646895394550474,1.6014864760860996,0.4007419212340125,0.3357399173218706,0.2821946636958536,0.3550730112440158,0.3500582628988578,2.0270388412897646
0.2330821780054964,1.593831102646841,0.3526944301332907,0.2767084092047761,0.2574071026130855,0.304921668591413,0.3084755303244013,2.0347013253968593
0.314590988828136,1.5941761600315862,0.48070399451567464,0.4767624900393464,0.36777291321270844,0.47421071171445456,0.45205612666731876,2.0861626090478205
0.28964783269732236,1.5887786628947251,0.44481889231176824,0.42277005414623103,0.3118013502897205,0.4002324182355919,0.40798702856797553,2.0570903266968132
0.26649206794067287,1.6146550573558747,0.4000356672256231,0.3616297641538676,0.28149267855604954,0.3635061151922309,0.3376015061878801,2.0544754514038246
0.20768199935524184,1.5959593499477336,0.30719836708307613,0.23830809991667076,0.2196249317643565,0.24613062235318708,0.2398909422279404,2.0275214847269494
0.2238815232571102,1.6031628393976602,0.3420630004516706,0.2648320937229461,0.22851446830213828,0.2557202365652418,0.2534648797039296,2.0320277021317352
0.27529797948361645,1.5926701095638476,0.41913268664034087,0.375808156446892,0.289431648652992,0.36810453806841686,0.34808645031718044,2.1360708390584593
0.24441706595855814,1.5877892564087357,0.38148114507482656,0.30055766155146435,0.25193443137896576,0.334004004699347,0.3065467914626534,2.084517405837046
0.20854930489079612,1.5743963987469605,0.31090992565477554,0.22415184068976346,0.22553291314265583,0.2658891122900669,0.2404226614618865,2.034215662669715
0.1381928389291816,1.5986354618579968,0.21526824431782926,0.12341015751179457,0.12213639047338411,0.154841973258191,0.13647510309899344,1.9975868698836412
0.21955108045078636,1.6050304770735473,0.35868497680690115,0.2862893683906653,0.22162723648042199,0.27406747998583864,0.2548914963625406,2.045506626767286
0.20785038959788163,1.592162522406503,0.345827333616556,0.2448996951566033,0.18591639930903842,0.2613656131461657,0.2491905835292214,1.9961458789532596
0.1938052776029774,1.5720515589026376,0.29883089438141586,0.20547106576322116,0.16389639672499906,0.22983968581732053,0.2370310209838409,2.0432790197127955
0.13599284926599903,1.5870002250271935,0.23124674444073257,0.10033749870161683,0.10454856476609832,0.11770334046753642,0.11962241217734251,2.088617497672206
0.15880544967930388,1.5611110841133136,0.23113648277644142,0.10747376560185841,0.09458085337447972,0.1314071955054188,0.1171176177278899,1.976654255344459
0.19133873540025026,1.55783895379463,0.3063283383138405,0.24755119193243694,0.16698234956682922,0.2595655981530749,0.23607468465591755,2.0270366408981864
0.1790053188449154,1.6100317011996865,0.2869795242185121,0.1973384742071523,0.1513459251601035,0.2353752099611485,0.22998578067183684,2.055343331942379
0.1577312755553027,1.5823453615441991,0.25724431647834717,0.16233574834214567,0.14618884135725632,0.193744561411213,0.1709800618227767,1.943987867595145
0.14066979940186733,1.5684323260529685,0.21412650639714964,0.11452784743145186,0.08739911747153313,0.13023042880033373,0.11392833029499873,2.0310330503157896
0.2170113865493131,1.5945181532088004,0.3414713057827267,0.29402134954249615,0.18034689451952285,0.25691459563927926,0.2375348492511139,1.9687250459706103
0.14302435621749654,1.6002301206013665,0.24617421873039538,0.20675682992974484,0.11676389825778537,0.18704443889165076,0.15554406139802107,1.9793696787182367
0.10975056780650741,1.590486785951042,0.2162680269844061,0.14027976679648813,0.06678035828805785,0.1532142307616018,0.10046103315107566,2.006262863839519
0.022775976205606868,1.541069742361123,0.14380331389072226,0.01816128825530631,0.014928776528765814,0.08378910804210932,0.07599981221744449,2.044765008409716
0.09721434813106218,1.5724852172337436,0.2058280342847713,0.1592788395356485,0.1655815935428262,0.23614140758946656,0.19782620874610823,2.038446383419789
0.0935571771142219,1.5725617458738452,0.17963894539921055,0.09832904665497412,0.15939338849009455,0.21805400905156155,0.16885473052178074,2.04098240120291
0.1178487134788079,1.5752642246998234,0.1778992880928683,0.09663841196358039,0.1423024111081129,0.18326400404119741,0.15787040497951949,1.9729113810533667
0.10686999755154823,1.5772435664229163,0.15747330072995908,0.053171700153533286,0.12658369966596136,0.14208506190864634,0.0988825258918143,1.9935471337290074
0.19370521992426537,1.5811586902683772,0.26770886419405704,0.20745255840305654,0.21003742404329628,0.24012391850700426,0.20288854251223187,1.979936088088713
0.18083847018438184,1.6127971010644888,0.24104361365147656,0.15335868095447305,0.1670178389549226,0.17420425749369187,0.14984393357248701,2.042124611968514
0.17051445567631154,1.5732087245667206,0.1966990432868359,0.09273857360799574,0.10527961106255712,0.12247915502759076,0.11909256357463525,1.9747615928701938
0.15868406032254723,1.5925193949636516,0.21376709627231233,0.0817494811786189,0.11726358591186543,0.12072053644326272,0.13115834110987157,1.928711598918327
0.20879737998595024,1.6131889120768954,0.3092433106932143,0.22546989016311753,0.19250788361328947,0.23637374464449495,0.21044896591150763,2.010999760184744
0.19452512420779045,1.5921276159147761,0.26345928453286055,0.19334422904385978,0.17589657921402913,0.2056949688152537,0.21359596863191874,1.9840831326810464
0.1708236268914239,1.5818522718257788,0.22425196687051563,0.13000198708984514,0.13465359752406236,0.16688250550999845,0.17878880478644713,1.976841795598792
0.23723362534763812,1.6037109040386244,0.31875364537909073,0.28204282367785816,0.1954353511176461,0.28884857797880087,0.26835288206139424,1.9848897739354585
0.2665519806098312,1.5976168892395417,0.36245801310527903,0.3174301842600751,0.23443850798621008,0.324705171155555,0.3274563848096738,2.0326707881035992
0.2567353486474354,1.5909930021704541,0.34596609094064057,0.29111728097915524,0.22659923841778185,0.30436576025711715,0.28553962175572556,2.0277083217883414
0.22702911607884735,1.6043085002612494,0.3208611390686671,0.24360546722786047,0.1876632052748666,0.2666504443918749,0.28764634280781365,1.9193887596496542
0.32846185687152063,1.6235216151110743,0.46962064772372036,0.46000114431813893,0.29625415589860893,0.4406226369827001,0.4411597481410558,2.048404547850004
0.3431104800069493,1.631717350217313,0.46598504980211375,0.45210682722225215,0.3134889893905956,0.45762590210299653,0.44841598209087175,2.0370331020851387
0.318400856624375,1.6403442331328937,0.4396907087734546,0.4164275267284592,0.29425104487431325,0.41423582766585115,0.38062193699149044,1.9803315061434201
0.34635513618813035,1.6327688256662114,0.49360843466240095,0.46890511717381156,0.3171340021935973,0.427520255308155,0.4398682748427961,2.140482924849676
0.4182165401643954,1.6174963633212873,0.5744424631480838,0.6135249935966562,0.37691015900031055,0.5684401563532966,0.5590882403045581,2.0624738916872483
0.40880252853393984,1.6460224574838396,0.5793117747635039,0.5801026036475889,0.39147566190800664,0.5455563129072906,0.5620486753431028,2.024842180087508
0.36781166593300285,1.6399328846647259,0.5333064735924276,0.5012733911365789,0.36489932345933623,0.4734221701634612,0.48579208397624113,2.0561781976044102
0.4353322870557665,1.628937670208086,0.6072408107037135,0.618065972234308,0.39760680317766656,0.558859326342367,0.5555457000869456,2.048645666223586
0.4631870102351523,1.6650997153059055,0.6547547497105027,0.6854769286223854,0.4292992782945957,0.6475352561770623,0.6342080532560324,2.0531568007568497
0.4532698087951075,1.6552327742733128,0.633476839111508,0.6541582670454287,0.4389789809760736,0.6015153235128267,0.6068852643094057,2.0815020293130306
0.40639185665528427,1.6325008126052163,0.5711064893484953,0.5477242223959916,0.386364096691749,0.5454298502630401,0.510398255260816,2.0058078376494195
0.4246931079140807,1.6274182816886913,0.6096951903447121,0.5962895408560674,0.39299334674668474,0.555951884017319,0.5239967354099031,2.011469426160147
0.5040208967105323,1.6674090753983328,0.7028747055566411,0.7434297397528052,0.4626504472435641,0.6980335452489107,0.6892339880266424,2.1241966820732197
0.5281213732531193,1.6419985970680522,0.70521595599137,0.7451823595894916,0.48258846008985545,0.6654088192528945,0.6709508266229455,2.1062924094761164
0.49521766581461263,1.643627185935722,0.6856651233198702,0.7146198955926599,0.42989513159427384,0.6219381675074351,0.6504007294800256,2.1148741037016077
0.4681524088291929,1.628063460138474,0.6345408571336691,0.6491670780007696,0.3791554475168496,0.5338929302796962,0.51455698018926,2.1994833304031145
0.5122408348692727,1.6222514326200426,0.7183603112596855,0.7578299462329422,0.4155251591663985,0.6178622311404837,0.617180468635203,2.082001979018874
0.5537566293146936,1.654105318558358,0.7788617902396962,0.828454251233602,0.4695855559068619,0.7231919392174,0.7200010464119906,2.1377239713692786
0.48326896466370195,1.6623383997689551,0.7368133471161894,0.7726427620109906,0.3942876969177188,0.6673933576649866,0.6929487903950307,2.197054583357951
0.3659699755447597,1.6548895855291572,0.5879928127844739,0.6094393709296426,0.34244059351808587,0.5899027932039201,0.5940981412387223,2.1640453921238727
0.2479595648924253,1.608080452173775,0.4742923609268103,0.48107270759099324,0.2805379617003454,0.5120355904726152,0.5059298197211951,2.02922064431514
0.28562827709087646,1.6102121314606417,0.578451427905376,0.6393612536405444,0.36958448633938323,0.6820787026957479,0.6526955858401573,2.1391425404600524
0.29076865870097146,1.6209955007642103,0.5688052216124924,0.5994445587738461,0.36686165351042693,0.6504404974232207,0.6728773749616391,2.1210132733796563
0.2652521257950573,1.6238314189974836,0.5371563981499206,0.5755661019702596,0.3484218059705801,0.6426606985268983,0.6097679592438431,2.0924230431757858
0.20848948607775003,1.600478236857833,0.43232617247707494,0.45224588986920455,0.2834165781230121,0.5153075049175294,0.5188519113742069,2.0938740652397345
0.26532723018040827,1.6161100680795046,0.5139313213839102,0.5626814259156266,0.3435673081511063,0.6294646595835761,0.6171148808237525,2.1017359361924184
0.3041003490689555,1.6081151243294152,0.5732690024061355,0.6111054127830362,0.3837537518020523,0.6487331084677748,0.6635075272974627,2.130611921782444
0.3077996679064565,1.6375336499635267,0.5360666939787755,0.5880084343399846,0.34442388827187503,0.6322041391492627,0.6163224354880866,2.1263969536742486
0.2566269505756821,1.595849756574146,0.4813252747575706,0.4940877835623419,0.2988243710805314,0.5458576810800807,0.5396178734513919,2.1348561651807376
0.2836847934713657,1.5833948286553283,0.5118269697657595,0.5252397433214949,0.28668116430616597,0.5307305247655578,0.5370100229764397,2.136260614557652
0.3618780194764355,1.5833407727627962,0.6202771107794326,0.6851597391533236,0.37402795100422703,0.6772625097859776,0.661325232721792,2.2367859795698277
0.3743953603984742,1.59098356762568,0.6167094735120724,0.6697722786043007,0.37428795913686985,0.6472686837733064,0.6418832807830868,2.2576916109221754
0.34867362470601804,1.5903127344384296,0.5553169685743763,0.6028300639381067,0.30098585729690597,0.5958736754739685,0.5926912611738392,2.1342160521491222
0.3028667429711925,1.5891665797931176,0.4882274696249229,0.5089557898722947,0.2505243749138655,0.48715690294802727,0.48155838404699824,2.135436703495164
0.37887997960325603,1.587474713475844,0.5975156663840301,0.6721604387131499,0.31591413292400494,0.6363982837467148,0.6288160460033008,2.156398183293363
0.3718463748800232,1.6023224099298763,0.5935874685431135,0.6581582162600547,0.3176324031493322,0.5999286106713622,0.6379571352246288,2.1921849212812354
0.3630137011764388,1.5877412977987286,0.5720075135778468,0.5947697066947946,0.2896208753273032,0.5866768060506234,0.5816909566705928,2.1986493147440296
0.3155963023515061,1.5930842605869464,0.5043645573589886,0.5074564653448663,0.2294067207356047,0.4479473103643778,0.47065597172329965,2.170379135103135
0.28218295572323454,1.5838609697095334,0.4774345581269621,0.48044205769023735,0.18723307178577958,0.41927832249207286,0.43120767830867696,2.2284744490592563
0.29821412152420845,1.6069267979724384,0.5362663125784739,0.5758292329747255,0.25594852706527615,0.5398636225062052,0.5656128918332909,2.1452722018211805
0.2922673830384689,1.6165832536976272,0.48959582710486127,0.536145020214307,0.21371938916562727,0.5038146623697985,0.5540002959861976,2.185659297071808
0.24866151983877827,1.5976956221092582,0.42912279959482164,0.4601484174540649,0.20599596293426717,0.4196336062177265,0.4516818326821657,2.0605607877726353
0.21519239009746832,1.5640553711957748,0.3772103518302205,0.3715452454108878,0.13421039809724666,0.35082987184157244,0.3693680064572555,2.1013027954759527
0.33092050271189716,1.5805153680015613,0.525750218743873,0.5862344975508971,0.252978197205266,0.5123789675726816,0.5356609944492711,2.111232859757327
0.3320602126898747,1.5881898173493738,0.5173940144393624,0.5629475666689604,0.22466840595869725,0.48893768448892044,0.5246065860220324,2.1337378092293604
0.3345768284761934,1.5910852627290688,0.5164392746132778,0.5277847272851581,0.20237464201517813,0.44211991127678474,0.4566114156605622,2.1415307438416153
0.27464595666849295,1.5909805055412138,0.425686095995894,0.4230352427528466,0.1381291221031223,0.3292035998841897,0.35861590981357,2.1231293142696863
0.33529368141364224,1.5889004638653341,0.5136025365985596,0.5316154736221078,0.1694111108121163,0.3810073156976563,0.41856510398055957,2.172144800607316
0.3836666363891751,1.6250179896935881,0.5897430654515111,0.6108225337722043,0.2385950591614795,0.5077526959854781,0.5179435021760115,2.2484900968281445
0.3797301334827071,1.610100526879474,0.5849981140193232,0.5832784824879397,0.2160459966385833,0.43611097466038484,0.47268210371716274,2.1712233622725066
0.34160793541407614,1.6008355928635813,0.5090889700264299,0.4979631861855714,0.18872727136965817,0.36072445168065453,0.3869382125584399,2.09869420312578
0.3059627637208534,1.5942338677663048,0.4482188691553782,0.41501807728111534,0.12425817643887332,0.2797258028352936,0.31243663833690344,2.091658815620097
0.4027806276277301,1.593401475234968,0.6105920279626378,0.6411070774301258,0.23229128917048786,0.4715401766413292,0.4722034708193005,2.1210745359849907
0.3933295803389133,1.596868908052361,0.5784587386346812,0.5822299261783315,0.19904710352087163,0.4076406276644103,0.4561558132972847,2.206782022340195
0.34777046483871166,1.6160587086209441,0.5188949058466127,0.5202698319727511,0.1964492530993701,0.37357618257651215,0.3733031642736166,2.18089096124156
0.29285918777101655,1.5657055236945678,0.4338359297888425,0.3936256283780071,0.12760253124819818,0.2570078847897006,0.29473610820818713,2.0876510781617528
0.32173082390010177,1.5956966803293386,0.4948990199626205,0.45876042493760755,0.16614297575571674,0.30823100155082955,0.34365257904196467,2.108837606655908
0.3839546855502652,1.5969842401114254,0.5574370152472279,0.5728848647401533,0.18836764944349765,0.4087901272797306,0.4240779688952742,2.038489404309115
0.3776492621618516,1.5906037411415466,0.5530561037770426,0.5284381665444209,0.1602202061663765,0.36729172943950944,0.36384753793211644,2.1133348442178708
0.32347344285352236,1.5709255942239237,0.4791289386032738,0.4608238329099481,0.1430744204158476,0.32775176817418317,0.3138475777847535,2.1450256479212766
0.30786031172504214,1.6123437479324236,0.4334428300821778,0.4092375250115715,0.10062991616444199,0.25085777425686656,0.2722249505229068,2.1240955755521327
0.4072690892310655,1.6138555236183818,0.6057599532737651,0.5774145191114254,0.20108462701170973,0.3912627338516421,0.41051785023249077,2.2086281390447624
0.37390222403292656,1.5747994583535383,0.557764809491543,0.5107125856000989,0.17665988628102805,0.3431906582068381,0.33667800034217105,2.165008577609239
0.35466194016883096,1.575541509908041,0.5021912982438101,0.46473370450211726,0.1304987662364902,0.28525840149205756,0.3333166641924052,2.141317942460979
0.2965743114604616,1.5674753298521338,0.42486234968422504,0.34447249815917014,0.07462387812936672,0.1937863189790661,0.2301407230499708,2.119822283161483
0.3957684071852386,1.609120692246268,0.5930428158997998,0.5786109805179096,0.18231223541797964,0.38251295373922645,0.39553285993610643,2.075161771397017
0.417275133379707,1.5912347454295943,0.5926929038056734,0.5790615555173878,0.16755853658911818,0.38414244289203003,0.3951815343983016,2.1805353724128325
0.3964976427174253,1.6018045494905406,0.585376321215162,0.5623821548654863,0.19364870745846552,0.33841601387413134,0.35734565177399946,2.2035012797375124
0.3510204901132888,1.6008749821256236,0.4961951649668973,0.45819292642142373,0.12185221263737117,0.27192544586691186,0.2861375746200783,2.1406768732402144
0.37924175344314554,1.6054467498966407,0.5513665167046338,0.5251823500482549,0.1565324157077373,0.31827280894252075,0.33584867626186365,2.233537732048648
0.43936091398043753,1.5952502031748659,0.6537362327885655,0.6602271766006105,0.20735753031476858,0.43360615221005483,0.4490651211377728,2.2716703664914166
0.42029997078828185,1.5697050908021917,0.613904026428281,0.6172563042446847,0.18784691091323807,0.3738699897072964,0.4107562447680668,2.1149634384147635
0.34614353137746356,1.6130964921029518,0.551257744759233,0.49218852803509844,0.16375479916865052,0.3058574207454685,0.3270600624486237,2.1717782352675084
0.2981618979800358,1.588237427842328,0.48722903853360305,0.4457070029569134,0.08166412934571304,0.2617654290374744,0.2832496635538399,2.1666803241723795
0.3916350043231001,1.6251211077130692,0.6142784006539135,0.6243531409778258,0.18918867921587784,0.4208033850530124,0.4307719004457988,2.039808864039612
0.33979912108882193,1.5918501133374736,0.5637597979546144,0.5238158110792197,0.1762926140773633,0.36179327536095146,0.38453383897901616,2.0278766136442226
0.32038325314537225,1.599606884079418,0.4910082536599031,0.4728308761370665,0.10966977269678524,0.30809653017230887,0.30374456384245185,2.0308272089232564
0.23684498350185612,1.642118046983182,0.40791601674650807,0.3401542838696392,0.04231499241325415,0.16809400467844704,0.1794607435782481,2.021214411457112
0.3341439261510437,1.641674051617931,0.5224901561178282,0.5178619014450936,0.15375039132867335,0.34474114327956173,0.33571213374687126,2.0592032948769416
0.3331768924534738,1.6339775153935534,0.5324415727218696,0.5085729571269327,0.13685824348285602,0.33972670486362694,0.32260511021636284,2.0939181364344064
0.33147453162644513,1.6231641575147724,0.5067659530473227,0.4767411396029074,0.12688162594651164,0.28725900856047654,0.3064641490600563,2.078439993038882
0.2830934246078035,1.606404211270736,0.4438012225389292,0.3877041742011812,0.06322958058131009,0.21258663797760968,0.2143423572480984,2.0947813993878586
0.3615810058608111,1.6185102759140673,0.5775256746780352,0.536196316422953,0.16379833582233422,0.3417466848718966,0.34768453891890616,2.0671324189692895
0.3634874229229303,1.65531834876298,0.5764946197115874,0.5379712536432321,0.20658455256516506,0.3286155679846714,0.361994057205919,2.0045121652587365
0.3533226323615672,1.6118766362107277,0.5331563623761227,0.47415661453661445,0.1597478443299297,0.308082904362029,0.33509433627526497,2.0333174640782627
0.27646385638557375,1.603627377464673,0.4118422698881974,0.3662624392414111,0.06873673708431638,0.22961933656857017,0.23947941330786543,2.0194894494401385
0.36317782888460154,1.6128154431602033,0.5722554841047429,0.553010449767177,0.20332111230269032,0.3870280992544801,0.3832947751393175,2.062351579023827
0.3978096614141346,1.6019963766290892,0.6057038100724487,0.5896696920083182,0.21624318017526106,0.45388575196464365,0.46927688077867946,2.0914349181730767
0.3806564818951709,1.6042939149057827,0.5805113545906542,0.559577587530197,0.20165574786921175,0.4079928830661218,0.42668765946155857,2.0972844787291796
