-0.011627392741825327,-0.03823116521352601,-0.031205555054506603,-0.03286462261979039,0.0513602183067281,0.06040720370457059,0.09223966181143235,0.06741107173306222
-0.015039968441483755,-0.04505524107212959,-0.04109814740022208,-0.03495303282670494,0.04083929692476074,0.0515962543959149,0.07919405430649444,0.038766975113784276
-0.034994043597462686,-0.05545303872776561,-0.0463881134877063,-0.05734007050505308,0.029707219651466537,0.021084968402639143,0.031799532428732305,0.03538504348960153
-0.04381047392328244,-0.0324975935644939,-0.08664091560964554,-0.09989173501160499,0.007347837432561291,-0.014461015616469418,-0.016244062421098184,0.028239130925921656
-0.08057188788314686,-0.07665528332412785,-0.11645709700222577,-0.13458242255664818,-0.03659903925216356,-0.05797916372331599,-0.06565207237705015,-0.05751178391328926
-0.11479973956062674,-0.10096262086212048,-0.1476583868049076,-0.1756162003115909,-0.03887424074671744,-0.09788732815188349,-0.12241542555388381,0.013183497368404167
-0.13712521377206013,-0.11106496993721454,-0.19283913517190998,-0.22902392692466583,-0.07508997231014426,-0.14503594448739598,-0.1876831438754974,-0.06879253683178511
-0.1786927745518335,-0.11217341205392749,-0.23849386558318125,-0.2748550698635776,-0.1182733136517792,-0.20736643400606142,-0.26702273018672595,-0.11125114135209806
-0.22136727816366308,-0.11428268164697683,-0.2873825501399771,-0.324943456870282,-0.13814204047871861,-0.2412923454142009,-0.32656526621656706,-0.06968444671012697
-0.11251733482175705,-0.10035574773519369,-0.17498059869086477,-0.2052589273937196,-0.08133624988670768,-0.14082388511014232,-0.1434326332789991,-0.09078909318297658
-0.08389353024203039,-0.08096630933492793,-0.13135790896873703,-0.16958055896323482,-0.05759971586732075,-0.07631104764247373,-0.06323922307591082,-0.08472273673246682
-0.08197391442265904,-0.06777175847172029,-0.13167934515499444,-0.15725562349846672,-0.05244843076483756,-0.06337383119816084,-0.05323535621263156,-0.05570248596958493
-0.09473331006415314,-0.06746199508506133,-0.14514363580473938,-0.17931622110630757,-0.07284858662847878,-0.09920669618985607,-0.10780122238005074,-0.08587277908868933
-0.10578567328430749,-0.08077599742244321,-0.17123833904935623,-0.19884012782745328,-0.10062152525981946,-0.13545767110129614,-0.15369186280943464,-0.11909894263005977
-0.06559800826824705,-0.06761926084343675,-0.12223248017269756,-0.15184216070382778,-0.06314559795649909,-0.08276706578663265,-0.06885512775393496,-0.08242826943368851
-0.05019356804581768,-0.05809939617800691,-0.10940930911123933,-0.13156388346099757,-0.055936384328524484,-0.06484821044580014,-0.05653182837958381,-0.10138893412077651
-0.05927918772335779,-0.05470974250244619,-0.11055603623761273,-0.14183426160466456,-0.05853076831244822,-0.07634065152843514,-0.07830491480590387,-0.10323769301979983
-0.08174607191139177,-0.08943994041226545,-0.12497297384320125,-0.16010354418479655,-0.08556694029277445,-0.1151520970046157,-0.139048382435158,-0.12307150302151418
-0.05202588689131537,-0.05039471307084454,-0.09332251206585901,-0.12440169208085489,-0.0569664839020463,-0.09493382154895907,-0.08857183755102437,-0.10383509696385251
-0.0023171666114085027,-0.013440483949801366,-0.052615911834517706,-0.0709147784407524,-0.030583889871105465,-0.04830418411100311,-0.029514099344123166,-0.057785613965053814
-0.015910110202538068,-0.023694741229392483,-0.045689756109415045,-0.07563933123857147,-0.029225949927460096,-0.03860664040753269,-0.041988076538269366,-0.05079504506977614
-0.024337167360995754,-0.020291270615073465,-0.058998031577140043,-0.07974127541093895,-0.03833405020376397,-0.06264699683330027,-0.07098714565931721,-0.04516965807391378
0.010028877151702462,0.015876456946352813,-0.015872893922286815,-0.03968250971663237,-0.02270375538935461,-0.030043059560374372,-0.026457845635667547,-0.04604743994341973
0.0058228004604291075,-0.002606471599649121,-0.018253545163477165,-0.03616663175007255,-0.018667162354270163,-0.04293630759365295,-0.04091400901036173,-0.038654422183845356
7.614229058585525E-4,-0.014737114854776454,-0.026186172966274852,-0.04201269449763445,-0.02891099235977575,-0.051074836110438546,-0.060271717194424895,-0.03573257825366644
-0.027333182770485832,-0.028284575510985434,-0.06423708382084792,-0.07476404975868176,-0.054591051510629394,-0.09775181760364766,-0.12280778393132977,-0.04696187345108788
-0.06428760765370596,-0.02990616518095654,-0.08005956257974814,-0.10329592999856155,-0.07708699175023909,-0.13698484343325992,-0.16902449590042293,-0.06529797169352243
-0.01986025358862519,-0.0035727261941125993,-0.04884306488312383,-0.07214006182283061,-0.053957400234724485,-0.11086635620362091,-0.1246067208474349,-0.044639353034351056
0.03607853443424251,0.020914734176275984,0.029525652650683267,0.0050892471480787765,-0.003833739634372134,-0.03440939148450047,-0.018473128749570307,-0.009189409291901224
0.04312602101558695,0.027428991801968845,0.04016236602883949,0.023459304190853666,-0.004936408142904539,-0.01628499207765141,-0.002032059801173415,-0.01725066219131991
0.030878101653327654,-0.0040411084419471055,0.022730155982664747,0.013633159224399463,-0.009587159292274806,-0.03307413957717848,-0.03523262796311619,-0.012672054673511398
0.01676864273203063,-0.02274257259664178,0.0024377337048802766,0.0010561137430736972,-0.02919248743125425,-0.06565464848614552,-0.06762198211913883,-0.03627568257786083
0.054064737242426816,0.02303649354908338,0.05316010370231197,0.05069829015985977,-0.004145100840261123,-0.010844579219941565,-0.015122680736367848,-0.019542651012866216
0.07346384304646383,0.06255835557887614,0.06615453838010975,0.0642894139472807,0.008982612738747304,-0.0032429440355972936,0.00202908394715514,-0.004798086206188226
0.07025006828919937,0.03142006790554759,0.06599117513702091,0.0487530591460211,0.013904938080195734,-5.511510194999986E-4,-0.0015441770996276402,-0.018259547081317946
0.047266476501907004,-0.011774428335563775,0.04644851848451144,0.027369070219259856,-0.008678562365352124,-0.024651003532144528,-0.04374071550146832,-0.019590222181181997
0.05091890628794579,0.005400810237415919,0.05742635792875936,0.03968587743757637,0.0074215136874148276,-0.015260348177131705,-0.017538964077602887,-0.0242934559861971
0.0936489729174978,0.044236811228089284,0.10413757816181025,0.09352894512474087,0.03396814183589729,0.04343654735043259,0.05040360363149948,0.009353396930763834
0.0999595409789795,0.03754414644171604,0.1066713581633846,0.10223009397119176,0.05058476999058073,0.04169390368710858,0.05560951900996439,0.003568342140538097
0.08341308082660784,0.03239956663660045,0.08293201173559883,0.07271006448517088,0.048151154059950615,0.03368280203600971,0.032371240630579404,-0.0025758202288421184
0.057699110446081926,0.014845890232821388,0.060861587885687726,0.04964649819614457,0.021886662501096322,0.005013596960255551,-0.01137001030189104,-0.007779218104271832
0.09261158231295885,0.029291378543900914,0.10020629151176795,0.09044435887338664,0.04272065304485259,0.037414230900070684,0.04638954074076829,0.012051973634462143
0.11991963555386154,0.0682239205479284,0.13300417677180285,0.12873048176267582,0.07701602046629505,0.09475619658305115,0.10108794448073691,0.020062124990729346
0.12302830675024459,0.046635296792153565,0.12924981415038897,0.12658918922698964,0.08070294490447752,0.09132538716938603,0.09497676873224026,0.020982778010399848
0.10710397076725872,0.049768412552438794,0.09538014081258805,0.09628699223150705,0.07140455297058709,0.06714907577363863,0.06145327038040458,0.015397617303478502
0.07552536710367311,0.013191948726579958,0.07064792763203091,0.06058814463391711,0.03992832017504805,0.03790789454146788,0.02823527949653331,0.001318163268222497
0.09985294091310509,0.022067187621207948,0.09521130501963301,0.08923534969699203,0.05800930473781253,0.07386200716787517,0.07633369262342567,0.013799914583219934
0.13064159727800417,0.050290318140347304,0.12557780690184037,0.12966356252384242,0.09213710709652037,0.11766800466462422,0.1321015011545665,0.035968164118564766
0.131696501389346,0.04644807812528593,0.13488185590235474,0.13154812745131653,0.10648050208330276,0.11482711443533222,0.13941117636844808,0.040788344118329864
0.10576313408320448,0.025824957527841773,0.10885676615060585,0.09815803845675927,0.09682011419120383,0.1018310083242571,0.10096968812473509,0.033217803319910616
0.08952343655800322,-0.0024456744486239246,0.07535052490218665,0.06939918194666508,0.08087974388686908,0.07263409676848233,0.0695440595742415,0.025921892083965142
0.08185417827954344,-0.016840520705896353,0.06953641977540842,0.08495440505392493,0.07862810911808037,0.07306626927548872,0.0784923521678145,-0.0033393031052996527
0.12056326122601914,0.005666227781226614,0.1166735246026238,0.13000871476542833,0.09067820900092977,0.12974652045098947,0.15078871543581557,0.004908464769071565
0.11367157220456858,0.034068507317387586,0.11169083724588479,0.1234793965747509,0.10207906086506281,0.13532777586553071,0.15498492261185165,0.023885114645873392
0.10412151112021356,0.028239990933141692,0.08056725208070974,0.1032679075687636,0.08483410900193218,0.11617486731997345,0.11547492946741558,0.007033880434193923
0.06353903523167034,-8.174937401967224E-4,0.06441568835360664,0.06846155865284786,0.04909233693842942,0.07884891879933334,0.08146914071784228,-0.04196307477123373
0.04990342492324097,-0.0072509337015133,0.02319345273996769,0.030740946733868256,0.03158610266528613,0.03609364414043625,0.01968331115719996,-0.10312875339058533
0.010955594606773787,-0.04314850692046027,-0.005846106414213964,-0.022910267332930313,-0.020765175621936856,-0.025468634830771362,-0.0463859056953271,-0.17578312128026682
-0.007429320919219624,-0.03666762997127911,-0.03248225177053948,-0.06331162442155366,-0.06973567321607138,-0.07669325280194304,-0.1267694886055378,-0.2996190948928112
-0.04314257019923118,-0.015026510901416507,-0.07207138129647611,-0.11071564676247775,-0.1129939379661182,-0.1356571055192557,-0.18279383504576285,-0.34784055774867106
-0.09185278871808582,-0.06177805824552049,-0.1222481459843975,-0.1720635752637354,-0.12202499983051344,-0.18543129090040225,-0.2541171048594417,-0.27645319791983575
-0.03787444381541924,-0.08166294785128846,-0.07221035553067365,-0.11180126677900676,-0.10528720692872628,-0.13951078834275382,-0.16887586676815394,-0.29166927318948954
0.009566379094615858,-0.06700963450338422,-0.010057836875983658,-0.0303009136679656,-0.07245597656639582,-0.04637907705469534,-0.047186270529965414,-0.28026571164398706
0.007647259002341672,-0.036595186132409696,-0.011043729314731581,-0.03491650271695785,-0.06473980652938263,-0.04598084103421119,-0.03570860463975707,-0.25421049888614333
-0.0030443733832913426,-0.04411174909790873,-0.02837694832289547,-0.0651675571845203,-0.09224385771835891,-0.07228190341861875,-0.08174188110269501,-0.261986421376921
-0.032203283198257104,-0.07312121851110948,-0.0620581484525952,-0.09827572040302669,-0.09516510258962112,-0.11163221055852077,-0.11256068326298464,-0.2649918502177021
-0.013355212164768225,-0.061634617359705504,-0.044691872836798416,-0.07478460295259456,-0.09622973564885869,-0.09650626607083632,-0.08533544070545072,-0.280549329451986
0.011520799566753432,-0.058740682535986764,-0.023066539568359058,-0.057083818904881456,-0.08101525074593177,-0.04722556174511491,-0.03967094357203074,-0.276457200810732
0.008180428842261306,-0.03705854042995532,-0.019150850974340643,-0.058290733358386755,-0.07557039246369893,-0.050342426165880035,-0.05256085958335417,-0.2704765417190735
-0.0021982054721443184,-0.050079597958895605,-0.03879917150658388,-0.07608526205961547,-0.07399293258519771,-0.08721874114804147,-0.0821045567801503,-0.24563029643665332
-0.02926520104488621,-0.08215803332844494,-0.061986959312601966,-0.09298222426862392,-0.10790277524933367,-0.10663712220471358,-0.11730165083999101,-0.2693554242237017
-0.0547931197895474,-0.11815122766832112,-0.1024019776443267,-0.13027558433554096,-0.13105555416165238,-0.14988401008834032,-0.16451772112374244,-0.3246330551218287
-0.08288474213314471,-0.1278253233323928,-0.13665688527948575,-0.17243003970791873,-0.1442800034629836,-0.18490365023330865,-0.2240010933341065,-0.3155326232442889
-0.11641968976963347,-0.0905710170535379,-0.16329591030311671,-0.19417271444754747,-0.16257201424626672,-0.23569662472807262,-0.2962082308180099,-0.26629619900895296
-0.15145393519889983,-0.11337963038017793,-0.20915613471034178,-0.26821991303424997,-0.1906699793686407,-0.292058880369236,-0.36285021994663785,-0.28228922743965645
-0.11160145465336482,-0.1567201012968724,-0.17396379427830544,-0.22067369854162883,-0.18593422878308327,-0.2500620892917088,-0.3101047728854509,-0.31215039501106534
-0.023234820601231547,-0.09992770150735461,-0.07303786518980981,-0.10731705384737188,-0.12897240920103004,-0.14286997676188792,-0.14379800086212396,-0.27916560699287785
-0.008571361649611767,-0.027986666669479292,-0.05272289935043541,-0.08659641439694651,-0.11330919550645513,-0.1215953360525312,-0.12340185098214654,-0.2560822550168701
-0.012985927655183797,-0.01928180147874428,-0.05984227837650911,-0.09991073506554789,-0.10728322128571105,-0.1423705175876146,-0.15962305329420248,-0.1881977214433557
-0.0423347713288726,-0.044522655081002394,-0.08790575017601437,-0.1218458020044379,-0.1281784345610193,-0.17973671490352977,-0.2044281833457821,-0.23688540027880056
-0.01283973964774103,-0.04778673008223531,-0.05327650518250019,-0.09273592015005541,-0.1227824913777792,-0.14894680712261568,-0.1631453716559496,-0.23893362923610612
0.027599192473257005,-0.033548975940377604,-0.02274701691006712,-0.06395885891255382,-0.10450198628453819,-0.11469859335242016,-0.11114345591847777,-0.22455516511596885
0.021485084095729017,-0.02051279006671615,-0.010912159976621517,-0.061891763206027156,-0.09397475401113888,-0.11583247878893535,-0.11272080295956427,-0.18806887310133807
0.008863995867652713,-0.02003245128241285,-0.02583182014812596,-0.08107254510450586,-0.10152384495666723,-0.13432108395528836,-0.15934761640745332,-0.15738925839733547
0.004515734483386574,-0.0465813750209355,-0.031349023400708956,-0.08457124840646225,-0.11226967614160122,-0.1561259980529055,-0.172779747544116,-0.18988003573038012
0.05070412729698194,-0.028756694312360456,0.02249099931649922,-0.019530492724854354,-0.08807662577617995,-0.08992434724447011,-0.09110888653180756,-0.22272715530290532
0.05405810028470674,-0.04006552013061446,0.03577328913959378,-0.003640392588628097,-0.07025588220362539,-0.09807896512339004,-0.08653056126259293,-0.2098194008655669
0.044950086230025055,-0.02091745757485336,0.022611494459520338,-0.021349346192795965,-0.0825832679472154,-0.11067769479453125,-0.10731274552526762,-0.1630780618231146
0.03840349509023811,-0.02873985119545866,-0.006312921781387343,-0.0447598823725905,-0.09368545311630547,-0.14042891557608442,-0.164605555604742,-0.17172534392922026
0.06303137945479412,-0.015205258080166414,0.04075554568113657,0.0067833969951260065,-0.07984992548908537,-0.10928551666467631,-0.11794309772845428,-0.1734733677163312
0.1040704047042435,0.002971183342927966,0.10231748762889815,0.06100820485732324,-0.05692705595807055,-0.06018028005657449,-0.047242610970879624,-0.19040341938954186
0.10835872338464991,0.01991646186108667,0.09469151350538307,0.07028287186518552,-0.03821619798449762,-0.051491891496883845,-0.04703906137811731,-0.17669209691499713
0.09392136205976775,0.006151476945570417,0.08850970082975695,0.048358850402698626,-0.029179475403082716,-0.06642409891503182,-0.08452691563485601,-0.1112573067132152
0.07404512155384804,0.0376520682664001,0.05882484785369087,0.03726526016377142,-0.04014205127961028,-0.09322181576529495,-0.11618612678689479,-0.1367507288763851
0.1235636030428399,0.012756398033430788,0.10902796527601208,0.07708542630510853,-0.030974031704804998,-0.0587618146879659,-0.06900131511172149,-0.1391019229722065
0.15158558666745098,0.05262508559118872,0.1543404083766986,0.12366447866152948,-0.005038299766901649,-4.121362688332131E-5,0.005369041720785062,-0.12781144676101425
0.16023401028768697,0.08056230604957498,0.16426744872332041,0.12860193443064966,0.012909193577806309,0.0049256280947150705,-0.003667044820257044,-0.08974387393145322
0.1433753096224079,0.06391652760068345,0.1503311005507919,0.11375635162543679,0.018708640256663862,-0.014170273585535902,-0.026302237452996244,-0.06967604478647368
0.11943625995751736,0.06941953036621877,0.12348756196145788,0.08443782653402764,0.006124718905908516,-0.04641642311562059,-0.06390291325995989,-0.09783320416627356
0.1387721945227886,0.060191855788009174,0.14632099515672753,0.12535440995905378,0.005550512505275815,-0.0188845240987554,-0.03530740066663207,-0.1102120287610397
0.1663335398914425,0.056730826843144296,0.18317303753751374,0.16010531175572482,0.04305814934252491,0.04177517475982205,0.03247928635389086,-0.1111156661174648
0.1701939736159469,0.07015678072888838,0.19166256509865248,0.17390568436679044,0.03668760073565727,0.03536444257538551,0.03124500858943353,-0.107836547409817
0.1514050071822056,0.06243820435445071,0.16902735610487316,0.14070635298523437,0.020931533802384505,0.010455036223792527,-0.007562659434384424,-0.12269812105648165
0.12580313249194355,0.061950487105864815,0.1399010169472069,0.10712070462164489,0.03887851835869237,-0.002480252659096377,-0.021128321855498455,-0.03269130694338824
0.14227043451953544,0.048335367412977524,0.1563918179958259,0.1428970019857702,0.048505234960386466,0.02081021821772623,0.004124851406658164,-0.027233272136344994
0.18220939301816175,0.05459661313230746,0.20013259453655535,0.18196593568103647,0.057267105569363014,0.061866788809616435,0.060100205532897306,-0.114945237690639
0.17666330608989395,0.06355200323780975,0.1905003826099825,0.1780095549274563,0.07200055414171534,0.06657404039197774,0.07244666441628757,-0.0673806635902125
0.16367668781718403,0.06847679442693436,0.18176528810235737,0.15723125754197587,0.06840461921541026,0.05183759149354801,0.036726663372176616,-0.003078046450839471
0.14803290910128558,0.05765905852173084,0.16042497316506796,0.14673179357848581,0.06511393400791965,0.010006746290048087,-0.003926680308789225,0.023386509031090647
0.156098737746528,0.06694690327878264,0.1693049986644075,0.13692084153390485,0.057766971325040134,0.02334530107900634,-0.011134729404659392,-0.01977337505375938
0.19557337546015297,0.08800535620567443,0.219320101669862,0.2014870990586159,0.08069021368239725,0.09267840586129344,0.08360372464772944,-0.026896056384963146
0.18836273613840654,0.08075705543441045,0.20742646105230939,0.18829576001868856,0.10071889468493893,0.10414630551976806,0.09485012722566143,0.08611496358134249
0.15608520634999923,0.06920248532252211,0.1807127919237916,0.15540704111723547,0.10737717282078764,0.08364692312082701,0.06621727350058487,0.09562229281214041
0.13799231220598476,0.04392952468500263,0.13706194706737312,0.12873715416887715,0.09068851445591372,0.05323922151537218,0.03057406691082855,0.09260167185344079
0.13794794758461593,0.04704892645187944,0.1332331152851627,0.1287835919988719,0.08592396990129547,0.05504735352276618,0.039104755869724325,0.10616119345418285
0.173898732984619,0.0299344523704642,0.1794169821049275,0.17886172716671392,0.1130147033949761,0.11524806104771776,0.1140592033559759,0.12071440460396732
0.16124516707706363,0.030150247624782217,0.16419912234098277,0.1619688646007713,0.12302113744381023,0.11187878529148461,0.10768587535836824,0.13704156884901672
0.1411979229225308,0.040663491149901226,0.1301152385674129,0.12285592113546658,0.10949897855838314,0.09000366384145456,0.06405867829651517,0.14077729472703976
0.11521563465299413,0.0070961124988916935,0.10947538500236409,0.09508800976065107,0.0793668296146414,0.05363337033942385,0.042721477119092396,0.11390872683818197
0.1420465418008627,0.01724530627288942,0.14642494311676363,0.15152142405034844,0.10900777723286137,0.10199100903794131,0.10810434572095773,0.11824343586426331
0.15042701889925686,-0.005237525300867407,0.1428836286610823,0.1462469490046308,0.11092260525472772,0.12008632823068843,0.11558948153082091,0.1284182011340032
0.1319010049609021,-0.014962825991854736,0.11800492141763232,0.12506519974080102,0.11216862703001113,0.08562131688648864,0.09061771160507671,0.13111659247547133
0.10200799053084021,-0.020779868755889483,0.09076735138756539,0.08481901239830608,0.07567536750683729,0.04844777873797042,0.03843348678313042,0.0848633055589528
0.12091334490178068,-0.0067842207490313305,0.11471253806534785,0.1228605729102977,0.08548043910073871,0.0823223453032168,0.08957051388042259,0.09863663794170806
0.1439580416234641,-0.006251985567031881,0.1462093652351212,0.1513514209623706,0.11033104121517803,0.11619731132320953,0.11924625909684475,0.09518791989497141
0.13033138177125347,-0.001027750419134013,0.12251411611750308,0.1356065875502324,0.09934315234999971,0.10237702002137627,0.10939921091238333,0.06340935034387185
0.10595911120256998,-0.025392274745951557,0.09040081533502395,0.09588510452346968,0.06699283502577712,0.05194940241778041,0.057919203929550044,0.027800493213374796
0.12818738393845844,-0.026778312452952605,0.11899761124284189,0.12294215677542751,0.08074823504667494,0.08776711820821113,0.09566430502277615,0.057925372982121255
0.11979614318283131,-0.01923835493730762,0.10617291334673967,0.10934251663339883,0.08032118757361578,0.07523396608043673,0.08197625622192589,0.046417645365491755
0.11064609364523564,0.0020728695907621525,0.08637716785294383,0.08776345934119202,0.04734305660299063,0.05413306879854402,0.04697311016529569,0.04830711910487841
0.0644408834781634,-0.025221681062137048,0.04585472666854369,0.05164656906200139,0.034886067605383236,0.012967986527732378,-0.01602163734231163,0.021656225138072117
0.03369749192997902,-0.042552364128033926,0.010003299024935798,0.011412755225138151,0.004592604068254276,-0.03912132320337426,-0.07906681162716273,-0.016620683340523076
-0.0022138741775373297,-0.058662247731061525,-0.009015849630220198,-0.029660041315502907,-0.015302911739882592,-0.08588470963485273,-0.1180501473135072,-7.470765978399158E-5
0.08426733212499987,-0.045482805145571126,0.07012662569012215,0.07561950994297331,0.01013039940814879,0.014957214736304583,0.01666706229387847,0.001716434301422775
0.08944901883112114,-0.04508075269991449,0.07372059075476285,0.07883552145002287,0.02260244486095265,0.02408603504545425,0.01472131458355455,-0.03021968813217118
0.07652912111076911,-0.050173006239222676,0.05078072793404449,0.051884843038608124,0.00495186755904993,6.848110141482525E-4,0.0014648894084871248,-0.035110332490259605
0.047894794045425515,-0.11122167853159523,0.020352661722092314,0.009609220674618502,-0.011258690802261663,-0.0330977446349978,-0.06512128525113271,-0.05169055869376156
0.03456907241926624,-0.11372856970436043,0.005025812834948056,0.010732503944813093,-0.03116567457766344,-0.05787710303897775,-0.06837946168595228,-0.05593751294110838
0.07950045022301219,-0.042357022673564615,0.06442254679648192,0.05373082694732951,0.02075086008209969,-0.00421123471154412,0.004430795956455099,-0.03685126224559301
0.08256630651746061,-0.018733606997473493,0.0617611859278137,0.052801702769545496,0.0024003864331617226,-0.008888656034272958,-0.00802137429480318,-0.013970218166509979
0.06381468673628371,-0.04271026953431613,0.035457679991052274,0.02871401751636581,-0.017034224822649414,-0.03665764436527836,-0.04926225832052174,-0.04222831794675744
0.02518045516390821,-0.0957651300263453,-4.341751515327709E-4,-4.4109157043062397E-4,-0.03288524769241423,-0.07595879660064596,-0.10007623678984011,-0.056917016962533894
0.0901694380783246,-0.02611365858390237,0.06409224299985065,0.05947104001219166,-0.005655696240083427,-0.019275163586696124,-0.011855977364748891,-0.0710650718829957
0.09675271337520552,-0.016157925818669136,0.08172563812788089,0.07842419482898491,-0.004409590037001383,-0.010558652827418299,-0.005186725699874698,-0.07931317220099224
0.09895760758476994,0.0013577420522713352,0.08263298722543555,0.05535364776731148,-4.7986229905167075E-4,-0.013598488236479746,-0.014534908719181517,-0.04941126338862804
0.06694671347457481,-0.05668033100634137,0.053134878384089965,0.03117776345430216,-0.024567170735455165,-0.04441055740126818,-0.055392150471477115,-0.07199472931716511
0.08214779935893214,-0.03507034498067178,0.061940106437508524,0.04756475057308085,-0.0271473953227621,-0.03937297944782668,-0.04387776473079021,-0.07245618367243924
0.13586529202619052,0.0033319065803107534,0.12605377088866598,0.11574999011710405,0.01558743925272986,0.028968248935289147,0.038433894107252405,-0.027845337976943125
0.1493139620848406,0.03667326635967531,0.13223517353856684,0.1062629975078423,0.03274097112596397,0.017251570943815027,0.04261254696209965,0.013362996222462193
0.11599976769519034,0.007486638611333099,0.1003448555832564,0.09911507303186265,0.006386285286855157,0.0015854729612370428,0.008039534610802026,-0.027640593057660822
0.08939691741029739,-0.02338884229185867,0.07888981669710492,0.055000778915998486,-0.014408768276250311,-0.03421329286279149,-0.04709410392653454,-0.05354372818295653
0.13706879602094546,-0.056615861497642195,0.12168038356714564,0.09577014800454922,-0.002724917437856779,0.0018805304476905114,0.0071997948013763045,-0.10817345604083833
0.15173787799297642,0.005965364456336664,0.15602306565093985,0.1295190475156564,0.032146661877631294,0.04166982746291519,0.05309654110773765,-0.04136195492275192
0.15288127797700787,0.03694395127308651,0.15120758160385359,0.11127269568082687,0.03897056538419701,0.03962522208101972,0.036269260355964936,0.012973364777846663
0.1183482353878329,-0.010058109747354174,0.11964773016536139,0.07958018020907656,0.016105562676180865,0.003011779671493329,-0.006188811881687047,-0.025714706130865867
0.12150314505531878,-0.021434545198351918,0.10358764110786388,0.07683822478246007,0.010173445567616679,-0.011524101159691507,-0.021263973265845934,-0.04160418143699885
0.1653635394978164,0.007233532792259939,0.17231759769621102,0.14144596872298637,0.03633213234859836,0.05390918225320335,0.06934447911535661,-0.01919963523207948
0.17232628412595177,0.018462301806396533,0.17210866783251133,0.14767417571362948,0.053397527031345385,0.05308122168934608,0.05426138022166277,0.01980865691975952
0.15273596357097835,0.01728873053592396,0.15795656829345403,0.13872630905367223,0.037046026693068,0.02868757738268847,0.03037417710706227,-0.015475814883362886
0.11853213016974881,-0.009273328575956169,0.13050398134018965,0.10870479371519282,0.023932232626476486,-0.007359487292874202,-0.02203864956529259,-0.036304590870001666
0.16493022568064253,-0.011952759922484193,0.17033858000703614,0.1694120510025555,0.042128406696231746,0.05249873415179927,0.05593271819654344,-0.02455727273267714
0.17746586803439707,0.019875447149280454,0.19318630424262495,0.19071732095519575,0.061283222050223365,0.06617676923379508,0.07203242059051389,-0.024147568008021987
0.16455586262732097,-0.007333664907247656,0.17194661837647582,0.17755283441908704,0.03825964055107096,0.05513580316301534,0.045673263567288964,-0.05526439755648675
0.1390777678411234,-0.0027145942080374075,0.14590841204477825,0.13374709923956957,0.014359424052811756,0.009441092603407112,-0.001290065269801844,-0.0682213494389045
0.13111533967228572,-0.013625902621933347,0.13961595808130325,0.14166191487037824,0.02348758461284533,8.583163198365353E-5,-5.260432368132516E-4,-0.07483428339151406
0.18747015242087905,9.807023920267721E-4,0.1949958243397781,0.20124605695336914,0.06629174880587325,0.08235610581800457,0.09170371688406943,-0.03088538144775809
0.1846036064769199,0.02639284808502055,0.19677485223578658,0.18856656730026894,0.07310018869575702,0.08761529282244568,0.0894715676426479,-0.019774762670256324
0.17314737179004885,0.0033154465426910584,0.17060136289747946,0.17826317191035737,0.060370278465381844,0.052454635236698875,0.0580086900656788,-0.0163207190019586
0.14463171279459705,-0.009837908712162148,0.14017855060957968,0.12802244177755173,0.03355033881003701,0.01917466965713645,0.006718187541369863,-0.07164459644277728
0.15169481069162752,-0.03394032568378104,0.1390359907503974,0.13921802012663928,0.006548325709195131,0.023011766787190215,0.024736329734915755,-0.1356334627128792
0.1877907660100368,1.9878844278817254E-4,0.1870880338620246,0.19418872958696412,0.05650309593230792,0.07629167602625066,0.08160981386010425,-0.07212654122342681
0.17952334284856947,0.036934917810777707,0.18588325695208652,0.18223376331418717,0.062454576396966575,0.075081625678105,0.07544624123808233,-0.01793633516405335
0.14768526316737945,0.007825700276758205,0.15280555839984641,0.14534108215593072,0.03661088657259544,0.04157059312221679,0.03612884827060772,-0.04767899328097496
0.12084664699829498,-0.06506455496539623,0.11183978662486246,0.10624956832889283,0.012956006374429646,0.0062040192392357404,-0.01517139048784219,-0.08507306327162871
0.1334055226444939,-0.05898895753084149,0.13415324264848758,0.13838864954359908,0.027442336473334196,0.028473284657011037,0.01774378694860638,-0.07544358191664663
0.16740163488296128,-0.018095858059179876,0.17455425512274125,0.17818723012513515,0.06323557682133757,0.07222582654083229,0.07623194166592101,-0.010281361627003788
0.15800869510141566,-0.009985010387998178,0.16679704256821604,0.1698812588075522,0.06245738846904515,0.06908650753081444,0.07614991398892466,-0.0024433358951428666
0.1361969740026494,-0.021202726485692533,0.11912668714913094,0.13334790356465834,0.025251380288343152,0.029478140478474184,0.024855461600481594,-0.03784305218129439
0.10758701790236916,-0.046784372983121957,0.11291820458807142,0.09937179417602468,3.5478915620847963E-4,-0.00594639683283526,-0.033245539885247435,-0.08074718183235405
0.15987244852536353,-0.027346444775112416,0.1616515835922173,0.17227526507310015,0.027512330002182697,0.04195708932097723,0.0533942706605165,-0.10076800662669305
0.15677797716819902,-0.006360279582694556,0.16363947642526355,0.18897138687382653,0.04029753791141639,0.058873652414139235,0.060834526599975396,-0.09758968581007668
0.13890322986196502,-0.0043912195088487635,0.13827663197422452,0.16583604845731104,0.022371815350528006,0.037861487457488185,0.03609881067110378,-0.04975500431682579
0.1013095825418352,-0.04728732940462372,0.10579862646911484,0.11640003764099084,0.0011231082805628389,3.6536866773828613E-4,-0.029980256349516753,-0.08455079272811308
0.11301296240217476,-0.03560011291263908,0.1025790635340516,0.11996059085692498,0.003034051407877696,-3.616740280694762E-4,-0.027303129250968245,-0.0822190366296609
0.15468473378513511,0.004195222067534976,0.16024583842479265,0.17588822641064467,0.02991295631553725,0.057292510686118396,0.060029836242880094,-0.04048648509318403
0.15525933861193122,-0.011209543782727274,0.15078528689720844,0.16724889145659483,0.03253168755877985,0.05141865159029424,0.0475899546185643,-0.05037880316805872
0.12944361673606405,-0.04327984506411178,0.12650487003747463,0.1441976959730031,0.008940015916210823,0.016643683323295883,0.009853940759487782,-0.06481191302729182
0.09672863515749962,-0.06324663242913005,0.08971136127532234,0.10282119551770567,-0.018089019062106138,-0.02375904048890243,-0.047891669167910635,-0.09648297267834105
0.13370108989752955,-0.04195935970599041,0.1298494859002281,0.13664347552849784,-0.003358313798638008,-0.00677271571632162,-4.689985824602519E-4,-0.09440272072459091
0.16083119994289036,0.0054769057539377775,0.15250025840402318,0.16957025672913423,0.022967755654932195,0.04329268620779471,0.044382208482120274,-0.07096967376031652
0.1580435661053985,-9.075352319158764E-4,0.14660218083753035,0.15195799969876647,0.02317309780482575,0.04244289665493748,0.037383004380988134,-0.08799338581489877
0.12408630534847513,-0.05101399870604849,0.11020138787928987,0.12039313684107278,-0.010791945589499483,-0.00768819772475186,-0.019228119629857467,-0.17348653274478826
0.10021586408236158,-0.11297403472552311,0.07750026777492071,0.07499848096136684,-0.045673249403525275,-0.043363365667510874,-0.07786688115411587,-0.21945441443328437
0.13150905660626014,-0.05876646468460038,0.12356793949959992,0.12440062082179591,-0.022889549562047043,-0.00905649737411651,-0.020228266055186878,-0.14078365753326288
0.1657792780868582,-0.008780893909183962,0.1572109014641369,0.1605173627468506,0.01608172876665458,0.03915474626428951,0.03157848767365684,-0.1079023910738025
0.1558344417335256,-0.0071303189953815516,0.15480794945639512,0.15049432800016851,-0.001771356189954068,0.018267545356856894,0.011461348565760608,-0.11313693158598673
0.1274180831137445,-0.036244668133579294,0.12117642915720846,0.11403584306665784,-0.025133703002542283,-0.028738852439156515,-0.03911866159994251,-0.13117189853757655
0.09591300280224385,-0.0755113602360742,0.0792149582191513,0.06849658509690508,-0.034206336474261384,-0.06846024326213247,-0.09215663675122887,-0.1471387459107249
0.05890516275107274,-0.060581148301230334,0.04141874025799836,0.022696943761201394,-0.06274905743545586,-0.11556896887965028,-0.15684573519636197,-0.16938622934212139
0.013168515092890125,-0.07252735225743642,-0.013917680910897113,-0.028145692519772655,-0.08982937584026851,-0.1636206472929658,-0.22272132156274574,-0.15307683452061976
-0.04457684061827641,-0.12124874411497201,-0.058030501684175624,-0.0886911360712064,-0.11027304293590828,-0.21786650772347005,-0.298938473063548,-0.1746425306821722
-0.09935743798648546,-0.1463762610784436,-0.1283540953693046,-0.16020363741615776,-0.16741025021603687,-0.2711789402307613,-0.3675401387054755,-0.1942010830653201
-0.03135219934114882,-0.13588861011973263,-0.06636295719486528,-0.0930185024042484,-0.15110147441569766,-0.24343510994112805,-0.3124323463471389,-0.2334950622779208
0.08244339066590041,-0.08323856123870736,0.05105868247991162,0.03813541953118808,-0.0804539754202527,-0.11067022627014647,-0.1311732733958203,-0.17822739065591903
0.08618330104843015,-0.06051365515282767,0.06372532232330554,0.04041206421752441,-0.06273855597462545,-0.0983553123089558,-0.1197816283981725,-0.13269082229842621
0.06190324893381159,-0.08692716995516653,0.035288781971698525,0.009772493739725784,-0.08242395195519886,-0.11872094166217886,-0.1677770878352613,-0.2009606040008669
0.01865161683982227,-0.15043267571880758,-0.009970068381924298,-0.034560402439739735,-0.11302459067737733,-0.16800735318412496,-0.21834025561046777,-0.21963271080906435
0.09590188894404345,-0.08550368467053664,0.07064609994550036,0.05313850891711221,-0.06771731289829254,-0.10112501878008154,-0.1282617044805154,-0.1617086889059785
0.11928149109882458,-0.03598696157717127,0.08486545801097937,0.09717790520946304,-0.06194882057354602,-0.0724604011055214,-0.09058683253234394,-0.22168111289353493
0.10866938465929035,-0.058730850038730936,0.09818795277408131,0.09363933083450299,-0.05008924256332128,-0.07555183274072011,-0.10555330798191778,-0.1768480939878274
0.08366081965767116,-0.06776006314346089,0.05841775464352732,0.05720318610806391,-0.0682579128604626,-0.11150829378592286,-0.16966605267535326,-0.20630112039548085
0.10509326819156747,-0.06083901352074855,0.0878370091285749,0.09416296960435942,-0.05324219470573627,-0.09090869946687316,-0.1342882238978158,-0.16644998065358102
0.17448216102164382,0.007643267035082085,0.17656001750872047,0.17317191565508094,0.011560499732332322,-0.002309509511783825,-0.018573438223893596,-0.11486252927055449
0.18776943934508455,0.056168309869567126,0.1923148005573267,0.1780535260761888,0.03914352849104098,0.016343058965076963,-0.015108341178053958,-0.09760791486462274
0.17345433956682965,0.012046002172119277,0.18144842188393825,0.16115957820296373,0.037507441026717284,0.0016376781477193125,-0.048298130612092045,-0.07808419766075712
0.15560873579649154,0.0016990181953510097,0.14907065128375727,0.13644206586728666,0.003585741974863811,-0.038338226610593454,-0.08215855137645123,-0.14341096095383532
0.23233010662626963,0.04773013354003999,0.24168190074572715,0.24769000057452528,0.05216831812956455,0.04332953923531428,0.036374017453838184,-0.10293670117835567
0.2564725115037749,0.03526126578084829,0.2632059647495052,0.2634197356157227,0.07120927349135862,0.08355186592850955,0.04994053609288379,-0.11632718622964454
0.2535573527700748,0.09045241776975448,0.2637124477789348,0.2576763865498415,0.09342679515283701,0.07267376804739425,0.03993873200654455,-0.06568613641590558
0.21530920452624872,0.059318057738824884,0.2269310860383759,0.2201251298432665,0.0670186639218059,0.040327643853200146,-0.008482471507395506,-0.10272773491875513
0.1847803668573404,0.011555141218812306,0.18924500213450146,0.17567620579589635,0.04498790151726101,0.005185461521281402,-0.05370902296555331,-0.12557013429206026
0.12944742906656487,-0.018251027518104215,0.14590637573942167,0.1177917893801876,0.030380001152772042,-0.04287304592611362,-0.11396850958798063,-0.12936815905657095
0.09658877087111126,-0.03868885567254876,0.09883654540039283,0.06773802083928984,0.010483912423121196,-0.08346562457617404,-0.17129782350366715,-0.08912812080315044
0.0463135355793461,-0.04152372892895803,0.03787720590119287,0.014995081036003742,-0.025877924455195322,-0.1364848819620116,-0.22626851750971405,-0.12345046528718107
0.049441839593469525,-0.08658041482337554,0.030097294982982838,0.011637222081042078,-0.050842798915016925,-0.14763736730386628,-0.24306434772054553,-0.17171311696916536
0.1885115287717415,-0.016084810634842822,0.1923417979709617,0.1824326362740637,0.04404261860472975,0.03292539247617617,-0.011868223712928727,-0.115579510854757
0.20529724782986747,0.017031922341961755,0.20526347827834632,0.19349990092224123,0.08083511449713751,0.06717131098217416,0.028014868844544218,-0.08571057842047475
0.19646832051974214,0.024320635858550696,0.18599327131489274,0.18926427290716588,0.08986053404648878,0.06973492469807771,0.030663859820750122,-0.06183403356641497
0.1726278235676856,0.002174030146397443,0.1725667534050123,0.15113171419258198,0.059342886369697895,0.030823165500401074,-0.02334739269142551,-0.1241069000686164
0.1920224782469758,0.014615601305286344,0.18664979242806162,0.19005860112369452,0.05962741999001773,0.04696378633008433,0.00789350278324226,-0.17583741734606861
0.23379990562370712,0.04343398484323205,0.23226482382728053,0.23397194370331492,0.10096268568551325,0.11863581021193365,0.0793102846106617,-0.10982567488306223
0.24451046741669097,0.05566246251046507,0.2310368014743865,0.23797556653655647,0.13254571132986265,0.1361710583251699,0.09723386506327508,-0.03350447957791526
0.21819853852409343,0.05484899387443043,0.21832572358046465,0.20566031007630242,0.12482753300485551,0.10453427671326296,0.06280612630805511,-0.044256827647323804
0.2034479858440697,0.04094700420522583,0.18775239640337443,0.18371160897853317,0.10139959186434877,0.0772144746433345,0.03204533955429413,-0.07499494111635739
0.26259100219044124,0.04387326145148013,0.2629065161691605,0.2634109064343446,0.13887203545969828,0.16702891685062432,0.14215794135490467,-0.13906489200142888
0.26945429088604944,0.06319755474412703,0.25938467835471535,0.26776069535248487,0.14455720610939188,0.1790127211797043,0.16247756389414167,-0.14644747767019226
0.2547362272226561,0.02742815782697558,0.2485661572493402,0.2547488329561595,0.14591406000900004,0.18149939906499546,0.13753169339241428,-0.09324900951244802
0.21618472426201996,0.029955987616519505,0.20736156954440751,0.2069586027919893,0.11789891613771031,0.13771103041005162,0.08112348257192886,-0.13656879433230368
0.23225967588439336,0.033697426499252614,0.22325751281502126,0.22820169494718537,0.11461370728385029,0.14346573941465102,0.0992469647661566,-0.17374837314626052
0.2771180886737004,0.05100389450562734,0.2811992135313585,0.28014787211645814,0.15857116520498943,0.2129845032796815,0.18848421652298708,-0.12671940388647684
0.2845473817893549,0.07719523469097171,0.27208856379904695,0.28790451823301544,0.18727606029861377,0.2253282862993565,0.19617111133827647,-0.06986330897809498
0.2575327192290454,0.06558285884402551,0.25607625996322164,0.2525543157747859,0.17597917940579574,0.20783869002932873,0.15825356040713928,-0.05011578003025448
0.22178220251337644,0.030501601383723875,0.2185919209009852,0.22164784177143917,0.14868608014221762,0.16321644112452718,0.11971029292718807,-0.09543816775159157
0.28255448417392837,0.04241919275985248,0.28112174918866784,0.28463446258526015,0.1770242813621561,0.22927922966742018,0.19536610509129482,-0.0933426581106273
0.30253209999436126,0.07577098081777134,0.2999323218300257,0.29578188260009963,0.2013126221759122,0.2610037912009253,0.23568322234122766,-0.035896340615929986
0.2943509771859121,0.08669724484888529,0.29567564646213756,0.2932599960052036,0.20096709835178736,0.2488829150097128,0.21640773728328352,-0.03859848376732761
0.2737462247987332,0.05817456675878706,0.2637390063400409,0.2612833556367344,0.18522980715571752,0.2222786594038863,0.177663756682483,-0.0497847228917203
0.27201155139095085,0.07529693093801029,0.27862729068962844,0.2701281897193163,0.19392841753995818,0.22659217086831668,0.19246661220715788,-0.049265874297094836
0.32447499016775905,0.09462480456421925,0.3286589462629653,0.33846151369686106,0.22111094180493168,0.3007742801324514,0.28015819057422336,-0.01927873081129966
0.31222563528329916,0.12560339638184992,0.32638162087515815,0.32964984659033575,0.23287565446759334,0.29958342592171106,0.2704101875036108,-0.030170525085660704
0.29690180242310843,0.10199001996466851,0.3036417170226702,0.3135036567254752,0.21544585834845265,0.2726878624944449,0.23789873290551955,-0.04694749037933142
0.2690278573206768,0.07358044709942523,0.26821551899913426,0.27341889398031616,0.19434383719251228,0.23627718975455642,0.20097946280630277,-0.056151910619508416
0.30740853324717293,0.07491176550787668,0.30629268732068093,0.3359977051262155,0.218626313989393,0.28478184795234907,0.2575864858633292,-0.06553382215901456
0.3376813979138358,0.09920258750612512,0.3406288240073485,0.3673143294833651,0.2458729090894636,0.3350774682797973,0.3166843062830583,-0.026772120419517556
0.3343819821037184,0.08890371093644764,0.33611736088795896,0.3548418464050898,0.2377573407447416,0.33407355858297466,0.3037169968014268,-0.014348038026574611
0.3098232271515668,0.07517048993655367,0.30752390793181233,0.3158530243414385,0.222055228506641,0.3067888876143029,0.27113517141687166,-0.03701007993529576
0.27868206993116307,0.08563766346987314,0.2888489549405031,0.2926844325824135,0.1940446945208771,0.25761501574669166,0.22065054107347234,-0.10984192945207838
0.3116857801689927,0.12144918261394379,0.31325828440638337,0.3235538369210915,0.17429312905583508,0.2640757039589398,0.24524183331656604,-0.20060671056172374
0.36236168730476903,0.14647177333981662,0.3553315582562192,0.3692033710400199,0.21115942040151126,0.33992160033460384,0.3027039992187564,-0.11641805941197927
0.34290703311379955,0.16056852486239664,0.34361523998396254,0.3452212088820482,0.23109097530132908,0.327356161632103,0.3179017446782739,-0.07810727602273593
0.3227680261448481,0.14233354214822036,0.32299038081273995,0.3065920555981056,0.1999561092798669,0.2934555723266097,0.2460056806095532,-0.1189844212266423
0.2915264712092935,0.1465980564512381,0.2883174962429493,0.26854762946423866,0.16495726423254023,0.2428692435060874,0.19402475336986236,-0.151272300097209
0.2997253716119357,0.15659955908974044,0.295631095796723,0.30104582307791883,0.17854957023036527,0.25299010617880796,0.20882017388275925,-0.144656087925706
0.34567553929485,0.18196406599912823,0.3448496075330119,0.3336272728490219,0.1897235135045105,0.2950889619469334,0.2924706991156862,-0.13259765013925728
0.3286174758498002,0.14273889633881814,0.32400875725710265,0.3092483686299265,0.16679090161201587,0.28090494591962,0.25780494908381346,-0.18856007980423584
0.2964372280574866,0.13394191566120012,0.2847699893361429,0.26159102808615703,0.13745164315191355,0.22546509463344605,0.19315913041846858,-0.23739008195924813
0.25538033841514496,0.12476599373939636,0.25452130123716377,0.21288080968019224,0.10743035562656175,0.17201740258836754,0.1323859108368223,-0.2640396545667414
0.22094708117971462,0.10736845994912374,0.2072692208034835,0.17466878837344005,0.07060172108458806,0.12378251352969534,0.06827097024341272,-0.24545703905964472
0.16392262228444252,0.08304540191945431,0.15418858399935415,0.11241942151449674,0.045829623386549556,0.0705412573958842,0.0037282898099268054,-0.26194543372563706
0.1268978407548394,0.030005299521082232,0.09724674795627739,0.027549742481451117,0.010103344957161621,-4.488489667920405E-4,-0.08028308578888019,-0.28923387689418284
0.05296211067987482,0.00521704676363173,0.03319381812753303,-0.04305614054834194,-0.020853071445953067,-0.06263534259356905,-0.16748851999469225,-0.32857979413993277
0.07866165401768704,-0.01398168751409501,0.05976030351061999,0.00746994611456802,-0.024271443847493267,-0.053535653700012,-0.13920931182144444,-0.290309523529338
0.22733943529332873,0.0638043251658364,0.20407211380842946,0.1735451259352931,0.057903944813629774,0.11536621035513399,0.09142959958226485,-0.1896370648705139
0.2243071540223327,0.03568079207647684,0.20350191945200066,0.17076213453504346,0.06180929516118103,0.13079827680601597,0.09721711729735322,-0.19419265509757394
0.202005244076503,0.028437932643001568,0.18878994573635605,0.16143918032121185,0.05762822706831032,0.0970640908587336,0.055650740081232886,-0.2464027662635844
0.16534277921086993,-0.01617971174177707,0.14609255263347523,0.1219955796218537,0.02451807395509062,0.03794067526296362,-0.022069218862783006,-0.29635644864307653
0.17673704020774986,0.03126798237858111,0.16705345146922526,0.1313805296401551,0.025090274136736895,0.04285511631862646,-0.00629144694486921,-0.268933241279154
0.22872500883680238,0.0852803449029591,0.23335581078520917,0.20635544840588532,0.08366479875497632,0.12520496838523276,0.09326920817807294,-0.20582729688752716
0.22771038353946793,0.07611947933646904,0.2289475198634996,0.20644149633166023,0.07895402387476624,0.11500532326066848,0.06918095717765911,-0.19653020016276834
0.20969187874956693,0.03942623767386187,0.19460103801969467,0.17983966890771255,0.05540437724022648,0.07439165788262156,0.019425438827458917,-0.25055478145237015
0.16586807718298635,0.03390587586929435,0.15424953470963887,0.13208774336374168,0.02469056359937281,0.025112151472952596,-0.060039597917072855,-0.265063094522368
0.24030803685873722,0.07521119313829874,0.24296376103589257,0.21713809112406346,0.06269394586263612,0.0814115214358105,0.037160688269326364,-0.19491803306799235
0.2737927720089277,0.12778071112230527,0.28517635543104175,0.25138994196037345,0.08675106956592571,0.12446109096598644,0.07919891726758765,-0.15503127793114463
0.2700786352003982,0.11591601043073137,0.2828288638186731,0.24235440824547258,0.08677456826736979,0.11619694839010966,0.06027480666214828,-0.12980894073495197
0.22860728615428988,0.09564591401122094,0.24167447327863217,0.21413434040635654,0.07041651392427421,0.06534461470774246,0.003657683141515579,-0.1752510513950212
0.2041040974203208,0.07194817290467574,0.22105479310466175,0.1788895618857646,0.04293697706304606,0.028380214495720778,-0.04794137948955507,-0.2352661852672906
0.28713490637456895,0.13979160576533356,0.3080433063758716,0.2895229132892606,0.08356434623228692,0.11327666989736973,0.06037713598329761,-0.17074712431492173
0.2832086567601989,0.13959592926118872,0.31244637559193605,0.29557941061588555,0.09572600890727503,0.12480027409438513,0.0791895249835716,-0.1297373679890676
0.2687295581168243,0.09317167301642304,0.30620539239512556,0.2465244414331052,0.083853778448954,0.09546931288060512,0.056562396805994494,-0.1777354921321428
0.22000326416686136,0.027793702683186983,0.2420939548665683,0.20411726590873622,0.07372176403621904,0.06049853207446717,5.612924106746728E-4,-0.15537527604378043
0.22770923551713895,0.041572599065123714,0.2478167479210618,0.23995801948368695,0.0709582987881448,0.04925038154794011,-0.0112041250516755,-0.16182310539274192
0.29651649750674725,0.07771047471109466,0.33547137187580034,0.32476386101684473,0.12038871870630671,0.14022206264007092,0.11254400527767941,-0.06265584372340724
0.304991117414133,0.08477297540324907,0.3425656043918115,0.31978289934547455,0.13407096617384429,0.14644859448043274,0.10128642106613331,-0.07441010717168876
0.27970354619289517,0.09051029380502738,0.3140900860682396,0.2805900209255631,0.11165056545220918,0.12123853617896643,0.05815276034301985,-0.09570654820131012
0.2403729378430386,0.04817431142749075,0.2757198549997042,0.23983037166208884,0.0900727593275738,0.07637319614292537,-0.006108112476862007,-0.12440652166542085
0.2912876000576713,0.09958802729164404,0.3478748928679837,0.32558489231244997,0.1164068154767936,0.1351410865636803,0.09096365203276471,-0.12807438199612997
0.31480717835916927,0.12608720421917063,0.3754235809846932,0.3451847076625786,0.13813961979358824,0.15989488092055887,0.12836176652833742,-0.1077119611798296
0.31016734535370316,0.1397761551465769,0.3623090568238631,0.3384568755299154,0.12034707308075579,0.14061497803448747,0.1017458543994036,-0.12837619046955698
0.2877894586810122,0.11909935212155649,0.34639907028653627,0.3133779025040001,0.1181593152278104,0.12548658036163163,0.08036637102461193,-0.12812419119409338
0.2983337569741221,0.12157235671177721,0.3615087676285272,0.34168113942289713,0.12608445608338095,0.13741617313118493,0.09081251415133025,-0.07060569551511743
0.2891406189426984,0.12030682587139327,0.3389878312426713,0.29578987728514405,0.12810257921919352,0.11291466591987584,0.061650418901970934,-0.06589215001959732
0.249166388982608,0.1358377700456448,0.29883879908493927,0.24609071275028516,0.08741523703596418,0.07472884605303938,0.007094917663777711,-0.09026273799271878
0.22587322516105096,0.19953542377128858,0.2587136677574756,0.2033222167518615,0.06122004011566071,0.014528153280517344,-0.05907470595753926,-0.14292437820706155
0.17215835262809956,0.15929265101063508,0.20062708161817605,0.1517144037481446,0.040950248324691824,-0.019134698289666567,-0.11858569020942841,-0.07868974039845368
0.2779172920815621,0.21223686282932963,0.312394467474469,0.2873913714769024,0.08870696698006078,0.06628413827923282,0.022227591591619796,-0.03784049030851358
0.31960486892977813,0.22935830907793975,0.3740800450265789,0.3428308524778165,0.11707952968617952,0.12203101761803749,0.0813847572228761,-0.12022628568588163
0.323513384025199,0.23460806029508613,0.3624758325570774,0.3382063544845004,0.08879619465452437,0.11320901899580443,0.06593648984987573,-0.2187349508941731
0.26214426952569087,0.21653047909046305,0.3166504056897081,0.28430579505853665,0.04880203386366309,0.0659765734029636,0.002686301911081091,-0.21316147381786704
0.2492986295161549,0.19432243603767127,0.292561334540417,0.24016045132277303,0.05961212846384502,0.04288311380531412,-0.03412005126453212,-0.16265893965977024
0.3225263219863813,0.24418533169855738,0.35218026461829677,0.32174347824124444,0.0915083871147809,0.11736726924837974,0.0771690824128428,-0.15736871843913003
0.2978851000990152,0.25440562488061674,0.3455378051506029,0.32217434474955686,0.09739221568499903,0.1033061955714014,0.058014813939237575,-0.16120522782834923
0.2731419480738987,0.2151784048943984,0.3171743115684564,0.28803696067478035,0.07405705285103534,0.09238871565748724,0.031054014904280072,-0.177963743292273
0.23697270381733915,0.1529096399509433,0.2720115722743809,0.25410642575814707,0.038435356499015534,0.04007926445142634,-0.018042594925523348,-0.23748142113330376
0.31728488934483257,0.19335380141140143,0.3498370117450477,0.3398932993522303,0.09497939801153192,0.13573213532131573,0.09379786731514557,-0.16698317426204956
0.31138793320603153,0.21897849195379088,0.35308231090584397,0.33959490573520257,0.1101313247811722,0.13780624164163569,0.10076296982326172,-0.09067045087143279
0.30468858911835994,0.23240498108196356,0.343528848567239,0.32251946009435334,0.1020626120067201,0.12229872842393483,0.0725673138902869,-0.13753465311450092
0.2738674435892722,0.2623270107408292,0.30513442466266844,0.2917394537747968,0.06899298677029857,0.07119630641352664,0.003962689832489721,-0.17218829849599027
0.35595934898391135,0.3700789672310573,0.408001580144525,0.3928738000790886,0.10476715964401839,0.14420990980495002,0.10829774377596778,-0.16132886073698255
0.34712693499090275,0.405334341718092,0.4107495795637144,0.3858999434685862,0.1173060169023896,0.14896104781391778,0.10418101450228105,-0.11942039887922987
0.34823379236099417,0.4010343467143915,0.3878938253328792,0.3637807885387384,0.08752970192889364,0.12056450199153461,0.07088093111358289,-0.16461968322476553
0.29211160682759857,0.34864024698052487,0.339510302187901,0.30565228157580887,0.06738401811415048,0.06334927425563106,0.003076594454352547,-0.2331118599555143
0.36553713348887645,0.38767878717978693,0.4234360770605148,0.40254923723333963,0.09679170573246351,0.1442468686415346,0.10636673893027904,-0.20306479299354174
0.3718954286435691,0.3934574478796541,0.41271873083211386,0.39771561693588875,0.10684882334161325,0.1604590312189941,0.11746629602954442,-0.21396990839352814
0.34824992478001254,0.3696961325489374,0.4032984387837416,0.37584693760558424,0.09681001312718485,0.14339421034785194,0.10267427735010523,-0.13991542436080576
0.3127497158644515,0.36194222482123484,0.3574732377890907,0.33343824634097435,0.08703922420141869,0.09607139646082251,0.04310960663899121,-0.1733332665235749
0.3738754883483948,0.36642069273259176,0.42196591420358304,0.41313742966388867,0.10191135276478716,0.1699483327316979,0.12630492352170813,-0.2054853078317595
0.3807618736751771,0.3566191194024708,0.41999442915096863,0.40849562972453524,0.12429464802091979,0.17766024975405198,0.14449990731655415,-0.17324046476001337
0.3699248013833153,0.3885471506075407,0.4036115971527138,0.39438144098316225,0.12034412209195938,0.16371514179083393,0.1256655377242486,-0.1393993088059008
0.32949244565608293,0.35819870693094735,0.36925087740594337,0.3428359622140006,0.09532570492347667,0.11645744282577487,0.05925361166778108,-0.15409633280266388
0.3728509485965238,0.35001333747830393,0.41736295435579907,0.4053631645291281,0.10937132529843291,0.16371687053193598,0.1299790046453398,-0.23421829331274874
0.40394723739948296,0.36756067398230846,0.440217125555514,0.43810967985108906,0.12287775605195025,0.20460204397953463,0.17423202584679093,-0.2432515439459016
0.3942237036108372,0.3360981357588305,0.43038565150451796,0.42139248316116973,0.1304666635570088,0.20201298195774706,0.16038939483856438,-0.20523654882797582
0.35071425640486265,0.3183525703743117,0.39588753344739763,0.3812803983169302,0.1231512608910872,0.15639997824223537,0.11153757821634802,-0.1600479801942929
0.34274358684417694,0.2799619344292951,0.37264031108487317,0.3644629265564903,0.11896981063079821,0.13643999477792546,0.09151881322903804,-0.13161624873142866
0.402009574378939,0.3106342782787406,0.44839929882490814,0.4446502174885947,0.1388687566483911,0.22344232640458284,0.19558269707910517,-0.14287425207124116
0.3977513928507929,0.281958557208402,0.4483660675662159,0.44724283265291825,0.1565511534372162,0.22487224462038502,0.19597050241386876,-0.16572053121122662
0.3856077722066394,0.25841188931690084,0.4246858651611082,0.4295919498776405,0.16048352206936478,0.2162949151110342,0.1768497138271968,-0.08019630917374193
0.34261030405490744,0.24929424709404452,0.38754516133810524,0.39685830362943847,0.15732058566649443,0.18319500859373977,0.11248426862276574,-0.06087826777450665
0.3340756680743312,0.18739272569142873,0.37869501441080455,0.3948385012764716,0.14272310667618163,0.16966663247897246,0.11053668432984623,-0.09147550047839255
0.388093318502825,0.17443753248972776,0.43631520954251385,0.47395367981428604,0.16425387702979835,0.2380248259544063,0.21704705246540446,-0.09199879069863764
0.38307924455162456,0.126258899923529,0.4371687238464878,0.4576629376917241,0.16557512451755518,0.2390607913042266,0.21341822280207862,-0.11292500866303185
0.3721774512903488,0.13697500925939923,0.41215647605934075,0.43493125570243374,0.15811200798035582,0.20924814230721925,0.176058757154686,-0.0966511777855964
0.33266459168110324,0.13484282003780587,0.3682656415687744,0.3811187847949409,0.1423041971219051,0.16489132021043035,0.12437311920319666,-0.06737861003869307
0.3088208359804333,0.08445003188534096,0.3621527989804095,0.37160213148854276,0.12334075255451307,0.1408090382054737,0.09956881992619186,-0.08957337553303546
0.3780946652947064,0.11164890839287218,0.4296448581248213,0.4531059819392174,0.15901906576175365,0.21736432835236397,0.19678212689935104,-0.11735216288853045
0.37566600348216955,0.10928500833697709,0.42270429359904044,0.4508594443042825,0.1582639771238729,0.21887372178846387,0.18281611147262133,-0.07926416364671454
0.35828049664992545,0.11415236686923394,0.40840459596284195,0.4174460465292149,0.16645320446059828,0.2019315302005818,0.15272295892580176,-0.0654807459221785
0.3107037087338387,0.11728540963769277,0.3598053859344753,0.377140325158717,0.12317624019025183,0.14026360086568324,0.09671769313938933,-0.11119792239131716
0.3269133378839919,0.06914563870439508,0.3815131019153106,0.390589540398301,0.1179588435844594,0.14978034457103281,0.10675703625356794,-0.11125714521248603
0.37404380374946594,0.11386018567251766,0.42186118193625316,0.45747095344383765,0.15651875345228886,0.20292215979497497,0.17469310994314696,-0.05261503558229165
0.3623950718768472,0.12634497080060605,0.4110354533797934,0.45208445457141094,0.16325572181356574,0.20492426898003238,0.1707459893761045,-0.035805870119510794
0.3329993489488453,0.12025280122461698,0.3830921557186866,0.39535478999306545,0.14595896204562708,0.16951168681862994,0.1269247048835854,-0.0375235454488413
0.2916066306700799,0.07667291198587273,0.3223432853357073,0.34341976609766073,0.11579965010622774,0.12140210029335685,0.06405811032799799,-0.05905687138537789
0.32833416880731797,0.0937220539507888,0.3605345468959334,0.37784066001571465,0.11681827597861932,0.14539743206838524,0.07658056894916243,-0.07705176150720972
0.3756513393682803,0.1330616700880342,0.42142824974181714,0.4393208623676251,0.1449443106295043,0.2070252249432057,0.16733124388518486,-0.05530783285473681
0.3696820405110058,0.10724996579047032,0.4113099844549715,0.4217572988932642,0.1567790079044288,0.19353806189352873,0.15843295993206777,-0.045772844210898056
0.33233606025282314,0.09787318342732923,0.3732219605251589,0.3893351862159447,0.13677578380075547,0.15754122796159378,0.11398146668754536,-0.04761479133051555
0.2998490106807382,0.059164075492885555,0.32856213314908783,0.3236051575735222,0.11797707179029719,0.11153883042197504,0.05255105301404645,-0.06529709477225093
0.30506857459301934,0.07109636900801057,0.34628376268202393,0.3418362700367306,0.1083858845114409,0.11634345391821918,0.059650794370854306,-0.04146407540616498
0.35944661036521414,0.09959254057114075,0.4092656160920978,0.43275445897701553,0.15309203548453576,0.19096543948750502,0.1631218465198219,-0.001004825217208738
0.36320887994746065,0.10455954030448242,0.4002240004541986,0.43029277075396943,0.14895154995788265,0.1865249080635911,0.14884360435416466,0.027018393755460272
0.33663927726830384,0.0678592057171981,0.36128170493357176,0.3746509400894575,0.143957865160445,0.1481217642472734,0.09638559622366588,0.014838457902166972
0.29026359964591397,0.03965987734372267,0.3278351500534832,0.32079363610343226,0.1012387050798349,0.10079216612756876,0.040016076264005516,-0.05862524243091681
0.2926436228536584,0.03991593214206863,0.329169003148309,0.316612045167486,0.10847637590528941,0.09541405114596191,0.031588302528750924,-0.03848550744081007
0.35546930871536697,0.07458511161846904,0.39348576461066026,0.3936621641594717,0.14300367158193764,0.16925719819752288,0.13046597068391896,4.3155598331671985E-4
0.348218162342435,0.08470227142194225,0.3756321356650479,0.38334877097486975,0.13487309134175324,0.1584251098426725,0.12261941786478478,-0.0027468456640719757
0.32082841588038025,0.055268135154071606,0.3522770744480013,0.372608375739181,0.12295462473232924,0.12843349766347778,0.07912017142769387,-0.016815423304581606
0.27824250244072596,0.04690061214007677,0.3061142578391846,0.31300956483524095,0.0889515389256823,0.07534340208440489,0.008280378286604224,-0.052495807910023076
0.29776451932679215,0.07390130352332552,0.33604163520523656,0.33769193452495094,0.09324568068395522,0.08489592665329017,0.02316786079156389,-0.046691625193149275
0.3521145466883309,0.0825271792091729,0.3853650582020117,0.3971219328090046,0.12286711391264916,0.14920324610690566,0.10821641662367318,-0.0036792701263488603
0.32655200298699144,0.06779377649035814,0.37276076399586666,0.3796483006461169,0.12211747378096376,0.13480428841467945,0.0924166138399092,-0.020112140489090075
0.30101639690682536,0.06250879962868104,0.3214364365472421,0.3593632994939226,0.10305335774225324,0.09692812599119793,0.037293942687313036,-0.02919086491665482
0.26858411870386356,0.03810477837641878,0.2942500577495258,0.30164447572534453,0.07079052607379699,0.04475750862722137,-0.018087671363435795,-0.054628816088671595
0.29366542504074,0.07414722874762984,0.31433422142313894,0.3449473715272819,0.08784163860390065,0.074083602625506,0.00651928403823436,-0.027225089226401114
0.3391503482258706,0.09527613665510537,0.3767706433230071,0.39988574084535655,0.12277453548874305,0.15115682971751143,0.11206745326061886,0.006859704092591179
0.3311429101236365,0.08001750205254773,0.36897501960835055,0.3763158627451614,0.1262166423650603,0.13391362681341928,0.0922083048237401,-0.022977773004664206
0.3061305201969535,0.050362824129105546,0.3352198684138081,0.3362250374789754,0.10538356424673913,0.10092691571107283,0.04293665949606848,-0.03962353850857121
0.2841517146914069,0.03428705942324109,0.30324168457382555,0.31581910645912337,0.09332561583046417,0.06985340483387331,0.010326121235401747,-0.07915067091609689
0.23768917519893698,0.028012888491288662,0.26051306680986225,0.23544063643966093,0.0539015567651491,0.022736641263140067,-0.04814996292845937,-0.0937291772858402
0.18989216811683132,0.009660683105177745,0.19441217552582044,0.1852061277804531,0.037822350890933054,-0.02780891471259872,-0.11335315852900985,-0.06454632825555505
0.11534563791166089,-0.0511299174781782,0.13393634113039374,0.10617811190499102,0.0016150644423440358,-0.09518750177735709,-0.20496490605446982,-0.12004183789016261
0.052848494980269625,-0.09607059793444385,0.05841352370117501,0.03789104219458911,-0.03693189814771791,-0.15325258757886856,-0.281168397202407,-0.11548390820103116
-0.002914366446854451,-0.11534144741700209,-0.004032094399429444,-0.03612408244041822,-0.07439993422105125,-0.2235665543231267,-0.35482049041036373,-0.12569447837065717
0.19007097021667366,-0.04166288894128972,0.20454711744735635,0.1926301234856958,-0.016220354486752075,-0.08264245281647212,-0.1605437810077298,-0.1674461761567555
0.22162099748016317,-0.007825323305442361,0.21978370449622375,0.2230099826871747,0.009569293514603075,-0.029510723942644243,-0.0943983148779837,-0.14080008577129086
0.21632469486426764,-0.054620103221161426,0.21248877427087345,0.2297891287139116,0.014876523715553813,-0.02055102165332763,-0.07988129341331739,-0.14810956547442988
0.16583707983041884,-0.05554298223709592,0.17331200841776492,0.16928898627981714,-0.002355131807721386,-0.059055733577334804,-0.13905554729556763,-0.13504140292596328
0.151956940939238,-0.011960318966979758,0.16919224054945356,0.14080324023975713,-0.008374466790853116,-0.08656278549868732,-0.17469916712336622,-0.11743942410153034
0.25333440356395037,0.027957532043811475,0.2611040957963161,0.24735538227626883,0.04598394942886765,0.0075255718829947416,-0.04987496189799259,-0.08141979311626113
0.2399157494581481,0.005576955906266834,0.2429715803606458,0.2471996365395,0.04584439628268783,0.004140187669666173,-0.06959481429396785,-0.08911239005848029
0.2233161939103453,-0.03277307117926398,0.21314231330679045,0.2166377032864736,0.031145222940896312,-0.015576774071932475,-0.08858026029162458,-0.08202361336423085
0.1650860860379497,-0.011897105364572086,0.1678154080888305,0.15664251293773693,0.008062972692928064,-0.06768569822318748,-0.1403858519347478,-0.08227649055282986
0.24981698878026337,0.03510070948573678,0.24853721760865283,0.24988501588274697,0.05826471685066108,-0.005059969473892034,-0.06270211987593799,-0.034393167599054864
0.2909303774612026,0.019996202936972712,0.29496576144915854,0.28797548333359174,0.08011036268320922,0.05976771463988405,0.0021213385289066133,-0.021274252204695837
0.27234528576967726,0.015540728670215387,0.28540106500141293,0.2848587094701701,0.07768405888105177,0.04758552911923827,-0.015302536454641275,-0.0569576204545304
0.2441831610991863,-0.030318753892497496,0.23885665231211672,0.2544263658736738,0.05448254581377144,0.01032632881709293,-0.04967494390043342,-0.05539719312717757
0.2337154267948861,0.0178084932534896,0.23502544553850696,0.2509793206099292,0.05752421768952591,-0.009578217782509765,-0.08915132806495824,-0.036102276903003355
0.3303955741872678,0.052127856655822494,0.34381237601770814,0.3585533836237823,0.1082693132866186,0.08660407095966192,0.04178673238116187,0.0016898019360701289
0.3205464393531888,0.036673795401567205,0.33617610174525425,0.3536738606411394,0.09970548479806889,0.09540711842916032,0.04491061824691199,-0.026403721562570898
0.30401101180461254,-0.006722257603328952,0.3181350773668352,0.34115547769352245,0.09279498923665347,0.06846002191519779,0.006825913310545634,-0.06464896970001724
0.2689561608025741,-0.02104150770484664,0.28514587607006736,0.29094415111882377,0.07986865990535351,0.0358255840065629,-0.04233201220646936,-0.05719835237224577
0.3016392813604775,0.04438797737115484,0.32451742243160786,0.32395617346995076,0.11003326445294323,0.06343808944081925,0.0015898775752377498,0.015501340090983806
0.36070218808295607,0.06989066064482059,0.39302119708219085,0.4035229547689991,0.15049895889930637,0.1396515805744649,0.09798426796850339,0.039056566752358884
0.36030207215151405,0.03223041850098085,0.3840839446235873,0.3959983641785577,0.15657249750272756,0.13249601966976204,0.08492156344221433,-7.817381629894038E-4
0.33358985119697476,0.02713600358089474,0.3612874588523806,0.3617482346558727,0.1449370528800092,0.10731681641680864,0.03912200492088204,-8.858453430855978E-4
0.31089217093445026,0.026276827484570803,0.3343130206263759,0.3311270622569702,0.11933790537609469,0.07920615440234202,0.0106906545389375,0.012110092260988733
0.38600620805530994,0.12089669297497466,0.41392452291619886,0.4293923339330225,0.17445387336984383,0.15668654144980973,0.11299291903649444,0.05680808829129583
0.3958869215986673,0.10657889560463783,0.42496828008749193,0.4443401315925776,0.1926507810149653,0.1821047797241241,0.12805058626320168,0.0715971168032875
0.37959061852298565,0.05616630931770861,0.41106994219067117,0.4241037253036458,0.17908343802685286,0.17302021913164697,0.11229437240087989,0.04276692307289781
0.34349863990100826,0.028751045338852865,0.37838740479315114,0.37405088309453083,0.1589057591589147,0.13303047693541675,0.06412993121189102,-0.003777571338836244
0.328919995820404,0.04706525138287232,0.3524054939290613,0.3510066561157975,0.14918511759091066,0.12072482771542495,0.04127254512054149,0.02939220074492778
0.40813909316991925,0.12012554640691238,0.4492944923272664,0.4595743502249854,0.2042699240230335,0.20092882674378687,0.16337553127498194,0.07242518846070804
0.41311371798755403,0.10221349695195202,0.46464370109986647,0.4684452129631757,0.2050874300482496,0.21964350983673886,0.17795751615749925,0.05773102710350998
0.40001213204623187,0.05226224329970587,0.4309231194819784,0.4420421715765333,0.19599952790015093,0.21267408163005747,0.15027688430367997,-0.0053013436010305726
0.3789485138891642,0.057194483870724955,0.4059400137641035,0.41266950357241977,0.17891588720889673,0.17121080580225106,0.1103893865546407,-0.008676745915668554
0.3466406773182673,0.03502322161605338,0.37050550200799354,0.36997895009031884,0.14788191044813725,0.1398955674573106,0.0697535595579798,0.03432474286109591
0.4152697765693286,0.0695031619429814,0.4414141988979673,0.4580375425517792,0.20065737433182856,0.2174286398476669,0.1705154699629914,0.037363565653041775
0.41176012783437155,0.06596822375172892,0.4551857308822738,0.4746005864743113,0.2198609257899666,0.2459506434606566,0.19045265059862038,0.005584163002053638
0.4056463910416704,0.03673536193205992,0.4384194464756686,0.4427124770549835,0.20114397841347004,0.22238936202608384,0.1759326806340686,-0.012413037293856233
0.36191680567314094,0.02058798063405487,0.3973541684840367,0.4071769315140905,0.18886238081336615,0.1903660440269532,0.12777342101163544,0.012591409446162757
0.3404924440397768,0.05104928807180477,0.3755958650343681,0.3642759286700018,0.17654117698560642,0.1606140594266891,0.089122891132615,0.03985648925540903
0.38363295869165304,0.09107375606776152,0.42116221257979575,0.4183300102835948,0.19723343147420286,0.20825036598902924,0.16213293936858858,0.018498551409924888
0.40707774763955007,0.052763961192719394,0.43825311058941246,0.42506453415561024,0.20892995140009046,0.241130135548835,0.19179704139684403,0.025764796075293278
0.3913338056488663,0.04802233792406144,0.4168778681817932,0.4324701560560401,0.2000047920231732,0.23686505463024224,0.1901936289256074,0.00531171536464442
0.3638200448350288,0.033916965179730585,0.39030292898179103,0.3941642052570443,0.1937481293316436,0.20469517325495057,0.1508409930839154,0.009464230640765722
0.3295253437521406,0.04003941991964917,0.34961418212944567,0.35669529999366645,0.17172935491242242,0.16443466151087993,0.0952388406803743,0.020264424437769032
0.3711811911372369,0.04453907598692963,0.39794333035739965,0.41482931325085143,0.184490481298553,0.2079200564815979,0.15920180627486655,-0.013544520342051947
0.39382670713138257,0.04085524508001144,0.42321840874470384,0.44820693173123083,0.20022728064396036,0.2480241683099879,0.2091240661089263,-0.026741963374039
0.3826815868783522,0.0334041624802298,0.40246159541209775,0.4254896944553887,0.21089367639403067,0.2479848284433183,0.19962038642579388,-0.005237785203011602
0.3528291605193894,0.057536526706909064,0.3579794243681934,0.39609567585730265,0.18307357725854032,0.20037416808464575,0.15218501387400596,0.0021395862783087916
0.3138353152172605,0.02194757698927008,0.3283325638714998,0.3481174687283596,0.16474544322487283,0.167596523296253,0.10553328897469302,-1.0326512026313794E-4
0.26562068590103505,-0.04070817688294742,0.288859536009567,0.2893806103526096,0.1354471927776134,0.11214601806598289,0.03933824030486943,-0.05937171227207219
0.2122221475376191,-0.052372780034788916,0.2284781575261692,0.2267628229655439,0.10372987258685049,0.05948257036400996,-0.03595444398717444,-0.06680128182142231
0.15955294618572144,-0.06827161877352741,0.16542298283515694,0.16292454027025058,0.0721280737956487,0.0027788922818883788,-0.11087251647284851,-0.0574202502588778
0.10023232613910704,-0.06853182871955563,0.11610905433357618,0.09500409690312876,0.03826357454567754,-0.06115777663461446,-0.18234313846367106,-0.0653736489336609
0.06686553690013651,-0.10648659909601534,0.06702636917886705,0.06377612618733215,-8.215594665355944E-4,-0.11424967858052085,-0.2420842384353203,-0.07595695445207598
0.26330476583766926,-0.04817104274615236,0.25663797884995065,0.2768135866901472,0.09013816457708382,0.06915890577188843,0.0061263056850330705,-0.09383650885639552
0.2763934961381046,-0.024746685678323194,0.2817372554782003,0.28653753459456993,0.10829985733899408,0.11409224760953829,0.05493659829673927,-0.06169540235137412
0.2734047793972564,-0.02905065303665738,0.2815728364670646,0.2777258625550527,0.11239104647065935,0.11183437410996445,0.05301027854806277,-0.044069286765181875
0.2395633598341812,-0.02877482901569353,0.23444584693221143,0.2377947369568331,0.08380190497988156,0.06726356609209994,-0.015062143490963825,-0.061665644148271484
0.2073648756843437,-0.05446056807891436,0.20774785377726113,0.21319805247017537,0.05133648432051366,0.026431921132659075,-0.05598276519555334,-0.10682520987273424
0.29257654491612434,-0.022167365961117652,0.2903515012918796,0.30852338121556033,0.10090376040667697,0.11593615768688681,0.052219238009548315,-0.10058064752902827
0.29480290478565874,-0.02395365069516328,0.30029608542201125,0.31551503190706454,0.11915466460958272,0.12101570183552948,0.06828508924410528,-0.054005162637523835
0.29001550968854495,-0.006403475465390218,0.2801654679586383,0.2938282232121412,0.1189530372499199,0.10532434427267805,0.0478637354928614,-0.042511227836461885
0.24282783082052484,-0.04876633326103258,0.23640280370255162,0.24864456554051356,0.0794932836994026,0.05048675568877749,-0.022040893177545443,-0.0677321605764181
0.22568227400239038,-0.06383641449628241,0.23653777488803884,0.23755408394021868,0.06661113707386127,0.026981521158472486,-0.059039374198920386,-0.09288868894707729
0.33141351710131284,0.0015313442499820529,0.32711970532283663,0.34051669157070624,0.11262590503685116,0.1311309123325382,0.09044305295850878,-0.04278253286117978
0.33733611424954996,0.01303175302625953,0.3475825755285127,0.36488935400361444,0.1295742733242135,0.14065779655578237,0.10607079045152182,-0.00550100572462392
0.31736785542325235,0.010924546713656474,0.3349453777500167,0.3367054675517244,0.12922526081023872,0.12592770287257438,0.07857741201004201,0.009069269702258631
0.2786701046684742,-0.0055291902531693915,0.2848585109026729,0.2865728543154713,0.09947541039100824,0.08337256045784572,0.00683175253231267,-0.030799720498939157
0.2734891132375621,0.007410570627961133,0.2851678575468132,0.28614871456963936,0.09452688226895731,0.06714673435418152,-0.011873439060714287,-0.056548299834184856
0.3642361504461028,0.05070133137914937,0.3817528735015408,0.39789610728172536,0.14271047119240432,0.15166041447333573,0.1068495065202848,-0.0541994046165095
0.35836060781539514,0.07543449557128161,0.3804212325081901,0.39674857585809536,0.13088158802890418,0.15640277065385433,0.10381114491900997,-0.06732408647873231
0.3476258881112957,0.043232673680659,0.3747475716925972,0.38355326876433987,0.14159303441350032,0.1449731857798046,0.0809002494441809,-0.02915624134432951
0.30960980771813207,0.026815529831103746,0.3253107275275986,0.3452575156026026,0.11266080169898185,0.10043868531917846,0.038107247752691836,-0.06779464767027911
0.31351283699371174,0.01697444057199854,0.34596117808664173,0.3577023495639705,0.1142007503083344,0.10888058680794362,0.03407265762432371,-0.0435292054381837
0.3864060882245918,0.058185927012807406,0.4126277668411908,0.43730162808586304,0.1686803618706655,0.1926884025887789,0.14111911057100432,0.008813455160078573
0.38153760991632957,0.08362346752164296,0.4247009007454934,0.43502886290121623,0.170904654334062,0.19036154941781921,0.14436601941085472,0.0161267679898527
0.36035413866838095,0.06714740478034714,0.3998948836443273,0.4073605814035731,0.15282527227531367,0.16829392680158847,0.10190149473077686,-0.034499277407089246
0.3224960544365072,0.026420688948993853,0.36286258267071947,0.3552906291865932,0.14004588907198184,0.12129754204649937,0.04746834630100932,-0.05287693477667538
0.3558520892897957,0.041831820548824006,0.3964740539092314,0.4073495246768739,0.1544161552816453,0.15594145931806813,0.09948314827832982,-0.023162071864658712
0.39377725723170554,0.07380297082690775,0.4477990323232712,0.4597798196413747,0.19942659582392297,0.2247229581800836,0.17921192037610365,0.033566093131458974
0.3969594570459807,0.06241288179926366,0.4411117272187137,0.4617035635679326,0.19526048703058652,0.22634489981741288,0.1751532865376344,0.033332159595726205
0.3610879174958531,0.019557346549891746,0.40688373032223146,0.40163380746038974,0.1742870810623577,0.1898158693225354,0.12822968153886755,-0.03869837998665247
0.3418729379562404,0.017830860913156638,0.39145206599164195,0.3812619530123406,0.15261453976085515,0.1508106430762822,0.0859945194067861,-0.05376188089636595
0.3749533922643704,0.0802831202568941,0.41966526749088723,0.422054333340848,0.16660782214417436,0.17567366159389525,0.12529943221658046,-0.057714534067509315
0.42596500595054504,0.10054467824050489,0.4796953961213863,0.4798257343289374,0.18245585374315496,0.23503495739593291,0.20668579609201934,-0.1146487626480695
0.41250541930344586,0.10907051436044672,0.4793757122385981,0.469323842132203,0.1417171394278979,0.21215201346222165,0.16928622874484403,-0.2851453627654304
0.39079794540771784,0.12389789756940327,0.44946872683763883,0.428339395935996,0.11248084923038325,0.17377892973789305,0.12415676132444081,-0.32996124724783654
0.3423911259712558,0.03835180487384707,0.4003926101974465,0.3928915507811652,0.12769658403191028,0.16218953206208475,0.09036270829144014,-0.22841264303729267
0.3481286872620484,0.055106567924043434,0.4030199689367599,0.40936131967996464,0.13129948404941028,0.15297877291847609,0.09633169548566795,-0.20314391376599106
0.4071759893668586,0.1007490095343871,0.4695446381532955,0.486890055992411,0.1609796935274626,0.23488918716163554,0.1981830732074166,-0.1721809737343442
0.41113003657908187,0.09193871335339436,0.4703121175510884,0.45595783794515865,0.17065888462057713,0.24061677107233398,0.18317985167395479,-0.18262531990226713
0.3767012017686787,0.07091128893509031,0.43895342013656435,0.44454193787818436,0.15539358956535823,0.20567838466934457,0.1599507805633225,-0.21477286287087843
0.3417916530380123,0.05197262504123021,0.39771005273536264,0.392984462187204,0.13915957388687156,0.16808975486782732,0.11744353647665512,-0.19503177989362946
0.35980933763776124,0.10361030368374385,0.4169064607520309,0.4060746673515265,0.1551142399761548,0.18561067732561887,0.14570385179731518,-0.16955995929984374
0.40331366565716875,0.11191786999386658,0.465036633064033,0.4632980506340106,0.1684822981152498,0.24642667317122893,0.2046567523970014,-0.19327183534054843
0.3955701587629382,0.0692527015022507,0.44572259571998635,0.45169953353722275,0.1520338402702104,0.23359790578566736,0.1844206806162473,-0.2352508142998241
0.3601231715144358,0.08142607864667092,0.4084192091883295,0.4032611160663408,0.14973845622303372,0.19146777008785038,0.13401927369658256,-0.231472406742324
0.3192128563299375,0.04937876638477505,0.3710426432712648,0.36201094104804654,0.1218120633398883,0.15948603067486575,0.08898796762028471,-0.18422921344549253
0.28196259691813963,0.031814826652295555,0.3156659335437742,0.3034744126370559,0.10582399988827362,0.10736418536020373,0.03428733347477598,-0.21268803263327973
0.21945003956095524,-0.006662225252329235,0.25098284243266994,0.2357869654202419,0.07415525022591839,0.04289566824729345,-0.047838579954215185,-0.3017576673568278
0.1593980838742243,-0.04285746925234349,0.19818703803825746,0.1752682853828989,0.014818132911536164,-0.01734511210828997,-0.12173108191977716,-0.32745795101243036
0.10629016388821616,-0.07221946326875178,0.1374204016588384,0.12277726639081461,-0.010558848647392635,-0.07424000278795634,-0.19413766671542732,-0.3317898018482568
0.06473802463943928,-0.08869299472593414,0.10204506004633779,0.0729154404001109,-0.03452705267936757,-0.1318371103803872,-0.2467845447220645,-0.3213976349279007
0.26642238849506483,-0.02294220303426686,0.29107877695706524,0.3040740799239823,0.0442514720010493,0.06509263640352633,0.004213625663336398,-0.31432719754660143
0.2929606134946801,-0.0272993865127259,0.30390132883746956,0.3291870561721657,0.05399007082921801,0.09886555423221202,0.0600176474024008,-0.32947453778326175
0.28312942116226,-0.03287424912218323,0.29836926173232764,0.3028615716836486,0.04781281790678347,0.09667226354870563,0.04080841976164416,-0.31351423087019814
0.24344839137857938,-0.014822626834518238,0.2559706332172322,0.2581202641411704,0.04479134882765652,0.06097313597333586,-0.009489053598404261,-0.2953615424318745
0.20646732896335307,-0.020484132695719318,0.23274274880562004,0.22474033236742574,0.027348115762305485,0.020875682108332284,-0.06122645001183848,-0.27476720747713396
0.28131727022733805,-0.008209039608800317,0.29021089791515503,0.32750999850237694,0.049001725961281925,0.08415400329082089,0.03245898675550602,-0.31948312879514823
0.29304367458030617,-0.02124104817277045,0.3012427439988063,0.33465392854451026,0.03686732639506875,0.08598622840272105,0.04871794692806496,-0.345803909703853
0.2804237043092398,-0.014211113943414358,0.2852064847605456,0.3177279291915121,0.04797374742011445,0.07578449364181601,0.025634576256255693,-0.3553896538991669
0.2359199497340415,0.009079321687742656,0.2444027547233886,0.2564029308894809,0.03320994254361836,0.047620841156569456,-0.04165837546480602,-0.3006291169040557
0.23685935333175423,-0.018949644626862175,0.24189355388928338,0.2541425711755624,0.024496503990824134,0.025336139279151532,-0.051869521920058406,-0.32644261652386763
0.3031784734993261,0.012351958957661197,0.31312010474067975,0.34932704797617875,0.05611566880887116,0.10100964793714837,0.062187056707414194,-0.32526771719111447
0.2971421886090556,-0.011116245224263993,0.3083496109389944,0.32269531324219825,0.05220120931645259,0.10447688396762439,0.05468565368665293,-0.3400270779122589
0.29006349461976066,0.027351783051987183,0.2993462859043358,0.2970853130782909,0.05528070927267063,0.07737465581010822,0.029259373897767747,-0.3363265266828348
0.25549788242609883,0.03959531619913439,0.25987855383775904,0.27854629098105527,0.03516754643357893,0.052955147153094836,-0.02050981185636099,-0.3249097880326929
0.27051670494086744,-0.015570040050885248,0.2823848151702949,0.2978338332303256,0.07937485839496429,0.09534316458554234,0.020075744161214888,-0.14454338202262923
0.3286511465053696,0.00586843460205505,0.34109634333444644,0.3674942386359858,0.09152616453833923,0.1468063607691643,0.09822181526464173,-0.22741477704640073
0.3373918550680836,0.07522457690426831,0.3524909160498548,0.37395747383662387,0.07675089908010856,0.11162301177735237,0.0750915445700012,-0.306283581091803
0.3349088339603344,0.11280756699539575,0.33677722276818894,0.346434944902137,0.06005054393108998,0.09501490656856165,0.03280587686751097,-0.3437260350751564
0.29012676946467625,0.07300955459329576,0.2937222969285871,0.30723370268172867,0.06365956248709331,0.06540035060789798,0.0011482303128432375,-0.24757107286983945
0.33536942805934633,0.06698905854189068,0.3581963617587386,0.35842893640825535,0.07727948108932596,0.10829364474704596,0.05457858564097354,-0.3258873748363701
0.3720641077610797,0.06516306189563821,0.38321128419193884,0.40042472395965334,0.06676222234630562,0.13535192091339895,0.09951824152702937,-0.38907794377933047
0.37598919135763686,0.09859749343679507,0.39075915547498685,0.4085749965331319,0.09144544654736368,0.14868745006101286,0.1007505220869121,-0.27929303187153054
0.35659028804745785,0.13281960690322592,0.3685751008339542,0.3680711214952001,0.10595371521186439,0.14509184008140472,0.08959998214323019,-0.1563991123420384
0.3316122370991178,0.0765709862050537,0.3444770216459648,0.3487594463615822,0.13644732927686312,0.13982983320157263,0.08387914988790623,-0.029807322931065097
0.39270204559321137,0.0929371543841979,0.4105956809018813,0.4317514729530919,0.1726442005309224,0.19827458389151995,0.16159112621726268,-0.11579250229101039
0.40616302252383835,0.10857703720894964,0.4288492956394653,0.44036200037696194,0.16982621200324197,0.21570557196486675,0.18073083500014012,-0.08034993402719814
0.39592405676747955,0.174635891163584,0.4190582773380049,0.4340346435655627,0.17223675466119726,0.21270038440599473,0.1627040632093499,-0.04406458867862542
0.36951189368888665,0.18828424446582046,0.3968184015923061,0.3933340186801405,0.15956943361966314,0.17616319250456858,0.10990593740244486,-0.04809933914843109
0.32639401324178446,0.10434644022539429,0.3595316417656994,0.35055693264175547,0.13407459508790998,0.1281282715707982,0.05891548380151286,-0.10578351274936795
0.29591505427934717,0.08005438818985317,0.31423009510839583,0.3001364846868262,0.11151296364392807,0.08304505498162129,0.0022830608570093714,-0.12290473197684317
0.2585429469314731,0.0849167210334833,0.26179752455376104,0.24095544704519709,0.08790785584041894,0.04753144578381248,-0.046148603256842655,-0.12076871560495894
0.2100438368161481,0.07062414727792563,0.22060308663981398,0.19281689915937672,0.06220919993953241,-0.004601578057715203,-0.10788226221748982,-0.08243438123222588
0.207745570345725,0.05466416068176709,0.1965143393913608,0.1755807466090056,0.04012971446640433,-0.035082645223316396,-0.1410533456807083,-0.12162675875035395
0.33510017819685683,0.06468787575582037,0.3308741036575015,0.3279345961607988,0.08326920385612588,0.10255727958960931,0.06192646609138576,-0.21040993377022135
0.33100218229621114,0.06520695471850159,0.3309845646378522,0.3387532171196905,0.08793309097159571,0.11582352029137166,0.07104118602579276,-0.2406544737392943
0.3337336565201725,0.10627624495140509,0.3363715845787146,0.33230338432100837,0.10742623204446305,0.11918369370002067,0.06867791791234837,-0.1623584987686179
0.29576981893114296,0.08102734135752089,0.3102261112973834,0.2797630469060873,0.07874523460304321,0.08429600549822971,0.022321257326655686,-0.12918854281806585
0.30812796385436064,0.07430663716066967,0.3177033489744336,0.29185719863710013,0.10626282082447903,0.09267930418371992,0.03533053798296425,-0.1559406608410963
0.36229101450981605,0.09013072288188952,0.3695058579790831,0.369600318236809,0.11997621715818013,0.16160786992079146,0.12596021212867672,-0.13929095431638291
0.3536798119700166,0.08293630487757872,0.36086622922235234,0.3616218847608004,0.13643993970490237,0.16723543572839797,0.11904747605674657,-0.11545149150367268
0.33089767658830255,0.12390896481723652,0.3424257166857706,0.33658871433682047,0.1244859324550319,0.14273818110976827,0.07906115337787234,-0.07140801866709519
0.3060750433120189,0.09436972323971049,0.3087577137335217,0.3073826970838476,0.1139888483733997,0.10098163667622148,0.02875271086797425,-0.09289591486908305
0.3857247221180727,0.13257443180811262,0.3991449127452086,0.395024946001554,0.1379134813732947,0.1800942180415223,0.13655690849982027,-0.11778130772831705
0.40122888749839497,0.13468118693179434,0.41816365030426744,0.40544802578570716,0.15792321151855976,0.20084191717985722,0.15329210801659146,-0.11272247770217586
0.4000258026129682,0.13897897800012507,0.4138714961288111,0.40303702523063495,0.156402531908051,0.18485334163811457,0.14168040475997307,-0.060312686694228526
0.3567493004785634,0.13563407934078583,0.36179983239434804,0.35369023907561786,0.15220526651616806,0.14959587126626894,0.08674270423848801,-0.034492140104395164
0.37860007280284613,0.14581370169096217,0.3940393564879004,0.3968435030291459,0.15586269180720236,0.18699983199940454,0.13927254189139085,-0.06394855114641015
0.41386838546192073,0.13525520394019652,0.42182856590587253,0.43618394012461364,0.18857313649594548,0.23782009303515925,0.20219919805100425,-0.08373616725899782
0.410171076751573,0.1461454843120549,0.41197849365738404,0.42785418298900946,0.18581013660016624,0.23753681305668395,0.1859560674651235,-0.027503358944890033
0.3819627461028222,0.16589454438670795,0.38629952073641893,0.39219338469287823,0.1921009657323711,0.2098627384101751,0.14735276820116702,0.022409566017282986
0.3836669797601669,0.16287672148644605,0.3879888301276409,0.4021456689564839,0.17681687032113316,0.20814980938906036,0.15009609044793426,0.022143494099316957
0.4387989149352071,0.1535659368976051,0.43825258048010285,0.47770137459600337,0.2172546901142717,0.2699402263052894,0.24028413388139128,-0.02278385430053928
0.4231872724999124,0.13691931322698694,0.4399342578395057,0.466641177564541,0.20747640554712624,0.27948872390058127,0.23174973648266795,-0.03285119108906073
0.4046842690110634,0.14519346784368092,0.42702019479903736,0.4480993942760617,0.20690908927841345,0.2727593880126198,0.21729994056021867,0.015770900353494086
0.38739308247938953,0.1394120713278281,0.41217602239093554,0.43227425213237103,0.20725922342954445,0.2449384520705098,0.18397873935692477,0.044633834069543216
0.44706530362966646,0.1292097365090173,0.47063924533039725,0.4958495425017602,0.2332932613144647,0.3088861176366793,0.2818067467497661,0.03503971474184446
0.4531339199972577,0.12604122961930622,0.4699167451878298,0.5112887635977652,0.2324331693803871,0.31905177723632416,0.2891852279526656,-0.058100525482860654
0.43626164098322784,0.11331795894800836,0.4585082299888209,0.4872468524172765,0.2394856509237393,0.30254820285421274,0.2776084446604042,-0.026619364788213182
0.4052787792394949,0.12761420580804334,0.42844302543741464,0.45270665611824007,0.20558565366363224,0.2672978627096202,0.2229232226768359,0.005746234444899717
0.4089209172073498,0.12826641550385592,0.43455317383761405,0.4524712000090974,0.23237667104772905,0.2834173358846905,0.23502520050601872,0.017707075670979774
0.4525003769262454,0.16027597974464214,0.4881578798131279,0.5283704206908043,0.2562352968329734,0.344807718124892,0.32087943370906113,-0.01899639623905182
0.4435636743890523,0.12396074119167252,0.476977016630762,0.5161001733580758,0.2538322117330182,0.33537225206368615,0.3079696361507898,-0.059430846807849394
0.4200706865382013,0.13741680937012485,0.4588418085823808,0.47609494646759637,0.22726860829946338,0.31343474942421673,0.2841311786760713,-0.01579671261800425
0.40199544773802054,0.16046588183822505,0.4325153605830904,0.44243061492632463,0.23071777468702084,0.2858033778990504,0.2449988541827273,0.0329075259571783
0.4085089171720384,0.15725686093414387,0.4444368532016024,0.45343158271519324,0.22852384978868173,0.2887110643207349,0.25278947011891834,0.04556131579010922
0.4535619108231871,0.15169850108630076,0.4762575489591859,0.5017224024424242,0.2481298766461801,0.3427912042701055,0.32434866307648613,-0.016946402385593987
0.4300950171570718,0.11209962755777386,0.47326149599723105,0.48621337740170817,0.2332110048328178,0.3251471601620959,0.3113576395933665,-0.03653693592150026
0.40510697793968276,0.13101628459576642,0.44540376371459156,0.444560776235408,0.22032268210215875,0.3054652292472512,0.25977059758643634,-0.0239055166916297
0.3833706620648627,0.11488940458417385,0.4036044439739055,0.4104924194527219,0.22368186197656142,0.2687644453533925,0.23350755976126605,0.04278465541342473
0.39015771679573086,0.09733947037521817,0.41317726519485504,0.4249249857640038,0.20672238061274006,0.26476256589667285,0.23343568974251197,-0.028512750351913738
0.4294367508378395,0.11028696824860303,0.4465683217420976,0.4691806060419934,0.2260705764306138,0.327981727757326,0.31049522960911413,-0.046270867385342404
0.41338626023270936,0.0688336437406436,0.44972414673796635,0.47284324191403443,0.2136624383734268,0.31955592471344324,0.29832172963295117,-0.044311197473327915
0.3901095298126951,0.08775352122239713,0.4190584609982298,0.4325716594085146,0.2290836313895743,0.30164960808106406,0.2579551280078524,0.02238815660907966
0.3650974685562908,0.07365717792547095,0.378580636448138,0.39370688068858917,0.22166630766200082,0.26831431358552144,0.22108553242308476,0.06249259511526498
0.3371237609192357,0.05130145393453801,0.36625249077375754,0.3658370107619005,0.20580011377146679,0.23457420321757427,0.18410781095001014,0.02744463796997384
0.3994460905754836,0.033982958088524085,0.4188385432720048,0.42855783085511023,0.21762261747702175,0.3081503085808982,0.28050586673253597,-0.02792899639357782
0.3962119285653507,0.03843193603461084,0.4206745491305261,0.42627691755385916,0.22103580528293204,0.3060297810110156,0.2836896617867003,0.008247010581966599
0.3763878389964908,0.09138836835778899,0.4060060918986704,0.39422393451727755,0.2389068398909287,0.3026775785958205,0.2601404548416891,0.09059634515011276
0.348543137701605,0.07800705424104659,0.3657229319868016,0.34930111957943893,0.21775543415876386,0.24394738430375074,0.1990431457082744,0.06534017242977781
0.3082415889245397,0.0237408185243346,0.3209665790621875,0.2953029507528846,0.180822240019177,0.19619780311360463,0.1374239681142885,-0.0031400102488067863
0.3696435645271466,0.026269014693096837,0.38515215103844264,0.38738842680284713,0.19478339518217685,0.25504398099167697,0.22369899301793356,-0.037359228093321775
0.3713564914862412,0.05108767373134837,0.3911320259148851,0.38620363344229247,0.2168476712585266,0.2699381904667935,0.23854281155880436,-0.015295194073218603
0.36052143991804525,0.07261459601386436,0.3829279896687987,0.3701565699177817,0.20915356775066468,0.2643088641830074,0.22991389185678546,0.06733996132882662
0.32529525862762093,0.06910992754283472,0.3472404990953842,0.3362074208948095,0.18348474632707606,0.2078794387975779,0.16391956689673237,-0.0013287160820999316
0.28454987944539956,0.008224351026024368,0.2961023616129951,0.28833482238698,0.14478970510706898,0.15739367313687758,0.1033382631519118,-0.07137760472147045
0.3460648692105391,0.017864871828965623,0.3723379906506729,0.365883771660687,0.16932252153652474,0.21320027240512585,0.18510384482343162,-0.059841904589526054
0.35954356238450164,0.03912319830242071,0.3731465779677667,0.3798986462748982,0.18860880857467432,0.2340796937114822,0.20318677021691495,-0.019736156606188347
0.3523177402553317,0.02240100754791982,0.3578132291515537,0.34051756236406977,0.1896332846679377,0.2188026428128461,0.18827076473807003,-0.008181063984301407
0.3037009321255744,0.013275080088856361,0.31775699542058466,0.28813798515389166,0.15456856706496322,0.17575708069299237,0.11128933579931918,-0.013735545566721817
0.26587417779563893,-0.006013333885385191,0.27953495628019914,0.23586258096016902,0.1286883283769696,0.11959166048975606,0.05509553602272007,-0.061869354176781174
0.3421449306835599,0.0011535028411805703,0.34280169464347804,0.32781333758095293,0.1627588018235387,0.17976140560438555,0.14232714457039905,-0.029546285480270038
0.35779023412375915,0.013545573086153423,0.3604994799707522,0.35518818084239756,0.18823882064071495,0.20993253606787415,0.17756990558155283,0.008508963748497272
0.35185407539035196,0.042093949589111904,0.3558988688409133,0.33437248593051283,0.1849587613131768,0.20150399103537808,0.15532302325013195,0.018525741010902055
0.309073906450837,0.015484689273432245,0.31582901067571645,0.2938655510433151,0.1594855865945478,0.15287845553912943,0.09507515077398468,0.00333412109204434
0.33045713977197755,0.037768692741316556,0.33602587085104746,0.3157043552013737,0.16808460350422094,0.16188259145819134,0.12541203495200612,-0.013728761591336791
0.302826621139705,0.005564724267524607,0.31104765326654765,0.29915521377051213,0.14026021211753736,0.14906263556905006,0.08923180604099763,-0.006477156486180455
0.28965376309117863,-0.008669238979337496,0.30149946107272146,0.29890405209678794,0.14185113260467522,0.12751319745464768,0.05620445313104258,0.00205364845316839
0.2382793837410526,-0.03347068342400794,0.2205842082540662,0.22344864148493437,0.1185497453209167,0.06483705282517395,-0.013131361862404045,-0.04165841257082782
0.19274552426568456,-0.045266649750997645,0.18416458957296272,0.17087153219500922,0.07471583151798301,0.008039030152110375,-0.07983611477351163,-0.07187615560102437
0.1487524592205835,-0.0529719555579545,0.14097598410630507,0.11247650122731909,0.03805422178539278,-0.04675087276247614,-0.14879333359326585,-0.07828859070135216
0.2720911768164026,6.949731256859215E-4,0.27111789400813185,0.24736829804577454,0.10580189713421104,0.06242645441488587,0.005137572045635343,-0.026163151732150877
0.29670193862415756,0.02170272381907276,0.27781510643593443,0.2660081878152937,0.12149262001287318,0.08247621166458409,0.043178116732256966,-0.02136524715492441
0.27863532341061636,-0.021234665902473415,0.26659352598144725,0.27961243991848955,0.10508749345495492,0.06699719675435443,0.029552515130000446,-0.07919395828959754
0.2233335558293429,-0.04941759727642456,0.22253157653035383,0.21209980888885402,0.08013653307794137,0.03299738817820309,-0.03666930326231259,-0.10113343886373746
0.20126596898117,-0.03943481686162764,0.18890218574482234,0.19064207828528462,0.055559702442080694,-0.0030863419398526604,-0.08766567037717084,-0.0653875418184835
0.29513726228989756,-0.008850214054215183,0.28109155455408075,0.294371976456021,0.1174915958809512,0.0892923759357124,0.0403892369908096,-0.02644171975022508
0.2994287743322709,-0.0255517050018135,0.27946853155840884,0.28629268391119667,0.1250474382981735,0.09122929299171638,0.0465919422803013,-0.03912230719787091
0.28251244574735834,-0.014827376531100028,0.25937786381885264,0.27719348606362404,0.11353056689916409,0.08012844363104313,0.028802219018529474,-0.07205833695841841
0.23406023181353633,-0.040136070215262276,0.21610003690152274,0.2283892028387049,0.0771724719379525,0.026903220650860787,-0.037935497949381544,-0.07501245504379522
0.244447187075891,-0.006135672953155175,0.23856405229426142,0.2507895010886629,0.08724385927936287,0.031450494570818124,-0.023089584094642915,-0.025776597979086435
0.3214846943301891,0.03457138243192745,0.30991921516262166,0.33309194823403737,0.12761913308684805,0.1208012572587136,0.08626157873513358,-0.015979323399411716
0.3121431884874035,-0.003925924914592871,0.30291597215386645,0.3056246842280483,0.1269584588919433,0.10440439463019449,0.07502622676471349,-0.028991446322654255
0.28765677847261495,-0.05981752548821595,0.26855982257574296,0.300288035571557,0.11322358555738407,0.08547233263928893,0.0351973952491787,-0.042546756095858534
0.2491763606479359,-0.03935630914431318,0.24943248664026715,0.2648536567521549,0.09178253073271002,0.0570182250722654,-0.007694613320554197,-0.03627364183313116
0.3202979918563289,-0.0018145554159105792,0.31607557060913305,0.34336333078067677,0.1373039829722332,0.12010383470651913,0.06551583169412545,-0.0034399699029732805
0.3395868473246653,0.020000743179317965,0.3383526866344483,0.37178083866652245,0.15052293535529987,0.14606489057792083,0.10821620119620008,-0.006969850873408956
0.32655830528997637,-0.0027809287101669133,0.32538781527098587,0.3644987498514372,0.14063259182397325,0.13895965518850711,0.09173886996630838,-0.03494559308117695
0.2904428914024609,-0.045419429733628225,0.2925193476264636,0.3081261237692504,0.0998601241593221,0.09744237460421117,0.03493341966779142,-0.09695606741201675
0.2927451398756409,-0.02629336323023665,0.28070702195614916,0.28387649546985727,0.10995938937330471,0.07487812779559719,0.023859694452049635,-0.09522513407474568
0.35995941358973854,0.005770092390679715,0.3720274848302004,0.38567475263246775,0.1581093151622277,0.16735770791446575,0.13272839598621453,-0.044263713531159654
0.36360701149466057,0.008483103865605551,0.3841708356251669,0.40423774236267745,0.16439033816413234,0.18792502270554864,0.1469972728485468,-0.07421389083404784
0.3545778760592857,-0.019874298866952245,0.3588078482468763,0.39197682351889374,0.12875920726305212,0.1612315848748623,0.12236713496353235,-0.17386792744909849
0.32251066657034166,-0.025338396850987432,0.32930052145968475,0.35668718143936506,0.11803507935923609,0.1265149677257769,0.0693860151362776,-0.19838117063297428
0.3339861578964646,0.016285296786117648,0.3402407402990321,0.3382978619242589,0.13154372236845766,0.13035048081731926,0.07574576455216571,-0.11372189090664078
0.4088910368270319,0.04938807862790781,0.42486139520178196,0.45256752888601254,0.17726620161421708,0.21033592379156374,0.1847813796603998,-0.07855392298780112
0.4021821354556254,0.03026988587980778,0.409303395458033,0.44094291155024395,0.15265481169059364,0.2012328584016015,0.1746334254066733,-0.19340393177594492
0.38890301799986354,0.004177498575468591,0.38629320978184856,0.42308547261889623,0.15787498481766,0.18506300800800563,0.1480278972143041,-0.1726187646662849
0.35275133774531575,0.01969854522182174,0.35463590665447725,0.3709203088970382,0.1394774962922583,0.15755102621906872,0.09276348414310537,-0.1835974560110232
0.3361534605715949,-0.0037355678948148285,0.3526628346481417,0.3659485485630095,0.1439014072087776,0.13584582250546895,0.08897963652554997,-0.15140307181916704
0.4128838690927924,0.03521697806610083,0.4191910072396319,0.44383526256657213,0.17436029415156856,0.2034356183021368,0.17715283783876767,-0.1314105962769018
0.4061333134475692,0.027264693452604072,0.424824992932509,0.44981103595143646,0.15887837942932465,0.21666105444478195,0.17643291103021877,-0.17846875237094453
0.3926726693962648,-0.014684901217736662,0.3953304945858408,0.42117367244447473,0.1629604457382896,0.18854795005376995,0.154258299710345,-0.18661067859750283
0.3446777653096451,-0.02644321860626092,0.3572535078991333,0.37297435587639083,0.13756495871555668,0.15794087763431025,0.10758965830210257,-0.16314795533169923
0.3426503202384133,-0.005847256384859695,0.3715478232300526,0.3806621346284276,0.14030370667828895,0.15181966610908662,0.09461675515519899,-0.1577527886372695
0.4026465571342639,0.0014610661615507003,0.41662297338545695,0.4531045395205391,0.16560175254018455,0.21790419919652287,0.1818922743545717,-0.1637977704121371
0.3850194714896153,-0.0036448328989612255,0.40900514035022073,0.43121769359825224,0.16274130903901873,0.20915893366558191,0.1783794164904881,-0.18127257540768427
0.3642440490775508,-0.021116570026009474,0.37428069581907736,0.398774685986784,0.15354646414376286,0.1892996279779941,0.1445361814909334,-0.19638593660115308
0.35801036962469535,0.0036660405980639688,0.3818860613356136,0.4045139192861334,0.1488861387476156,0.17403769405496017,0.12218735014221849,-0.18404688324281043
0.3867828919279357,0.013526163490720805,0.39611245329170147,0.41928261182304044,0.14767533981916492,0.19938187565079296,0.16966805765976034,-0.17384578581596724
0.36361435149929433,-0.002886316325942051,0.37145130552277733,0.39195256525420796,0.13950064527628533,0.1722914498375046,0.1323074706959132,-0.22475595103642595
0.3298549195210193,-0.02510474885988001,0.34166919554390407,0.34651670399540785,0.12162007761471397,0.14070080276052044,0.09071817458732652,-0.2183002017949806
0.2896159540821851,-0.053734945404361106,0.29294585460981903,0.3006457913568454,0.10397835563799812,0.10603723326266827,0.031208661506215152,-0.23226645778944668
0.2566772729150268,-0.04853507124414616,0.25013905883640003,0.25322116198260614,0.0986206097082099,0.05696520181807475,-0.013541532870616074,-0.2264205145912927
0.29902625098204605,-0.04282935952086672,0.30679832973431553,0.3172579872235272,0.08522175823387966,0.09434721893071474,0.03499724705377844,-0.27302242561741663
0.3566925256434042,-0.03308112418447576,0.37279212276903484,0.37288024364073863,0.12141886024921231,0.1639889396779167,0.13984816998451152,-0.2674987573960307
0.35817647052248197,-0.03777308338673002,0.36188879612820574,0.3681123549432286,0.11410192766023618,0.16333879290962997,0.12948269955792413,-0.2527033130711865
0.32427418740362335,-0.013257802154081844,0.324181888236188,0.3199951491300792,0.11862520841931061,0.141360092794207,0.10218388924838448,-0.24198599539546822
0.2998410029658469,-0.05890595120107445,0.29889187252665306,0.3053322187790217,0.0972814586427476,0.10568350256606918,0.0496877904155497,-0.22980802118858068
0.32464656208771403,-0.07485838341196002,0.31786544108797404,0.3431903123040897,0.0809763949820128,0.10868626788312966,0.06722620527469517,-0.36014681270486937
0.3582395487512708,-0.07811482917170309,0.37373107305895253,0.39901786713012655,0.0966244632770528,0.1668829591492889,0.14621334235262168,-0.3421885606608886
0.35605935029074803,-0.024295879028259193,0.3633605447610811,0.38795853764089483,0.11518750061131641,0.17475909184539615,0.1363334283591212,-0.27373771986581635
0.334342895738203,-0.03828320046291825,0.3336988453918252,0.3522768205897827,0.12099104494405458,0.1398562529291045,0.09109176648748551,-0.24001522784064666
0.28644714314901465,-0.05439991914409534,0.29469970863017586,0.30676019625423745,0.08187008781651167,0.09528522449344783,0.03331215109731614,-0.28784599820331513
0.317620923956398,-0.03505695646104484,0.32794055127468896,0.3463013850671245,0.09417766352054947,0.11042955752322164,0.07006154180010706,-0.29620105903287053
0.3680087161430407,-0.014728811848630785,0.36790405929972714,0.4003325480504729,0.11196288499806317,0.17444045655868948,0.14072860889183386,-0.2779582499950918
0.3695062897128326,-0.0343339728293518,0.3720342833335831,0.3873481859424287,0.12469912222269341,0.178899503685434,0.1383826989440906,-0.22579497131206855
0.3408430960118465,-0.021363641896843283,0.34401252667853666,0.36541092580503964,0.12025853368599393,0.1503497455932858,0.10853453074685881,-0.20343067860004965
0.309264661867722,-0.0429399199598024,0.30814870057275257,0.32765293581936805,0.10106769144032177,0.10587637055429515,0.05057497120242871,-0.23644978213093976
0.36020739186428047,-0.027520651121606843,0.35622144732388544,0.3819262659836127,0.09997474553156316,0.13948090000739766,0.10279673154602964,-0.29594719542858555
0.3795111584293304,-0.02109821894168562,0.39940716709374835,0.4270510025955796,0.11226749138084491,0.17690325226785986,0.1382862354219759,-0.300072618929764
0.3717238600457114,0.009860954655772886,0.3814813227296977,0.4012559135686879,0.11883182753864471,0.1612373995502603,0.12910536650627205,-0.27546105343033545
0.3394161859919071,0.009566774576327902,0.3456365209720832,0.3630964773476189,0.09914167003285407,0.13031664670128584,0.07456406485053518,-0.2582028372438179
0.29931758249947776,-0.056876174803366486,0.3071573092663299,0.3139488381112891,0.0777244878996759,0.08687339727778014,0.026430284758261688,-0.2984549315020698
0.38011536051731665,-0.025299979374097392,0.3928112665254867,0.4106823991685937,0.10627290946690918,0.15698694761001214,0.1276037828455684,-0.32478258353598566
0.39389113667206516,-0.0024399641008070183,0.4077131764691371,0.44315108857407665,0.13725862298210145,0.18733736778527885,0.157080002880785,-0.271916600168
0.3969209884068944,0.022284523781634397,0.4049106378477415,0.4182529978610007,0.14087002024270176,0.18270504245535998,0.14650091389234193,-0.2265142231271012
0.36221948746489263,0.02921871324749281,0.3542071681845736,0.36889697693843204,0.11440139466462526,0.13991908298398953,0.09298166238952701,-0.24150989889682092
0.3135949640488393,-0.028547842507201188,0.32533902761956524,0.34450102739156163,0.08395738548230748,0.10453431671146293,0.044667369053352356,-0.3438543349427394
0.39458423772866225,0.006143933218441949,0.4086189828863209,0.4260017132253689,0.1272392305725939,0.17332029115374853,0.14474594302836624,-0.3123289285388977
0.4073340211528555,0.015606861463331706,0.41522493509635444,0.44289892110724316,0.15345533193977828,0.20553615579100026,0.17943301480824222,-0.22853772164311345
0.40128978922229064,0.037344469067493696,0.40378705454008806,0.42404479259101874,0.1610012503854928,0.19406603629514566,0.1522373924932984,-0.219776051205358
0.35875853119354867,0.011905293214394097,0.35969749340345697,0.38158019068004523,0.11959553326193131,0.16041533933540852,0.0970681587191826,-0.270032324463672
0.3242790725654298,-0.035923367572456705,0.3415207317030398,0.3404987377874469,0.10756700400437316,0.11447004774511452,0.060437090530632946,-0.2941095436139619
0.4029226243431707,0.0130452272471073,0.41546418402821106,0.4270868547529825,0.1557350419770322,0.19198291342256005,0.15864586820719728,-0.2448672761660122
0.403730793912009,0.031532955476085034,0.418044400373341,0.43806096529916,0.1656668830895331,0.2088994548632055,0.17446135821074377,-0.20488072961174036
0.38131485327663145,0.0388145181525002,0.40365381488829594,0.41920952699325764,0.14719055438632575,0.19761306782876586,0.15461035131209067,-0.22113798431851947
0.3439283503141069,0.002832017859014574,0.363264837214818,0.3725846520295463,0.11927519506750388,0.14395985211235998,0.08558262657155907,-0.2720997705234518
0.34697511154794425,-0.03352887255693379,0.3573745421388372,0.3733032327591087,0.11501728056052468,0.13460177844024016,0.08460974993643791,-0.2746954697326462
0.40028466769493515,0.012781420986741288,0.42591314469730723,0.4501849410534665,0.1732247337753653,0.2130548538537207,0.17425516905371297,-0.22068506577769123
0.40642644954225676,0.0017688385307674526,0.4228247198577705,0.4378490039399455,0.17444069285941435,0.212700488662448,0.17774329468626215,-0.22373852211319498
0.3830837842089887,-0.0020524017526297456,0.39622135861785945,0.4055621502761925,0.15783251120562453,0.18554334844630085,0.15209841117411094,-0.2411269476533011
0.3506496800698202,0.008199226581464575,0.36791274944298624,0.3656295637629423,0.12726620941140016,0.15272230598560416,0.0906930712838164,-0.2948470696702141
0.36352280222477484,-0.00650973802365265,0.3623179243908895,0.3830075776497307,0.12738645172022786,0.15041345183412203,0.09412216482207325,-0.2884504888941396
0.4236553395328396,0.03493956084321154,0.43414820755586037,0.46426450541514586,0.18010264418368588,0.23156709197984363,0.1879111776734023,-0.24659077998758802
0.41746586470842845,0.04948463608621648,0.4331667302434882,0.44747778929216075,0.17463751773083408,0.22881884544835338,0.18851245467055783,-0.22149718753518843
0.3824484654665968,0.010484433616401612,0.3954817347681129,0.4089051204861013,0.16375596649744076,0.20433325702193028,0.14894433839453586,-0.2486876725966734
0.3545493980035084,-0.018456631735752543,0.3389623546165948,0.3700504779481339,0.1296844779839449,0.15018485591506947,0.08938015782995652,-0.25285434717683486
0.3513916345370826,-0.02446006240984719,0.3669101291029233,0.37802901894267854,0.1316935557591852,0.148097762061101,0.09619536753103848,-0.2504123870945919
0.4070453232445418,0.0015015764468899462,0.4263877153127902,0.44447383129513274,0.1773912452801913,0.22964032735645357,0.1839943538837795,-0.22241220515978116
0.40096150203454006,-0.033982000923429345,0.40955110354712565,0.42660801599466763,0.15342587966146587,0.20495317825716142,0.1713392418446696,-0.2810197554805464
0.36141009495593135,-0.0284487939673935,0.37468136873978586,0.39145234712794275,0.14336970554736167,0.17603360726883444,0.12694029401297702,-0.27444438220408934
0.3228748487407589,-0.06751906385685655,0.33625284129413247,0.3456193379642801,0.11188419219607595,0.13539191139670448,0.06307424010107993,-0.2993629932292098
0.3688424436616353,-0.03534429725708155,0.38634423210040325,0.38803545515097393,0.13655986232277514,0.16902235372770807,0.11311811983041002,-0.27842872516246153
0.397458239202068,0.005445905380077498,0.4055170998995733,0.42072654383856606,0.16787721182830959,0.21017364488485846,0.1678109619103958,-0.24735347027330407
0.38667676747761204,-0.004688792264411795,0.40419466870120097,0.4172010826908209,0.15207961501589956,0.19973850108424157,0.1458823132048573,-0.28969967508911443
0.3469374443560178,-0.05321715524574716,0.35569990439400667,0.36622703718194205,0.13032588966771239,0.15278652967426198,0.09094688048433815,-0.31705073669428546
0.30590821800843637,-0.04404513268511667,0.3201723376447932,0.3248077837504511,0.10734898195660655,0.12083863313871751,0.04182874168393616,-0.31321841853506494
0.39962312837538466,0.007512401706876309,0.3989065689085467,0.4182246150905346,0.14391832211265748,0.19320392714970908,0.14937154282135356,-0.2711822520064968
0.3989013306773011,0.009482407657819492,0.4197561185648797,0.43925435493618853,0.1712509115038564,0.2196427689661153,0.1803308266152061,-0.25305012178158515
0.39068220172350543,-0.016566585037694204,0.3940501298680768,0.4188901560257975,0.14865288052535844,0.20307676906342093,0.16040159393360182,-0.2903340402346366
0.35100913536790257,-0.03315194785850312,0.35482470841766056,0.3759982625139079,0.1283342852049679,0.1684789363909746,0.10173090132977766,-0.29708592846140347
0.32977877809380207,-0.019645912095317936,0.333778693348587,0.34450382760193393,0.11268393200550997,0.1304897219807555,0.06204758883444335,-0.332489874372376
0.40036968179005894,0.007413869277159202,0.4151603121313172,0.43159343456991106,0.15216431419237567,0.20698312016999343,0.15699583976504328,-0.2846122280027634
0.3855569962694793,-0.017158131691015155,0.40938437131716227,0.42947226453614257,0.152680442263933,0.21323147164834408,0.1679620814904543,-0.30694692018404174
0.36781141125208766,-0.03363510208105472,0.380671507135818,0.4029205726612415,0.13768392868639878,0.1810767384442371,0.12610395744378997,-0.32859818137559116
0.32639650271280607,-0.052985695319932746,0.3308049785515707,0.35444910196330837,0.11203110450058099,0.14126707066299468,0.05557003990804062,-0.32800130347163814
0.31789505811957364,-0.045185230997040665,0.3244392197358575,0.34430795671481274,0.10499064562816202,0.12029939578362699,0.045020609274630086,-0.3191140814143244
0.3892705345726364,-0.039225947627946706,0.4011787245083742,0.42003368673991753,0.13767791719392808,0.1970083903908394,0.1572103672606299,-0.28284397998538985
0.3727932210204165,-0.042651852629671305,0.38739802544431695,0.42061589884479966,0.14256607021334672,0.19316724702940882,0.1396965354108624,-0.3175561729762981
0.3467854162365882,-0.05792440268440752,0.35337804260396183,0.38453382989939217,0.12171996659787436,0.16265317591358033,0.10815828831739144,-0.3812352425640485
0.30346894235320976,-0.06312038072449289,0.3062748759663627,0.325102119800978,0.10638443466610153,0.10649093862864341,0.03206739459782997,-0.39667546070003173
0.3514162704580198,-0.049697021369835365,0.35309178432484284,0.377581265625415,0.11021285014062152,0.1481167624027966,0.08940172083399801,-0.35912745385573575
0.3875489003291396,-0.033538554681426386,0.39004367662930106,0.42064893629584277,0.12851152744560324,0.18421670773922655,0.1480801102104391,-0.3635078833164761
0.3799745350178014,-0.03299691360234491,0.3656560057191656,0.4034303867301663,0.13169364108962095,0.18375121606361566,0.13687922302427988,-0.3353020669936402
0.3377275145710013,-0.0370457053830027,0.33291280598088807,0.35760976387776394,0.10531363333119922,0.13625405736832458,0.08454940744221362,-0.32767967748751425
0.298416856116303,-0.05077278263787935,0.306139249899156,0.3182598324894877,0.09452427487171244,0.10111265159701333,0.023783859334613678,-0.3374478571132282
0.38944238650695895,-0.025922362762346385,0.38203366434858393,0.4193660850034452,0.13185163376018774,0.1866234060590007,0.13819782639705674,-0.3194784717828239
0.3841622101432695,-0.019509924791319272,0.3817494923701499,0.42878897266275645,0.13122208212312123,0.19756712240735158,0.1524061674736882,-0.3200633339150326
0.362549564528477,-0.04283014883680625,0.3701071764033427,0.405636615154282,0.13006219661301444,0.18002209445954095,0.12069327307766803,-0.3484831619363624
0.32031893660043487,-0.05883656717998956,0.316896905106757,0.34279292076084805,0.10001316844695018,0.12783278360292535,0.056919818238070685,-0.35879890089388017
0.31823469994138154,-0.04908171665520669,0.31916655235224733,0.36127417965670483,0.10833984616266984,0.12539728273952788,0.05567772750085406,-0.33580242065863064
0.38114398290308216,-0.039084722617623746,0.3900723214184346,0.43318197705540545,0.14099159754199103,0.19727310262254774,0.14465368181174743,-0.3467694584820368
0.3740077481826069,-0.06139810012455127,0.3673570871532398,0.40157635728280916,0.12360785415718503,0.18590422266571996,0.1367811057802402,-0.3645457290687264
0.34526686761324565,-0.07012282555110982,0.3462579243402184,0.37801337463722007,0.11117935833717577,0.16409797405713525,0.10002974333145408,-0.35949183806125573
0.3120556669237457,-0.06659877651879209,0.316597054822313,0.3400967786731132,0.1026243211324358,0.12053695702583736,0.04651427383579245,-0.373471999809463
0.3770804760543225,-0.06740760957435879,0.380749478864633,0.4164103083468508,0.13214571438598788,0.19021640976824772,0.13859825975430146,-0.3629698889829732
0.388569112013772,-0.06796236211158058,0.39171315119217504,0.4474927453001284,0.13615651813298718,0.20149181588611026,0.15986172442242064,-0.3679459309410568
0.3733269168248135,-0.07541641348070008,0.3786214518478388,0.43604324460450183,0.13004123235632925,0.20020183339505546,0.13942547571368719,-0.3904625667478825
0.3343098396464119,-0.05815761385916596,0.34382388457457697,0.38285234746138785,0.12978772472302358,0.15363075618925448,0.0855661731781355,-0.32111148466386275
0.33319320466517505,-0.03381435273834901,0.35194971789674345,0.3970532524491499,0.11884331235743728,0.1540672363617349,0.07925190637450927,-0.3360968583971391
0.408209166801043,-0.037153444587997186,0.4254532566391245,0.48631931694479313,0.16492823774113008,0.24370231456347957,0.1983298667529793,-0.31910454763443574
0.40027237764455637,-0.04197416981501911,0.4205355857063981,0.46997137813270523,0.15662220379202926,0.23965145617449674,0.19225953151080633,-0.3405346864325529
0.37499303139975887,-0.04735085687062782,0.3884590525856889,0.4320906952838206,0.13892331616467768,0.2101180881054988,0.14741589615366907,-0.3470073593189178
0.33261056713191484,-0.01627188711810887,0.3545390992656003,0.3961111132674133,0.12709796794806266,0.15797733775816886,0.075347690325456,-0.3601942953954781
0.298731527968166,-0.013765307876662358,0.31754808854199346,0.3412268712799659,0.08600793178185602,0.11384289416042867,0.023637431763833715,-0.3882621986756996
0.23542934387127323,-0.05893432031848911,0.24827624573831555,0.2655963604622151,0.05783324490041686,0.04985060213193756,-0.043761366099761195,-0.439321598254374
0.1756632356384818,-0.0671711637881211,0.19274417655672113,0.19948651081508081,-0.021494232733541466,-0.037327135594198556,-0.14982491203677745,-0.6215079341609258
0.11973361753841673,-0.07938559547211793,0.12749169867354831,0.11052925330702658,-0.07351663739649025,-0.11471628841946821,-0.24507887599603195,-0.7231829339874727
0.15666225410501233,-0.08059489107516471,0.16485166230962323,0.1569302473480349,-0.048859543989332524,-0.08204913116269083,-0.20990475357478877,-0.6161760991297389
0.3391720132601079,0.030045845017339312,0.3423335650889098,0.3534774664865954,0.02685227165328645,0.08688211914688239,0.013772383213191769,-0.6101143017627755
0.3383721460506424,0.02923618330159336,0.34406588461782367,0.3650144724139742,0.014507557257700164,0.09048320639601948,0.013029479701574767,-0.6355619524494877
0.32006426298776736,-0.015086462459417693,0.3140943660850254,0.3242375576627926,0.002512521104028026,0.06237892104356939,-0.00554082098696132,-0.6683044139754151
0.2627876084216503,0.0029358153422858746,0.2597710990294409,0.28274875399955746,-0.01941082772880967,0.024136296042434363,-0.07578082990099194,-0.6397552167525804
0.3574981434405644,0.045467798455370634,0.3545083267557099,0.3860642941875188,0.033082647319692356,0.10210985771808848,0.0311766760515028,-0.6025445417173003
0.3747999784906473,0.04803176115851873,0.367589060112378,0.3965751151003034,0.048260972470508076,0.13183488895763737,0.06877686478711512,-0.5726128316995608
0.3450917992994019,-0.0023981460930502796,0.3523366346824315,0.3703955880055313,0.02343261795401297,0.10670590665207322,0.029054398008269505,-0.6119980340001364
0.2860912881702946,-0.03831061339805705,0.2831497382188409,0.3105669925137949,0.013849269376961439,0.051594169012299546,-0.027925402668082397,-0.5966670647895322
0.3673643842573209,0.022783179746781512,0.36118158296942465,0.38284461037541767,0.04145338629260372,0.1091594754969491,0.04453470604413508,-0.5561435664741752
0.39597956301396586,0.04639264304502935,0.41337072010310744,0.42790344061268487,0.08831680665686083,0.1842164071843444,0.12258524000854398,-0.49527033923310243
0.3820740781643627,0.023513682611017495,0.38444145523916967,0.4314149548094536,0.08481622748320577,0.16869109435574153,0.10737911833204972,-0.5147711641252063
0.3467515547796857,0.011902485327290824,0.34679785171324384,0.36433259545731184,0.06346074008096271,0.12362370736934566,0.049596778888944794,-0.5465638136125843
0.3945811663828455,0.0166689466464989,0.3886573401281826,0.4260750720292589,0.08273663929512921,0.16146071413742877,0.09463059918660299,-0.48494072532537813
0.4390979128430989,0.05355038780415439,0.4457956589124803,0.48595948259097843,0.125624393941596,0.23740408340055666,0.1710794388910399,-0.42584208570899995
0.4351649272788334,0.062107656699366465,0.43802438406362,0.48191306131176326,0.13454433657981466,0.23161771550145238,0.16638025951872465,-0.41617369703929497
0.3960179220848168,0.043180132081724276,0.40495571724150803,0.4600882430372558,0.13101225636936664,0.1924790729162331,0.12032407351968535,-0.4064508875488866
0.42978392686027383,0.05048355573425786,0.4313186224020935,0.48771389587571784,0.1411593082735243,0.22129439858149524,0.15151849545783116,-0.4100756835833561
0.47463922568704897,0.04833835139702117,0.4871948547078692,0.5339135656884845,0.168461492603189,0.28043415339974115,0.2276270224372623,-0.3775071953780855
0.4701136238739575,0.07127138859248866,0.48503931120173277,0.5258087072784985,0.17674138005397005,0.2666213390313904,0.2136002729126957,-0.37082801946688737
0.4276505021712832,0.05430742830772628,0.44158608113609793,0.4530729050907255,0.17581295505487313,0.2380654705598917,0.17204600468435804,-0.34767384756898223
