-0.006306408367057344,-0.05911152110146244,0.027630585942129356,-0.015281056503132872,-0.01927601326564288,-0.014446824804905802,-0.011168524947623935,-0.07162537589917313
-0.007029931387113681,-0.051519436548647775,0.02298288458028122,-0.012690202996641115,-0.007055890795370825,-0.003831687149002814,0.001541172978701059,-0.05290135245625904
-0.005043107990633055,-0.06257046336677988,0.028678403046598105,-0.013727827063208329,-0.0016574169015387955,-0.004953437537067855,-0.0010337953631394728,-0.028672375991083104
-0.005604680070201496,-0.062391136684542874,0.03155808278843837,-0.017030673253771694,-0.011928142749301176,-0.016518422908787328,-0.0068941601665265684,-0.04739544192844654
-0.009473525892333743,-0.05522478186915191,0.02574150874814061,-0.01872397860078403,-0.011019193208463432,-0.01675637907104393,-0.012459505958622379,-0.054996285320353916
-0.005884916583351651,-0.06201853450839283,0.024838328151994174,-0.021962714638635212,-0.014190981312551676,-0.02312703483010121,-0.019114214860370096,-0.06834809561815054
-0.009104335227562441,-0.06599428155126293,0.024245259350820385,-0.02135755765440951,-0.010560020131545745,-0.02129346108440122,-0.012429944520665079,-0.07498934301248954
-0.0047237106095822014,-0.07342500963589411,0.03276788740082058,-0.01774542914766996,-0.008780037344233358,-0.01923705778067639,-0.004222501247267237,-0.04903714964503002
-0.005291710542769348,-0.07833857401068417,0.03634147303991597,-0.01886171284748019,-0.006275667619750025,-0.017844599535249472,-0.01326655758857582,-0.05481724689023535
-0.005593992630649775,-0.08348205236077906,0.03494058200279517,-0.02224310776658605,-0.010183931990615768,-0.023529276989959817,-0.020563001498085594,-0.05723636558532983
-0.003902204771488954,-0.08245314957208613,0.03213979850882603,-0.022380192258728532,-0.009402273437134125,-0.023508177332172562,-0.02709943170170312,-0.07088794197270971
-0.007388184379030739,-0.08361023221005523,0.03654500621579883,-0.020443084111087004,-0.006355226263525743,-0.021868000945376845,-0.01562774853455324,-0.07186102437852804
-0.007359572994847517,-0.07879733119267354,0.03482325258174137,-0.022257008284736673,-0.0049247673615707855,-0.020297338230454088,-0.015338324011023327,-0.05217607389523704
-0.0065250732525017514,-0.08051930227378687,0.03889126927075947,-0.02308526354714266,-0.006864018969838577,-0.024167774190241992,-0.018185796420666676,-0.04068394397135186
-0.009351453650159635,-0.08054105089028278,0.02812570768971113,-0.02719017480692704,-0.014671963193080327,-0.025025132379074267,-0.02591397406327462,-0.053520093729288384
-0.01000507096747149,-0.0803415072824493,0.027872773269807395,-0.029140597187727248,-0.01946936846533113,-0.030003737557241207,-0.028746435565336015,-0.060525683699937056
-0.009116209196471922,-0.06890941351709713,0.018339143915774174,-0.02258143589983928,-0.01571301751110463,-0.027804616532795746,-0.027474182158605726,-0.07734683542480915
-0.009090496790053665,-0.06816926330015159,0.01588452623936911,-0.03085982586352596,-0.008540710554256127,-0.019557181367966962,-0.019263332242451244,-0.03283961871672527
-0.013593743371925817,-0.0691336846663041,0.023027532570203194,-0.027189859933407952,-0.008546749395920853,-0.022418349151376405,-0.028427907660905295,-0.015609007539543276
-0.007758789860442262,-0.04583294292420538,0.014726287623964515,-0.02195832620509505,-0.0038580141617064923,-0.027567040998903072,-0.03405381120427369,0.012230524470511385
-0.01822859274559089,-0.01946901995848202,-0.021865205155811307,-0.03018280550064259,-0.011798350206485585,-0.03647837538716985,-0.04658714742220998,0.01981465870547123
-0.017142076047268383,-0.009495423037825024,-0.03400116569023938,-0.039821388577243426,-0.019060747062925713,-0.042745888853720326,-0.05614178969635925,-0.0023165561217677252
-0.009066251500762124,-0.006217020918814505,-0.017903588508425983,-0.027696410607527266,-0.005578311337549646,-0.03328197275431131,-0.047920109119386774,0.015931519747859443
-0.005672972336654636,-0.0010414414243367796,-0.029623075748676442,-0.038500477182791856,-0.00822570284354568,-0.03928456934610557,-0.05363543822752934,0.010605171787914282
-0.015776078740042252,-0.002586641928723929,-0.02992148626994727,-0.056409356568440296,-0.013640188512208678,-0.03873242369655501,-0.04770532037409595,-0.002597349811806019
-0.026235035500115952,-0.01929774372579775,-0.034091049229171985,-0.053548545093805515,-0.01890575586290628,-0.03893951061408359,-0.05053823936533063,-0.010153282263383391
-0.027439131333338432,-0.033218008658456206,-0.02788649992532777,-0.04847996854038058,-0.015084972477474722,-0.04640485948330543,-0.05084991758253971,-0.02520803622318042
-0.022057264762138196,-0.03454528803879448,-0.027926757291738994,-0.04669735546189265,-0.008694817484658852,-0.03832725102767733,-0.04441124246583886,-0.029901684913179644
-0.02273462129835611,-0.03663887252655043,-0.01774228901213385,-0.04343269073623769,-0.002896049847792972,-0.026562919079360828,-0.03729473460628164,0.005171843274756027
-0.01618384351902661,-0.04545208830658362,-0.013234880633413377,-0.040145447452509204,-0.009366331129435553,-0.03704166158747593,-0.04052395809120966,-0.002203263822673074
-0.02296666664423695,-0.053873221857976945,-0.0019033261556647535,-0.031853451497097784,-0.01634834572612493,-0.03425993075509308,-0.04315502237865014,-0.012911785983483352
-0.01674233382852458,-0.05320820225311517,-0.001962387706825731,-0.03385101215798589,-0.01434291851415986,-0.041086335451608794,-0.049309009999434605,-0.030876772009336452
-0.02020720605922507,-0.04862290859994667,-0.016025398750231325,-0.037993045785478075,-0.014743725383387564,-0.035387237017321486,-0.04923007263316585,-0.0290848255856087
-0.02310176724100026,-0.03522632484844993,-0.01452782558608809,-0.03851862370442281,4.0648565528850143E-5,-0.025101112842551728,-0.030419232709491775,0.009974802320691468
-0.025342478712856154,-0.0335272751020819,-0.017412579272795,-0.042607155601855476,-0.002847565893029279,-0.02808923791764597,-0.03549264610678751,0.014461502232116905
-0.024002099142591243,-0.02904464480854864,-0.02423592115577022,-0.042133094233701075,-0.006006424090053502,-0.028129753856452187,-0.03783501711275692,0.011186979124168337
-0.021938347540385327,-0.020803386328006702,-0.026501382753065454,-0.038528960336323116,-0.012788068447189936,-0.03246070117531103,-0.040777053120463785,-0.004533598388929117
-0.02726151167148083,-0.024026507788990077,-0.027841121912479203,-0.041313080644506756,-0.01020852343649398,-0.034756239499586644,-0.03963041458549342,-0.019666193442634934
-0.01931103107340544,-0.03165190967651935,-0.021472453017779985,-0.034907549100423194,-0.004083778250265243,-0.012500705855225022,-0.025901261288896586,0.018966565027313663
-0.020143046636562332,-0.04481467358646645,-0.006791349441459638,-0.035383596007121904,-0.00619228751567327,-0.019675497133967528,-0.022379433106041402,0.015076360114550467
-0.014628329844981015,-0.05107712527300693,5.375165243920076E-4,-0.03229045393339162,-0.0055974424199574995,-0.01863237632094261,-0.029731715863182122,2.745871128337666E-4
-0.01604808970755891,-0.04942072011107078,0.002453698490641468,-0.035585249005306366,-0.00973331607238633,-0.024097981158379474,-0.03281607377770516,-0.011893172722743449
-0.01807328162036403,-0.04852420581893445,-0.007814555223766603,-0.03263093109850136,-0.011135557760253833,-0.02572771151987036,-0.03438372566425479,-0.017670077981115164
-0.013745195263851906,-0.04217561385688429,-2.543539392119417E-4,-0.027619554168979436,0.0013404564560137557,-0.0104589969552827,-0.013852656671828776,0.018078337135307643
-0.010775988093894549,-0.046728828895264946,4.3189229782221756E-5,-0.032923854717548925,0.0035224849421854657,-0.011292921700561181,-0.015864557308128843,0.016960791465626065
-0.01554951030932108,-0.05072237175212656,-0.0020086180582544327,-0.03416373474008445,-0.00558153073474265,-0.01650402699030397,-0.022851609323346293,0.008376539338717064
-0.011380182530793224,-0.041531959565023924,-0.011142164421969773,-0.0350021589092644,-0.007910487802697569,-0.022928385682664074,-0.026688047323890147,-0.01407308988093544
-0.015811251076935505,-0.028422672045806188,-0.018671540082226913,-0.03912805170794685,-0.012260246889817826,-0.027522529094323865,-0.02717358077259149,-0.018568998099406105
-0.021945051904044506,-0.00716525538043673,-0.03982800560632818,-0.04360290045650246,0.002028321268389267,-0.019427256575758212,-0.01588263896110508,0.009256314203883374
-0.023600101877458833,-0.004687333638408561,-0.04776981074546164,-0.042850814737052816,-0.0032277630369600308,-0.021392469264085057,-0.0269159366201475,0.009490050774570616
-0.025602817929022574,0.005226892162131454,-0.05434522796850564,-0.05227844282481556,-0.008249746594655516,-0.02806105040715529,-0.03569274155384953,-0.006874703041237866
-0.030721710268714217,0.010891693559575345,-0.05980248343976285,-0.05884211472617067,-0.011597518010583265,-0.03327078841633225,-0.04186326627857314,-0.015962066356155033
-0.030276189646743654,0.02333066646478718,-0.07093655539647101,-0.05691285884363503,-0.009244215845707364,-0.0363172478559858,-0.048676508375621555,-0.01226956056596487
-0.02960952914001476,0.02602403140342999,-0.06584534082069889,-0.05242068982813938,0.0014802721959382497,-0.024069480230840698,-0.03197211872293894,0.012596007907120593
-0.02648511562568928,0.012273427468290991,-0.05480143877113707,-0.05320843840990342,-0.007451483129361565,-0.03037238149783698,-0.038811274870329086,0.008860252215706492
-0.0284503432511698,0.007484810852570128,-0.05440383700602057,-0.059454536149415496,-0.004469694417954608,-0.03765254615552587,-0.049589156898375314,-0.008416719116199319
-0.02717878417452705,0.009819315256675499,-0.061960570518132536,-0.062331998298508266,-0.018540299579416837,-0.03964481335778768,-0.05867202551213702,-0.030224487047207056
-0.028906367887400707,0.014286757363989572,-0.05942540783455273,-0.05724686416922225,-0.0025152888164350065,-0.03453556011017191,-0.05458281632517696,-0.0019285898839061875
-0.02483919674773074,0.010904648436107677,-0.05846361982983209,-0.05842925698298052,-0.005772917298106833,-0.037434349434740104,-0.05366129479359056,0.0049148304434569025
-0.023300858661370744,0.005365590648192501,-0.05386440225203863,-0.06361368054006128,-0.014369462273388516,-0.045455746449176285,-0.055829275647089664,-0.010098034486981985
-0.02498995741550914,-0.004290987124220768,-0.06064762366685067,-0.06415934790985703,-0.017879044664978142,-0.04797897784978063,-0.06404425950603566,-0.025183057155860895
-0.02444218689890172,5.352310900785239E-4,-0.055394471916965025,-0.06732200204956643,-0.012170859354659346,-0.048191809331790035,-0.06764960121109703,-0.033468902703480116
-0.03178414195001938,0.0065691364494608,-0.058051137077863316,-0.05876024774263837,-0.007185619192827094,-0.03603890328740544,-0.053410657842845,-0.0031789503672449773
-0.02659988756489412,-0.004276780348718449,-0.05728350828978431,-0.06230661797245528,-0.012076340257094122,-0.0385838974197388,-0.05395000885993658,-0.00255214519030673
-0.027853976067609046,0.0028995368449922774,-0.058476646669389405,-0.06554125686028407,-0.012395290774062618,-0.04358220191110519,-0.06392455617166656,-0.013825572332130462
-0.02640305607709709,0.005757870704900281,-0.0643820202647618,-0.0668681081223223,-0.01673567159787074,-0.049555024032982994,-0.06705274358799865,-0.023920062085109498
-0.026579634847164933,-0.005818657026436068,-0.059560088790921575,-0.0641899142126775,-0.016506002287185198,-0.04661524716838027,-0.06457463402969306,-0.0340595285785819
-0.02482112232990296,-1.7936879347266925E-4,-0.0563670451883047,-0.0626507573493504,-0.004747474313332822,-0.044323920844006694,-0.06422027592641207,0.0011753174182778615
-0.024936949311226368,-0.004208697475204501,-0.05101200168590891,-0.06026663764236926,-0.005988177663257369,-0.046455699885784865,-0.05941034810527448,-0.009914168109913864
-0.023736291958596677,-0.008712571305777067,-0.05159877061966128,-0.06270862850989439,-0.017870635997983185,-0.04811303886059633,-0.06522400620265262,-0.01723394255272691
-0.028869840214860408,-0.002647611239157111,-0.05669718247504807,-0.0618816555001492,-0.01731582438231953,-0.05386277849741943,-0.06573276348684035,-0.027422007905179405
-0.023485569032363998,-0.005392009601470148,-0.05877786953569447,-0.06088545589502721,-0.01403372180008313,-0.04854622490942209,-0.06248029279039072,-0.028003908729893848
-0.024382503644891286,-0.007248667600025057,-0.051665482455925796,-0.05740534972035433,-0.003930741803802106,-0.04785459183353933,-0.05471279539302376,5.440696786223841E-4
-0.02490075255347442,-0.0046440028376101995,-0.04990314400612669,-0.059383117174451085,-0.010410342872657111,-0.05177471695075618,-0.06509822566632857,-0.006484199380084337
-0.022435426210418268,-0.003559297754602319,-0.04819562790753789,-0.06395915633618068,-0.013092743168678261,-0.049948455691939404,-0.06910841995349808,-0.011703898448794997
-0.024798818590004646,-7.876628659629459E-4,-0.055717014648676136,-0.06346592819902648,-0.017561322555501576,-0.05484024247371245,-0.07681800914439858,-0.02375441720181835
-0.022798468447618882,-0.0016502434382708192,-0.051799947593332764,-0.0596975725776128,-0.017553967174781904,-0.051447897155874375,-0.0706339342910591,-0.03395791900099331
-0.023383436272553747,-2.476669766621611E-4,-0.05445558120422465,-0.05705629038929349,-0.0069248623471433865,-0.041916821207510266,-0.055693577497653045,0.002368725617267348
-0.02229577353494285,-0.0053606356871456215,-0.04493428634320199,-0.056041609389608046,-0.009035890668582508,-0.04458408645281615,-0.06537320063272407,-0.001512321281024538
-0.01793793149211613,-0.0030294656948877175,-0.04041745698446232,-0.054091765840006446,-0.013462823622017653,-0.05068254279548032,-0.06962080878403383,-0.018165729863771903
-0.01836870726199788,-0.005597994969577757,-0.04402873407408126,-0.058859211682478686,-0.023567320554845228,-0.05330522682215455,-0.07300628383580583,-0.03007917525386686
-0.01634655145875231,-0.009795932979877351,-0.04190505675806528,-0.053853768688289734,-0.02477361481424898,-0.05835260799163011,-0.07721528509862945,-0.04040511367635448
-0.014389943941378096,-0.015342183685365225,-0.03575414714520152,-0.048967846040644594,-0.011383147112872801,-0.04440341653738473,-0.06324715756182105,-0.02572095721710959
-0.01591298202900617,-0.01587974067152445,-0.028246633599615014,-0.05203138076744761,-0.012968313834862702,-0.044765878302196825,-0.06066518406194275,-0.015516735037176507
-0.018350508252159236,-0.011744651713466983,-0.03558052609628776,-0.04603627810167983,-0.018167136076228718,-0.05053957105819968,-0.06687261960223448,-0.016963045076749863
-0.02009232521398684,-0.006666040124607484,-0.03802622899195899,-0.04729695327399491,-0.01681479558563924,-0.0567701805246234,-0.07494303546164051,-0.027949148223006096
-0.015333908672839375,-0.008986489338895209,-0.03895823753222602,-0.048183628035813844,-0.021633926903128545,-0.056717878796758964,-0.07675705627578432,-0.05603692344523473
-0.013248528959908823,-0.0058675434098252625,-0.03079128324440815,-0.04396573450233332,-0.01682769932534664,-0.050366146716266526,-0.06386423349140938,-0.03172681234220933
-0.01481272749222252,-0.006523698006810576,-0.0344420351645879,-0.04542760763989418,-0.01863402888587725,-0.04805930600113823,-0.06266995594541512,-0.016469080903602246
-0.013717976389073282,0.0023554104576470167,-0.04022729395072314,-0.046359486831789476,-0.01600626047709478,-0.05361150948301419,-0.06930201677134087,-0.021862583221756278
-0.01780695655324311,0.0036945386746330203,-0.04184309036062996,-0.04918142866110355,-0.01724222068841575,-0.05895927947024955,-0.07366351500009088,-0.031299237823660946
-0.015114172809556648,0.0025154464015680676,-0.040277135577481755,-0.043802556811951304,-0.02130912030860645,-0.061635897421387656,-0.0749364543868195,-0.050296575841724964
-0.01436491890668706,-0.0023705841237762026,-0.0328517936672211,-0.04287380611467762,-0.015209026268071175,-0.047505184296989626,-0.06381057353721141,-0.026759756565507626
-0.01543607177093096,-9.353189497618826E-4,-0.03658753965341877,-0.037983751141242264,-0.0064855585474995784,-0.04725763672149381,-0.06361262780107262,-0.007845614829902087
-0.012820254705233744,-5.874733196454769E-4,-0.03413222549590872,-0.03858420378194227,-0.016137088863247218,-0.04749867253871377,-0.06938455201992537,-0.008402567488311592
-0.01525831770470268,-0.004501984850944077,-0.03423170280959249,-0.03924588497226735,-0.021783663884816902,-0.05476146291235587,-0.07322692263114144,-0.02550894266667671
-0.01084712882704862,-0.00951936659347033,-0.02780896353128255,-0.0362497898967628,-0.018891818941325418,-0.05926724766665458,-0.07491308963843837,-0.048732525199423324
-0.013054433966947577,-0.007486702880572543,-0.02518848624557987,-0.03581539712378242,-0.008961710502480008,-0.04575207511850559,-0.06302673658472069,-0.03302250282519208
-0.013500443164243035,-0.006583435985127884,-0.027712948001420407,-0.03398469128218825,-0.013669601769604009,-0.04675390013167961,-0.059239883733244444,-0.01749225730374425
-0.010067002756028584,-0.0037509041877100756,-0.02745487822485366,-0.03458381790565317,-0.015479891597993728,-0.05392268265446643,-0.06459146461940729,-0.023632611278176244
-0.011431881303143532,5.114644871617016E-4,-0.028061288516910376,-0.03829705636021978,-0.019452666174794762,-0.05535610118635117,-0.07233714716675059,-0.027740813947792185
-0.011309674463133195,-0.008223878131847943,-0.026884884164038978,-0.03485856028809166,-0.019322708124349258,-0.05702287281959398,-0.07738926163178393,-0.04470152088077801
-0.00730881647073141,-0.005079115775748094,-0.03058841001989581,-0.03629967514497259,-0.014876646656758488,-0.0511457208325015,-0.06904063182387463,-0.04040749505318629
-0.011359478918468804,-0.0046689645888759535,-0.02808375005191667,-0.03708848823990316,-0.014994341460874052,-0.047256542760553334,-0.06929382981408506,-0.02069918042411836
-0.012304259644652087,-0.0022352275011750296,-0.020618853111438084,-0.040947480543626,-0.013438688342395524,-0.05447359204023555,-0.06461221835866136,-0.017078026668844698
-0.012576414097492621,0.002709875992199721,-0.02664047571648558,-0.03940257156536685,-0.014538082310685959,-0.05334616805885754,-0.0745382860182114,-0.03749002128419509
-0.006551248906554256,-0.008585706096643208,-0.031740384102034495,-0.044740506003154164,-0.017575746186972652,-0.05951304270765859,-0.07979669655317612,-0.04543492843594701
-0.012917067787235278,-0.006125554433506103,-0.022900896336625655,-0.037856429671483165,-0.01748623583899958,-0.054997207856717995,-0.06885400277391072,-0.03016108948256773
-0.01067930091696663,-0.006273140484513785,-0.02560381685514071,-0.043046188573698206,-0.01071120720862306,-0.046940989785097004,-0.06575458602091933,-0.01595462064348298
-0.015156283028288546,-0.008133946178932218,-0.02502249989005545,-0.04550988415424838,-0.015723361147311134,-0.05635869519325362,-0.06581498621579535,-0.020977888786047366
-0.014072836959904087,-0.004278399100606765,-0.02953634562020089,-0.04272265234687346,-0.016149735439742338,-0.06570268441914238,-0.07594997480878514,-0.03899364802200148
-0.015761003637178406,-0.004031220416174768,-0.03450317596464519,-0.0497146649678822,-0.023346674323619622,-0.06519895417193855,-0.08571919685610448,-0.044454426488915205
-0.014862169695692151,-0.005601813930156212,-0.029709817110910457,-0.04407946101320426,-0.013669731604973815,-0.05169891234198429,-0.0698228019969639,-0.01941582507729073
-0.015444996312862771,-0.007274085041617466,-0.025237814455271654,-0.04755173444478582,-0.013287080845273419,-0.05338909217940756,-0.0660949144266462,-0.0013420942129054076
-0.01480009688064957,-0.009944096338993704,-0.028542344210596968,-0.04893701025545828,-0.01622596249152894,-0.057046257334912656,-0.07329491447164961,-0.0206208979669572
-0.014168409861876766,-0.008498205300195918,-0.0306555521058369,-0.04802578313197489,-0.023506377864660772,-0.06228876528759677,-0.08245456224522424,-0.025163620301711494
-0.02113863850143579,-0.016906177874852026,-0.031054769741731547,-0.0493396946585023,-0.028069014254170077,-0.06797691488142057,-0.08443963652724289,-0.04363996767031171
-0.014469378268750166,-0.016113868914972046,-0.02927592268398185,-0.05097956291930722,-0.013274203202209194,-0.058648513773804534,-0.06882725202958692,-0.018318340870296015
-0.016129215601377943,-0.01414207530875268,-0.025652209968025065,-0.04783847525322321,-0.013002803499558015,-0.05435099451849175,-0.07242799422538386,-0.01419968488442717
-0.012822998866502518,-0.018292067006615835,-0.02381358100607916,-0.05365996549873983,-0.01936729481396018,-0.061011643792877726,-0.07825910049626855,-0.019070526969856547
-0.01636422608108727,-0.012351968445741124,-0.030490114602059113,-0.05182936183600901,-0.025813227526826844,-0.06805423112767175,-0.08750024185638852,-0.028069917576452455
-0.01922321626835829,-0.006944444499074865,-0.039051382597543344,-0.05563033815120603,-0.023900831006717273,-0.06843103836358987,-0.09508488450168585,-0.041149435620177754
-0.015866367673653955,-0.01307047026972873,-0.034651262204610685,-0.055161695865092314,-0.017643625518018777,-0.06320083354450132,-0.07962124547326095,-0.03268289445785031
-0.016890864542302507,-0.02151679220472186,-0.023406763996846134,-0.05207942996246172,-0.014545511809658273,-0.05923339343293892,-0.0761967172131429,-0.01941353152272358
-0.017731955527021104,-0.018145091443874127,-0.03079468833504436,-0.05200186338350483,-0.02054944661911774,-0.06535616629819183,-0.08350043876106789,-0.017070970006059276
-0.01819938905415938,-0.02010130324827673,-0.03316430900199543,-0.05243042878527748,-0.029460214425703467,-0.07244253819765793,-0.09622074272884872,-0.02628302678572026
-0.015485989438617719,-0.021960644526168173,-0.025757647899210413,-0.057755299589935555,-0.0249452181930026,-0.07142495696540457,-0.09316076903922185,-0.047261746405529735
-0.018242575176388102,-0.025981669059060842,-0.02710390176702182,-0.0555392852006813,-0.026073580315059578,-0.07213998838649364,-0.09437926822442685,-0.058079928545537195
-0.015466153504454336,-0.024952225494648497,-0.023132037547788267,-0.049473876881380455,-0.02486950563214683,-0.06079692609169624,-0.08185489583433402,-0.0189244111407587
-0.01769325784106974,-0.021153180802045517,-0.024882772093868886,-0.057177120359896916,-0.01731769774056202,-0.0641800775064575,-0.08508270906765186,-0.02519740256591301
-0.019297155516509734,-0.023629389210430545,-0.03256493252406391,-0.053625216076080895,-0.023908463387012538,-0.07103450663135628,-0.09620251133582264,-0.028095534047127797
-0.013352121208901653,-0.02819643905093993,-0.03071353877272048,-0.05330573529089978,-0.027380831379722435,-0.07651408064653148,-0.09967779484389722,-0.04868962271361771
-0.01738832896496971,-0.03461846426706856,-0.025935919805627462,-0.05144050884281593,-0.03875178677274497,-0.07737329257307919,-0.0965464208325843,-0.06973370402517419
-0.014452596248503416,-0.031475471197256424,-0.027835986760592946,-0.049854384779203016,-0.019129402425939364,-0.0661576396761601,-0.08631227725918579,-0.03678983141785601
-0.015510833140342191,-0.030905354383221496,-0.026708399931600325,-0.05172977200411453,-0.023095455261777587,-0.06764056033564447,-0.08370932520195853,-0.03457152865669327
-0.019299193592367182,-0.02729602163163497,-0.03177172209986744,-0.04919249407529989,-0.03133824722160166,-0.0720267189543627,-0.09316372911698788,-0.046815164346823625
-0.018015948780061616,-0.030836049952634684,-0.026013192581939022,-0.052826715756020465,-0.03524374392410678,-0.07800673463503197,-0.09694503709329831,-0.05319508637604339
-0.016831669235246823,-0.03507965065528986,-0.023259122923241282,-0.0503078569806741,-0.03621415331282024,-0.08083533485542793,-0.10131527708135211,-0.07199223639667666
-0.014222711087098851,-0.029716642027183743,-0.014317350793101634,-0.04279138315645769,-0.027208802167690747,-0.06638908813469625,-0.07769937765588576,-0.042592300973323324
-0.01717625143000275,-0.025772011194361993,-0.02921293738150839,-0.04592194587315578,-0.033264073770613245,-0.06692110970699447,-0.09297006786734104,-0.025219147352514248
-0.013901195683748053,-0.028160099498096638,-0.03084233460960472,-0.042315404864826024,-0.02959661305168121,-0.07188083746495474,-0.08821157287073023,-0.03906445410626803
-0.012723518152682278,-0.022967930762871094,-0.025425452271080767,-0.04169574640920421,-0.033262072539332874,-0.07781482807770503,-0.08956564835675937,-0.059583053312049904
-0.015308467121482996,-0.03189218869959787,-0.020952962657630185,-0.04389062172722221,-0.03761375858042921,-0.07275924980741252,-0.09677167992358442,-0.07271382692678534
-0.013798690910070181,-0.026428489003795106,-0.01970621899648089,-0.03653008654883702,-0.027550800804682172,-0.06282597352875856,-0.07496663346390631,-0.03742476615833925
-0.014285565961703542,-0.022018589242358298,-0.020468427046350813,-0.03759656476883835,-0.027481809203840503,-0.0731934908579323,-0.08344658392828873,-0.025705322026784806
-0.013195707221740096,-0.023901347025234776,-0.011870883245398603,-0.03614878586222005,-0.029845558251152527,-0.07091002831677636,-0.08260878645265239,-0.04035845962891973
-0.012896358462653178,-0.03124720849273188,-0.012398847009118738,-0.03298337420074802,-0.03496223356898983,-0.0738031415296025,-0.08424674277703142,-0.0572121913585732
-0.01378746190677618,-0.018453364479867514,-0.023880835437262764,-0.03440478007163167,-0.041824724870165676,-0.08337309805561526,-0.09261375882373557,-0.07727835501765819
-0.013499920273893276,-0.018870676389434904,-0.020796805504516302,-0.03243675253523809,-0.03461328555704954,-0.06387729438845441,-0.08476224801014791,-0.046458366063105744
-0.014768041502343357,-0.016731970843365154,-0.01187922674990381,-0.034714150809156914,-0.03172815810934648,-0.07294560299302918,-0.08818464218096123,-0.02609096768353105
-0.010450537021646653,-0.020675539967280665,-0.009286083745149047,-0.030798044275691328,-0.038405869683073315,-0.07579491432586527,-0.0915807919700332,-0.03604483362933144
-0.013588107678236825,-0.023743840034843058,-0.006438742862301598,-0.030627224716624702,-0.037095554959867647,-0.07911613821651399,-0.09460142862016244,-0.059507084823318596
-0.010074922401881325,-0.028731735398054948,-0.01331625890370933,-0.033984610999994586,-0.042685791573702905,-0.08484403021065647,-0.10246524124914741,-0.07129035059918656
-0.012625450523197513,-0.022512022990213987,-0.00911358487442627,-0.032171566668491004,-0.03603866204533724,-0.07321795132197714,-0.09102480078889605,-0.059874029652842456
-0.00947303420572031,-0.0184753015071938,-0.004956251961749075,-0.03271978400622878,-0.03379205657483233,-0.07540332402970042,-0.09072003517186926,-0.03960149556185704
-0.01081794746026775,-0.019320131244630463,-0.0054292072731266655,-0.03736805780886158,-0.032713911095946485,-0.07615745314111502,-0.09496051879906546,-0.047051388049088046
-0.010122958367944301,-0.022416710535676274,-0.016856010671021104,-0.03813088815524589,-0.039187700483825985,-0.07722159043761292,-0.093936253542994,-0.06056234545188589
-0.014255414651033166,-0.025459960575380917,-0.018255455489207463,-0.03797282168243065,-0.04525383188288948,-0.08231379252395374,-0.09801562581229446,-0.07530676473008416
-0.013451076258232376,-0.018165494044636986,-0.013586191989280799,-0.0383201762970612,-0.03236350673750118,-0.07321211054452889,-0.09011045042740912,-0.05440252910541154
-0.01566712808884995,-0.020709272793522547,-0.010051227952459552,-0.03729819587379599,-0.03555771326424695,-0.07485153775644285,-0.0912585933631253,-0.043055996939731944
-0.01185098341022808,-0.022429028432206857,-0.016303975315585344,-0.03967417949109779,-0.04012885745778689,-0.07932076487903465,-0.09496793347604772,-0.04558137521554532
-0.014009160306855452,-0.025711596900625182,-0.013021009534200595,-0.04116424198471115,-0.044783396972216984,-0.07909178183222161,-0.09780801716304571,-0.057115176725242446
-0.014960084055895743,-0.027455661936482755,-0.015468576243893476,-0.0457982702060581,-0.0450058164312081,-0.08428703985157025,-0.09796059107163618,-0.07838626734610313
-0.0108948988208515,-0.021473592311456347,-0.012540018533904868,-0.03897882601380344,-0.031074722609593458,-0.07444493817531815,-0.08857079429213345,-0.038831585798733116
-0.016525340316113992,-0.02357432107866753,-0.006590856528114592,-0.04054843501141268,-0.03376561879879475,-0.07966410186105102,-0.09649081191538009,-0.03550658936428798
-0.012452734602566464,-0.025026928090407508,-0.0122878482960841,-0.044283508219039515,-0.0373420023733761,-0.07693811831946484,-0.09450042747617322,-0.03812779878750389
-0.01724268061547628,-0.020788594634789038,-0.01984511548671722,-0.04376877946253964,-0.038121228458687796,-0.08281383363436144,-0.10091350300001109,-0.04875363389428724
-0.013491875681465357,-0.014216712614750354,-0.02303449553042677,-0.047031220843964834,-0.03879598331939525,-0.0761976623855127,-0.09843138239470901,-0.05123751625901752
-0.016338890120612088,-0.012438371738115172,-0.018225882962280178,-0.04446586641887636,-0.03501831385517657,-0.07419803923701508,-0.08676533928600048,-0.020624565917980918
-0.014132644200725589,-0.019228349620695414,-0.02136000227227359,-0.046491518742832444,-0.030403520120677614,-0.07400868756428901,-0.08912575445891512,-0.026109042758448473
-0.014905187937592441,-0.020931647014987943,-0.014861989524889055,-0.04882014049155846,-0.03689407997916504,-0.07889161705230252,-0.09919496725147206,-0.03323593443268457
-0.01579043639392609,-0.022671504286925805,-0.013792319751508643,-0.04902337627768356,-0.039404822424835104,-0.08245177635775244,-0.09605182929258624,-0.03984222183893736
-0.015372065538786351,-0.028791176914234058,-0.015841946749928507,-0.04833512440096506,-0.042918261146542964,-0.08038173563779184,-0.09713152550516765,-0.04544596355255529
-0.01938300032977276,-0.03001150640693143,-0.00551139639484889,-0.04707819288077797,-0.030855862195667594,-0.07298911677477228,-0.0900032237450048,-0.01680053801054158
-0.014594067692511092,-0.03272629235765145,-0.010747002637552029,-0.04674184553866172,-0.0337800262663803,-0.07935008209881053,-0.09338898450860135,-0.024317964469481052
-0.016633450468973156,-0.03483581799933859,-0.002813951166480336,-0.05186375350958668,-0.03452008100651721,-0.08071788714002094,-0.10008160883538941,-0.024575092854713463
-0.016332644248606247,-0.03209598059567021,-0.010828741577370314,-0.05296057255417165,-0.0354433596649353,-0.07986766507497535,-0.1021542637340878,-0.03804473608800098
-0.015883155393740234,-0.03214690709449274,-0.01266401177765789,-0.05076332886186502,-0.045390204300827484,-0.08849745404029367,-0.10571387826733401,-0.05677147105459635
-0.01594114047963412,-0.03432616392886241,-0.006879991322231016,-0.049263553804376914,-0.027469158934448717,-0.06964375158202223,-0.09300624601451475,-0.02577608955196304
-0.020442469295912657,-0.03332899830228465,-0.008083940846579868,-0.05065234878999129,-0.03232800169616207,-0.076586289002346,-0.09355952018390157,-0.01911925620823204
-0.018504883639557435,-0.038039204160528924,-0.005522474391011063,-0.05263769824501888,-0.0367970834170127,-0.08398531958179366,-0.1049225302365242,-0.022160149497469216
-0.019216643557174232,-0.031332007079315397,-0.015817402262113332,-0.05485448760892949,-0.040839623315611785,-0.08339435152296804,-0.10494452441912136,-0.03129733223311058
-0.019470212955222815,-0.04437424804361559,-0.009963553352582363,-0.05213570522219067,-0.045443633489204,-0.08459572261663867,-0.11252153377925134,-0.051524339250365286
-0.0236760520482629,-0.03736428992059745,-0.011356653049891221,-0.05369408795676718,-0.031243386314608913,-0.07521080368405363,-0.09504960384067572,-0.02918673692678449
-0.018461467184224638,-0.03685240031711753,-0.017652710039831956,-0.058233141032583514,-0.035347853516343376,-0.07592744595811553,-0.09798884568585295,-0.017887580653285665
-0.020436998178662034,-0.03866400114867776,-0.00956701775433519,-0.05455410525685196,-0.032728996434812786,-0.07807587736154277,-0.09920982034820046,-0.02824245016152118
-0.024057811479802432,-0.03623008015247809,-0.010619400239459125,-0.05813740521672933,-0.04218967606920315,-0.08375649229090201,-0.10388206806700581,-0.032169829316825056
-0.01733093303218451,-0.05176590280509966,-0.007162047719948762,-0.05504452297363753,-0.042755805915960565,-0.08532003604101986,-0.10533872076091196,-0.05504761372689186
-0.019168674082451438,-0.0564404521704571,-0.00819765645813016,-0.05571289871578083,-0.03868044304955541,-0.0788200159743046,-0.09675829942546334,-0.0431902801046102
-0.01819952781207411,-0.05094586372771662,-0.007554919012638998,-0.05304075622719504,-0.032692918261987766,-0.0773347115664442,-0.094124435872831,-0.013387922791617041
-0.02122413041936309,-0.04813347240625907,-0.008119301195287079,-0.053529292477022455,-0.03592441099101352,-0.08033802598254366,-0.10264986444189181,-0.026224703468252716
-0.018900206606559923,-0.05470256023324011,-0.008255471526914287,-0.05168568949965353,-0.04080837431172556,-0.08713752480610075,-0.10443779128886821,-0.04229993938768135
-0.02124959600539722,-0.05404642912931774,-0.00887063287316316,-0.05351646092675542,-0.046939666564863626,-0.08619650923724122,-0.10076489959108097,-0.05745660330691582
-0.02234302794687728,-0.0501771178999063,-0.01363071558696075,-0.054928100006517995,-0.044227329641341566,-0.08426257315779638,-0.10358832496593748,-0.06528827283480582
-0.020049138928942646,-0.03091006077091465,-0.018259194221033708,-0.05273425028024397,-0.03376721891685157,-0.07295247883375919,-0.09126149018197824,-0.03435509021782268
-0.02068436519940749,-0.040160381074090604,-0.020502760960041895,-0.0535786241723648,-0.03851203562589397,-0.07648484009081304,-0.08946519298764374,-0.02322537717079456
-0.022639187515733537,-0.05831583151498894,-0.0018178915369076421,-0.052814590733697896,-0.044145693263043635,-0.07728478762063876,-0.09221231860560682,-0.048305314469898934
-0.021185770095442136,-0.06595710698561726,0.00599762112048593,-0.05278162612917314,-0.041849736045021894,-0.08336461515817176,-0.1005576294891296,-0.06643518913319618
-0.020435998753560652,-0.07626806112346422,0.004610703189903557,-0.04865646404776381,-0.04555975840725316,-0.08408611893053496,-0.1023508241016856,-0.08676159529287561
-0.014208558971085198,-0.066898645237807,0.00247049215507398,-0.04651202134498921,-0.04077599092342415,-0.07226974654832663,-0.08358567404668649,-0.05686956351171485
-0.01719946339099159,-0.0656747927747998,0.0022991149168215663,-0.051302867142763116,-0.04134881621101478,-0.0759232721940876,-0.08274682890880197,-0.04317875011285246
-0.01973769659740529,-0.059030408378031404,-0.00271670536854614,-0.05212510345284743,-0.040927795032821936,-0.0761750573829257,-0.08854173309463366,-0.05359741158186153
-0.018475967032886034,-0.06275398866640751,-0.01001353796430693,-0.05260603344512837,-0.041934033038728176,-0.08356239836858657,-0.093357206771509,-0.0658443758467949
-0.01715085483122178,-0.06626283302747504,-0.004647959431547919,-0.05313255294274026,-0.045317791240632226,-0.08201342056901165,-0.09275150701813997,-0.08491390057002167
-0.022769727996898928,-0.05878420709240766,-0.009902420069668042,-0.05456745340986029,-0.043736285487981245,-0.07410890315314796,-0.0866838711415746,-0.07167305066456305
-0.01943117345972382,-0.05900005363641754,0.012682309465307386,-0.04510241581556384,-0.04071367583995566,-0.06857339548915721,-0.08455379598497562,-0.04193838717748129
-0.020754376798626427,-0.07184527661378302,0.0028831864091672585,-0.050791587274959686,-0.04658565161619126,-0.07197523804517154,-0.09126638008927508,-0.05581984983422675
-0.017093357254705628,-0.07152694244293888,0.005165788784513452,-0.054557557555254634,-0.04771715216880228,-0.07777457016946693,-0.09316878436108132,-0.06837216534915246
-0.022494679052524835,-0.07625718171553847,-0.0023289997275091298,-0.058157446559608354,-0.05194564244092725,-0.08517964217533493,-0.09261796466093462,-0.08585823567137062
-0.02153448669888213,-0.06228900083984673,-0.004241614329602077,-0.04896185991205235,-0.04299816041316096,-0.07148873540108305,-0.08302303137652509,-0.0774411544306283
-0.020080915534575774,-0.06059278796117243,-0.008854529892848163,-0.04970262862830971,-0.036857304469624125,-0.06606168532670197,-0.08213337320255927,-0.04043594219305359
-0.025943929118245845,-0.06510186316038785,-5.454648015125647E-4,-0.05146253298934788,-0.03667868027487634,-0.07846619645262583,-0.08250548875419786,-0.0515464333964453
-0.02238442099945482,-0.059756549459905973,9.950989848292401E-4,-0.05200408069908754,-0.04583254460227339,-0.07571013226633755,-0.08817346191542204,-0.058264606579466915
-0.0241045968941804,-0.06551340193012563,-0.005306438688381108,-0.05206127451530713,-0.04953493472114217,-0.08239542802205682,-0.08507031103416887,-0.0710019683160993
-0.02353008119923107,-0.06802226454575298,0.0060133549190832455,-0.05118574024651656,-0.04636894232172961,-0.07009715801427738,-0.08243314166313216,-0.07805528275678347
-0.018064640428623047,-0.07375215643335534,6.401302578991029E-4,-0.04945536794922858,-0.03692405540271565,-0.06471099971032934,-0.0755785884995872,-0.042590998587146905
-0.016145273328583763,-0.07841857223495725,0.006522598172179104,-0.055187928668171855,-0.04095053312843855,-0.0663376341875517,-0.07727392552552612,-0.04532083855308559
-0.021124708172452683,-0.06271831884121193,-0.005635108091043378,-0.056306145993255556,-0.04838062700349517,-0.0746553180676332,-0.08460363806635238,-0.06356114120523117
-0.02403629832297554,-0.07595377182122218,0.0011381178566861033,-0.05697540799400822,-0.054423770128965016,-0.07983736305456102,-0.08736624888375548,-0.07996151643754684
-0.019865018664303177,-0.0813993293326072,0.007151346424329398,-0.05524374122608951,-0.048557105868663096,-0.07833208698615374,-0.08823264178672305,-0.09264634902787805
-0.02026810889469969,-0.07773143396265918,0.011226282640425545,-0.052453016521629627,-0.04202274161414407,-0.07219566679381062,-0.07645443494996688,-0.05493626546153405
-0.02241275846483257,-0.07690697720062405,0.00698505915632994,-0.05634452934173044,-0.043179229146839325,-0.076996579728717,-0.07930005096292586,-0.050123366355513434
-0.0215270229009842,-0.07953121040147382,0.0024435881871881916,-0.05728949182354869,-0.050378308804840635,-0.0806258300387766,-0.09115328709795122,-0.062320852064559076
-0.024603747906484858,-0.06755775372971434,-0.008752669576948365,-0.05997471731844736,-0.04881284209822071,-0.08012012963525955,-0.08901545858129045,-0.07754482890977617
-0.022980477068340038,-0.07691561648714046,0.0014141507398225115,-0.05613235436034587,-0.053324124665327315,-0.07248867873032558,-0.08146466331760807,-0.08290441929347363
-0.019479088057731284,-0.08163473529164303,0.004435218518552656,-0.05988813248191845,-0.04378456301348587,-0.06964311380249018,-0.07427968189449288,-0.051775635747984515
-0.02553833514078461,-0.07636174558633675,1.5670203847748275E-4,-0.06087693679832363,-0.04054873556394675,-0.07497795370835421,-0.07995552051893223,-0.04359937891305071
-0.018297035453623677,-0.07620721605266081,6.489310151396228E-4,-0.0645143707214604,-0.04636629476997423,-0.07637799480166796,-0.08222543456638871,-0.05969645644183657
-0.019732057548371568,-0.08608219198599269,0.003542902115924043,-0.06557358832737047,-0.049086955726389034,-0.08163192923820312,-0.08771229115598092,-0.07771918462537666
-0.02071833045559176,-0.08269091009323877,0.004670025486374703,-0.05963217868881629,-0.05024840805970174,-0.07630876582079711,-0.08845270146554614,-0.06985959300308434
-0.020623017220925886,-0.07754666519509115,0.007561281771489006,-0.05846552398100741,-0.038629754050263754,-0.07187372303141379,-0.07880109529641947,-0.043564606498905534
-0.02420974382890891,-0.0674403807807572,-0.009602596397103908,-0.0612888593600071,-0.0419839999899484,-0.07376873375675028,-0.08226588600881692,-0.038111413720115485
-0.022991173380412566,-0.0706998840662911,-0.004310799476165779,-0.06980054242892592,-0.046370055911552785,-0.07692138952356337,-0.08487003039858358,-0.05342826559880278
-0.0218350759267188,-0.08365063377141835,-0.0021521165818687744,-0.0635270559053755,-0.05082394957375017,-0.0853802629611337,-0.0914179064688241,-0.07435204096622527
-0.022358436062402932,-0.08873890233728564,0.003859058913862682,-0.06343116902840883,-0.04802263871003323,-0.0803645234925542,-0.08717762146977685,-0.06731242409734553
-0.017627352566220476,-0.08783705597995302,0.012352185547821616,-0.06116856120955384,-0.04230277024200166,-0.07569447982331626,-0.07635849386501004,-0.03638581024367124
-0.017963590646003034,-0.094664724375448,0.009144087321576908,-0.06722000588291357,-0.04723073295215155,-0.0788186431741844,-0.08769742065638297,-0.04126657324666304
-0.017955415828169632,-0.10437055747249718,0.019166511870914636,-0.061964677631162694,-0.047835905507982016,-0.07844920610164631,-0.08603499866503361,-0.06490299332298193
-0.017620898502633996,-0.10489729271680731,0.018789958561018092,-0.06533437259262928,-0.049721338422299935,-0.08482379024024818,-0.09571820428431399,-0.08596658323515897
-0.018538504637408987,-0.0891794283229929,0.010349285575478375,-0.06459093673454688,-0.044955207091068344,-0.08043497307819952,-0.08503036475298409,-0.06881982010406171
-0.018146744093951974,-0.08605735105750671,0.01234182105214928,-0.061850313280878214,-0.04787381738354589,-0.07896346257474827,-0.08447286165409279,-0.04216493663908541
-0.01718881260201562,-0.08493419993420331,0.002504174025173176,-0.06628494974727257,-0.043841377429181885,-0.0810013189273912,-0.09826555358574285,-0.04682185997515453
-0.01822567774062167,-0.0911050708087192,0.010787789013774295,-0.06530646147546908,-0.05241166438097928,-0.08817568877396306,-0.09748263401529428,-0.06704905254687116
-0.0200533797788097,-0.08791810301145532,0.0035261147638526334,-0.07042860250534386,-0.05181013074899274,-0.09252066867182807,-0.1031597782662719,-0.08300326730651478
-0.017255327161155944,-0.08390936079406701,0.003318016836613855,-0.07392249017433843,-0.0486747329266332,-0.0892156029621724,-0.09795447983217448,-0.07580855082115304
-0.017209253354313097,-0.08106048871032298,0.00462258034600656,-0.06860836242859661,-0.0456569246889489,-0.0835658480677217,-0.09889149144503902,-0.03193557583959167
-0.017751726421903032,-0.07416267680657232,0.0016360814939117,-0.07378147178149026,-0.047701206088636344,-0.08549110812279173,-0.09875950308275645,-0.04101013793535011
-0.017083835821059632,-0.0836826460974956,0.005253071595485111,-0.06840912277220071,-0.04685253406542068,-0.09424356319004833,-0.10658937884837603,-0.05590595795852081
-0.018395994035020805,-0.09483769074061903,0.007366380483881137,-0.07792565175270838,-0.050841983203749545,-0.09377306437095206,-0.11573937754952551,-0.072559295552829
-0.017572269046423738,-0.09301793436518958,0.003306883366633809,-0.07238907409171995,-0.05699270225422125,-0.09427588799606458,-0.11120662072201751,-0.08802096597820569
-0.010690194394465762,-0.08814832148069998,0.011835498428794703,-0.07192244533882323,-0.048439422519852435,-0.09104164737509468,-0.10462432163288138,-0.051995203166073464
-0.01593146529619487,-0.09424506035049537,0.017713830095327565,-0.07731026569782942,-0.04474180377814725,-0.09725216886314647,-0.1094713250048853,-0.05161673511651394
-0.012637648931184594,-0.09923176753979959,0.017470782476336637,-0.07355400496485275,-0.05265519215469603,-0.09581212458484101,-0.11903082199344063,-0.07223510820024501
-0.01472730117918064,-0.09751273896035083,0.012925085564174384,-0.07648983134273166,-0.05699218411889228,-0.10296524655716145,-0.12364346876377953,-0.07938055429860257
-0.014611044831543091,-0.10025776127230751,0.016607507689277108,-0.08030195033649494,-0.059708232154226985,-0.10555551107879112,-0.12566946595260048,-0.09529031072226544
-0.012079221776030918,-0.09790854834004645,0.008636118901389687,-0.07404752198478029,-0.05376725669136276,-0.09874509477755895,-0.11545052265148667,-0.07094343127769885
-0.018209242947396398,-0.09549454000601114,0.013891186581970355,-0.07321420626159514,-0.05407032733729998,-0.10545688368908228,-0.11747879265366451,-0.0594999271427114
-0.01423255034315157,-0.09839434912546083,0.013654175456250663,-0.07705573941783532,-0.05227617888600896,-0.10439150405221058,-0.12246246106883507,-0.07004963937986237
-0.014018312945961816,-0.09498807926914228,0.008602935795181113,-0.07894548717895371,-0.05318862445425706,-0.10566153980064617,-0.12875092087342965,-0.08117758155632882
-0.019699679001093272,-0.09516268544009959,0.002439251020340387,-0.08177159287250552,-0.06315672499871224,-0.11759025021035822,-0.13806534655039185,-0.08937260286500832
-0.017017792080194192,-0.08723600950865688,-0.0048638219425753805,-0.08056993992588418,-0.056534132113356624,-0.10007135854054727,-0.12891317156697657,-0.0899531840370785
-0.014676304025315173,-0.0878403139159959,0.006260358173753159,-0.07704874131450715,-0.047460646679125404,-0.09986335521928515,-0.12557722315604677,-0.05665406862301867
-0.021169915019933153,-0.09244737638393753,0.007096692208662156,-0.07645058300525522,-0.05485556754708979,-0.10496870186501714,-0.13032596676716124,-0.0655689903440939
-0.020057647192334067,-0.08140433842121653,-0.006213891032519162,-0.08095347532554434,-0.05978925196849998,-0.1125607067122779,-0.13102422061885394,-0.06745604071932705
-0.01786921283196114,-0.08336872008400965,-0.005380085516012441,-0.08450655176129199,-0.06251576526953728,-0.11576977908189398,-0.13611359687129446,-0.09023563463349779
-0.02094449536589947,-0.08994781693278707,0.001937160619197471,-0.08406766995172958,-0.05914174140668541,-0.11882866552842314,-0.14041613278298443,-0.10818620033619436
-0.024087815136309133,-0.09414568275303149,0.004715105795775612,-0.08153999025167459,-0.05132099380527637,-0.10548413177009881,-0.11642430485185151,-0.06962027176499032
-0.017593977919135907,-0.09652006173777863,0.006225217711750413,-0.08015100855908969,-0.05147925856995127,-0.10291308906943708,-0.12429545929989211,-0.06506350578661417
-0.017745897792915712,-0.09711157408618816,0.00779547456029502,-0.0843029114086265,-0.05628671811956169,-0.10681655428876007,-0.13007715023342037,-0.0726899108785685
-0.02222075130114355,-0.0997856517229268,3.7377627336061776E-4,-0.08449671899999221,-0.056742271098697165,-0.10690299333057517,-0.12883316188338537,-0.09144267612295012
-0.01879526330999507,-0.09999999480132907,0.005768781771248262,-0.08734397308329028,-0.060775218732893634,-0.11132301489789946,-0.12730156758440336,-0.1084181032164675
-0.02162474623213189,-0.10232757877674853,3.042452036368486E-4,-0.08951008612623232,-0.06702977528926181,-0.11752871059139551,-0.1331524862412091,-0.12075334428172328
-0.01682718219879495,-0.09865972115288986,-0.004667675385883197,-0.08331722566313433,-0.05393443932666997,-0.10333622534420896,-0.11551127438270296,-0.08416148050505615
-0.01971702827999571,-0.0996842943779528,0.0023179595992118274,-0.08562653675195667,-0.05444014996356892,-0.10254058231605845,-0.1250611146299759,-0.06724273608712518
-0.01858167186098024,-0.09598426839179153,4.220605852310753E-4,-0.08475484072005209,-0.056383134908481576,-0.1090318241487092,-0.12454585128187828,-0.07374851474316867
-0.02424428998855125,-0.08718862203906791,-0.014572720176637664,-0.08886236145504375,-0.05829887792969155,-0.10444825603010423,-0.13125797262626837,-0.08854189287532109
-0.021633647654124948,-0.08227909439340314,-0.01986936208145652,-0.08729923477404496,-0.06275239469667453,-0.1119623429820849,-0.12747366655295414,-0.10457701335856394
-0.02595490900424145,-0.08549486469180964,-0.014595496262184156,-0.08920789987630054,-0.072693964908806,-0.11501067318433149,-0.13092947873555322,-0.11713097711876988
-0.019761778723119773,-0.0804932966532928,-0.017788485173442555,-0.0896570438060734,-0.05952720855827841,-0.09939767253734394,-0.11711663820668998,-0.10378806822975575
-0.02428834351538378,-0.08271709102700701,-0.013583344094782951,-0.09145570662672986,-0.05136356943278163,-0.09921656375765228,-0.11410890757901371,-0.07589289308551547
-0.023203153505596506,-0.08146847255428097,-0.016120910451212292,-0.08833102150794812,-0.06291697746280181,-0.10088594045741826,-0.1164817369844278,-0.07462781399438816
-0.01886530909904572,-0.08773400971087451,-0.004111570243355452,-0.08304230213363224,-0.06357177250387751,-0.10024823242987493,-0.12422401160321611,-0.0967213634224612
-0.02487109402652477,-0.08873265652027251,-0.008001226319900918,-0.08561956821092119,-0.0679068207904764,-0.10533300287943664,-0.12414746049811481,-0.11534035475161171
-0.026245496567813848,-0.07872559305478208,-0.02263258774856276,-0.09358491274944591,-0.06680163361841394,-0.10785875438669439,-0.1293163279553549,-0.12090789710176554
-0.0322817082839788,-0.06470700711461004,-0.03707487115509185,-0.09362101893800033,-0.0572752732438148,-0.09433906094374399,-0.10556202388403252,-0.08507994878249478
-0.0327299665897679,-0.0291771214563725,-0.05504841105639058,-0.09700557404662769,-0.05727436894453776,-0.09702415828206702,-0.11086139739553064,-0.05009295657561673
-0.025846867007548284,-0.04219737994718339,-0.04055150357347163,-0.08767456326374172,-0.06157409495610968,-0.09811736827666821,-0.11841539840262424,-0.05883596660248313
-0.03173871924231277,-0.050164670534186426,-0.0458962493291095,-0.09216835580575744,-0.06418807583388292,-0.09857705025517882,-0.12030378603441011,-0.0693097399213523
-0.03273802091941165,-0.04444345566655158,-0.05122455212877231,-0.09989916548137313,-0.06719878137606151,-0.10401958098871834,-0.12518538428441486,-0.10016439222303886
-0.03592830685658563,-0.03742330057137013,-0.06622444199442853,-0.10030905004223686,-0.06601904440374849,-0.09987689445703488,-0.11821247374924754,-0.09894454417406476
-0.036669121708849464,-0.02647521834927418,-0.06429358705300814,-0.10107967899080274,-0.05617141818574867,-0.09609981923721932,-0.10772367314639143,-0.05426333197115726
-0.03645615413542443,-0.025664302261181306,-0.06848270597082752,-0.10087247275543396,-0.06315570839384659,-0.09855151326973621,-0.11015926567264912,-0.06979702423848726
-0.03622577228568538,-0.02516697193179039,-0.06846546106645147,-0.10248009318033881,-0.0637286147850188,-0.09831021801859822,-0.11777350053890218,-0.08446951842228408
-0.03706242311454232,-0.03045790339547165,-0.06897115246320215,-0.10338508136780658,-0.07173923318051455,-0.10609684654026118,-0.1244528381953996,-0.10118869856278652
-0.04025236111760216,-0.016876688408933284,-0.07182458298119485,-0.10188612686210476,-0.06809470344877067,-0.10290755740718077,-0.11734058971675299,-0.1000416084940097
-0.042076539953869556,-0.008031896383758626,-0.07769912128068301,-0.1017710031017899,-0.05820790218659585,-0.09471813770652777,-0.11195975004292882,-0.059116832899847316
-0.036906666519565784,-0.008865440305350298,-0.08609497019989501,-0.10082333123018687,-0.06998800824604284,-0.09833331608236597,-0.121553081921279,-0.06517064960973604
-0.03145777458258594,-0.016563551570984356,-0.0734470990310475,-0.10101297069299378,-0.07461176436726202,-0.10540045586114297,-0.12605088613617968,-0.07001030826505057
-0.036198092204117745,-0.017781574311344462,-0.07160361062320746,-0.10310453217235922,-0.07207607867429518,-0.10582538919561418,-0.12819668504516588,-0.10143698160677106
-0.033880823119997405,-0.014957632264431404,-0.07790253729057242,-0.10261428335353341,-0.06458191954142695,-0.09729648932710078,-0.11944790424276035,-0.07629661969324918
-0.036812330335934375,-0.005290157418436727,-0.08024045564082981,-0.10205689355784092,-0.06474177253986442,-0.09960566472060413,-0.11265453424591278,-0.0482144042574583
-0.04056249570893146,-0.0056196798319646584,-0.09000630967165216,-0.10553655072183891,-0.06982356980475875,-0.10707695125101872,-0.12505605656304186,-0.0666283529125402
-0.04241433062610225,0.007421364371197209,-0.09788941946144356,-0.10990321160229974,-0.07563383810030577,-0.10916323758843874,-0.1312468561845954,-0.07790700024475584
-0.04606650295337417,0.03487609470445459,-0.11820614625568145,-0.11834720497931825,-0.07355071806255503,-0.11972235742605447,-0.1392369930775867,-0.09229445754942611
-0.051379197527426014,0.047167671649110704,-0.12903415816617986,-0.11790492589315375,-0.06526872497711063,-0.10406754178904043,-0.12505460939251847,-0.0631755282522161
-0.04944644709936218,0.05331678298376742,-0.1339190130355004,-0.1159571898426908,-0.06247770936791297,-0.105835155144663,-0.12740592608189086,-0.037148457907127494
-0.04396895886879206,0.04039684925720299,-0.11294844438609325,-0.11345323082603295,-0.06435379939008172,-0.1054250673885193,-0.13024584006824783,-0.04340060164893976
-0.039767103840797034,0.024467670925810817,-0.10337198265616912,-0.1118484734081962,-0.06571163288451315,-0.11529906759002344,-0.14140137757563934,-0.05957917396210153
-0.03502152109303964,0.014555763657793229,-0.10088246179037322,-0.1166377261493593,-0.07140035303483899,-0.11719132664033952,-0.14091545964956334,-0.08313829153612244
-0.037830485206954756,0.01934331924752009,-0.09992256086309231,-0.11162075673727001,-0.06578759536789235,-0.10946150342328155,-0.13509798569848633,-0.05916307723346982
-0.03619649245304144,0.022123018033255778,-0.09594377932098924,-0.1105726279429918,-0.05985043465344891,-0.10400329140303236,-0.13192654964606115,-0.03994467513204595
-0.03363074966096633,0.017040877878074828,-0.09279845949001944,-0.11331008559004227,-0.05980973952092648,-0.1104324857573538,-0.14029502785170156,-0.030494215162147554
-0.030632286105132227,-0.0012417361552288276,-0.07786599565202204,-0.10835903642757402,-0.06415125796520144,-0.11520508534702695,-0.13594518000995506,-0.06570711805027954
-0.027671075442105186,-0.0013345692301691744,-0.07971446928849865,-0.11777605503350555,-0.06503250872862733,-0.12076385790399251,-0.13903822434615984,-0.07144956384810489
-0.03388059267646426,0.001965734897024588,-0.0825488567166898,-0.11598872591148586,-0.06592613922755484,-0.12034318206786407,-0.15075030276236132,-0.0748541888974012
-0.030958839544697442,6.236393997834457E-4,-0.07683378572898063,-0.1135453075538659,-0.052187071854863744,-0.10856607180526764,-0.1336967997718728,-0.042434118816459324
-0.03022589877497818,0.0023834597079101525,-0.0756143889283643,-0.10805097122862302,-0.051290273593326524,-0.10867308345415316,-0.1325894783971145,-0.03290460095223107
-0.026574062365710187,-0.004109617606545154,-0.07195718607327918,-0.11391432007442659,-0.053444792416391725,-0.10943123022934921,-0.13529314909466517,-0.04095863874944515
-0.02601887402186866,-0.0057089868559321915,-0.06930180097172296,-0.11104193836914181,-0.058839272860447094,-0.11451002036193327,-0.13825285789643213,-0.037156805437091184
-0.024112866974317148,-0.004847400664866534,-0.0715691824172376,-0.11467028523074577,-0.06064800567993467,-0.11940793424920261,-0.13565167787848145,-0.05238574050916708
-0.029139829758239463,-0.010005632583408393,-0.07283245629896978,-0.11532266664886467,-0.06275420929363307,-0.11950561059944269,-0.1495782385513777,-0.07022230143617375
-0.03132445974606129,0.009599781152820312,-0.08480524906038056,-0.11757430482431114,-0.046759295425412864,-0.1041847018359525,-0.13351340934947944,-0.03279758227536832
-0.02814453729009411,-0.003085160319000022,-0.07301668615480603,-0.11115877561947649,-0.046202133158515166,-0.10211096466032797,-0.125607462109232,-0.021373176609080564
-0.027350580839991027,-0.014360520381551996,-0.06672459417252156,-0.11592569798801558,-0.045183117866944456,-0.10499419075785066,-0.12833536666881143,-0.024385104316067396
-0.026127013689145478,-0.021195167087421647,-0.06719789215260191,-0.12148714957677308,-0.05632397476513167,-0.10856424712612554,-0.1425626376302376,-0.048772693489940525
-0.029569957795744263,-0.019107416748814544,-0.07359381695596633,-0.11433053347678465,-0.0567633640106718,-0.11282474785737975,-0.13808474405933494,-0.07055006351422057
-0.027037884412044848,-0.023812132877887138,-0.07073912911920897,-0.12011560642067577,-0.06271262545161825,-0.1135187921829327,-0.13539965514266836,-0.08217582971975994
-0.026319799518796896,-0.02270770851798802,-0.06971302534294667,-0.11763904114862427,-0.0479904433305826,-0.09674264025431417,-0.12088328761167526,-0.04178109272741723
-0.02987527213366292,-0.015867443771097084,-0.06922928782285681,-0.11740415724435878,-0.047205093270991844,-0.094637402459947,-0.12206401640706575,-0.028174375543634063
-0.03021118041060469,-0.022590434078742335,-0.07767358590745575,-0.1210054431108308,-0.04810803657160062,-0.0994601651854841,-0.12401158328080923,-0.03897036282959779
-0.03335784327902621,-0.015111080434976495,-0.0738527720103045,-0.12464024927663007,-0.054735220143052335,-0.09922340392159226,-0.12398722694607732,-0.050278530927189764
-0.031765043711037264,-0.01543672076387277,-0.08543264052201925,-0.11994462937848195,-0.054821716649629905,-0.10261066104563367,-0.1317565179421564,-0.07007380117475638
-0.03296941824599543,-0.01093120800244891,-0.08353317273226508,-0.12067111370027221,-0.04813998586811097,-0.09028601459337399,-0.11083011223340408,-0.051119577659629586
-0.03465578239738037,-0.0029790494798421895,-0.08221778501267954,-0.12108581414163054,-0.04656540523387306,-0.08556079352347325,-0.11003994056810129,-0.020792403963973128
-0.03742284666027292,-0.0013720638906330764,-0.0943421615131025,-0.12867755263589775,-0.04564022666937076,-0.08760183449902374,-0.10827074845716504,-0.03325109242168904
-0.03513384084317749,-0.010498701853704516,-0.08749726099873113,-0.12620396449382199,-0.04899301080584072,-0.08792155433866787,-0.11358322572914055,-0.04499635784937956
-0.03491006664136061,-0.015282257950454708,-0.08807172445887412,-0.12449313253191259,-0.05210082173004902,-0.0916040409549891,-0.11044854582846782,-0.05870392259137845
-0.035667382545018216,-0.00796279866091599,-0.07569483137457136,-0.12277081462830748,-0.03945842524673868,-0.07705392777393814,-0.09822851314881242,-0.03424021635166662
-0.034658942350930554,-0.01670697740435282,-0.06716983075899811,-0.12170150655556854,-0.03469975344386975,-0.0729168056634222,-0.09089302677947066,-0.012935308156530368
-0.032956482666772334,-0.02180463819411443,-0.07174818606869918,-0.12380391487989559,-0.038748452451019016,-0.07579399390200874,-0.08964004826980455,-0.025672694637662207
-0.03084584465110255,-0.020720724491402245,-0.07073921159806162,-0.12390455064929358,-0.03808792310701601,-0.08155597203868796,-0.09925770022475407,-0.039484872651301205
-0.03187490353237959,-0.009904294992031586,-0.08487528706416378,-0.12467495148256481,-0.05356902984690726,-0.0862232681261316,-0.10000306086328287,-0.04865133810930281
-0.03150227035844638,-0.01754791934668822,-0.07215740491933033,-0.1190815542782238,-0.036345159193028685,-0.06765595109907635,-0.08590997084046083,-0.025585785808700724
-0.026346420913393544,-0.021760172051525507,-0.06643649255215224,-0.11844856721743646,-0.033773245643459876,-0.06848273329914206,-0.08355550498795522,-0.007337178857117357
-0.02462816414806437,-0.025418159711550602,-0.06524942887755372,-0.1184364712750505,-0.038506594734817705,-0.0711434335891215,-0.08537421754219275,-0.024359004973581
-0.027284119001311245,-0.027211283424924546,-0.06836126611604604,-0.11843274863507128,-0.04421100356184932,-0.07252158278302834,-0.0918283768762,-0.021831418105698552
-0.02747639177447403,-0.021385000458431738,-0.0660395858508892,-0.11887507999668423,-0.04016164222603499,-0.08237057470457772,-0.09628212409403855,-0.04293967432363764
-0.03068470016646269,-0.023884104354627886,-0.07218338579316945,-0.11864971550950733,-0.052157322100038206,-0.08096376010513984,-0.09387529578483772,-0.04814578063634573
-0.027536511939345244,-0.01731757382654829,-0.07149624437915829,-0.11533732126275006,-0.027668326484878082,-0.0680327728501582,-0.08109064504504811,-0.012351968306029977
-0.023938590136423552,-0.015759875370347676,-0.06878305278183415,-0.11327520419332802,-0.034100793311795004,-0.06723814550141534,-0.07997037942317212,-0.014331300532311958
-0.025505303755560187,-0.012926706543139656,-0.06843427679920042,-0.1159449755271732,-0.038306199199005214,-0.07181298264340538,-0.08537134128129814,-0.015878577580316366
-0.028316918128850094,-0.017038769966833792,-0.06629343905135306,-0.11643228449841535,-0.04005663683803372,-0.07316626566368717,-0.09044735917360451,-0.02966390514169905
-0.023315333126611826,-0.022036679381842405,-0.06648308945371492,-0.1146524437876941,-0.043973556964522854,-0.08193117627837262,-0.09954732580204455,-0.04835301485642001
-0.026793038238492925,-0.01865718094553788,-0.07133779472824606,-0.11816012647796886,-0.04900529230487171,-0.07950424780923876,-0.09895892145927143,-0.0658206231459715
-0.024432934324143885,-0.018165369180345715,-0.06264451411707471,-0.11447646964557699,-0.024712516769415396,-0.06896072105304146,-0.0788429506553668,-0.021632914977150017
-0.02060091784631304,-0.01811150347281837,-0.06638453410481622,-0.11650482064670488,-0.0320690969170449,-0.0696414706200145,-0.0773217354989585,-0.016555277356461784
-0.025353583320324998,-0.021825662388178003,-0.06582510686636701,-0.11440943337330259,-0.03996440088676505,-0.07126333865558059,-0.08589635347780801,-0.025587439047037967
-0.024625473140806774,-0.027664917594853032,-0.06216937283285279,-0.11359536134587843,-0.041515788981392895,-0.08031362058700818,-0.09024541945234252,-0.043460341658839496
-0.025115636467055575,-0.0284451908959581,-0.06566890999299269,-0.1150341595670392,-0.042645450242751466,-0.08289584459431741,-0.10044521546586498,-0.064480351566486
-0.0247978696114539,-0.026500913252151318,-0.07124145924722464,-0.11839812102323255,-0.052265776434625516,-0.08117669541343822,-0.10351235859491623,-0.0802749324817272
-0.024650618174902026,-0.019129850803102075,-0.07089874767169448,-0.11025114593907215,-0.030495634251027377,-0.0671795884195504,-0.08046782586220697,-0.0421809888508664
-0.025331789377196434,-0.01857636573567607,-0.0673763007545509,-0.11060011078370599,-0.033093420779804095,-0.07061762845264785,-0.08141373741248913,-0.01988235649344536
-0.027896603992280698,-0.018726396705554878,-0.06650470042391766,-0.11257818375802117,-0.035329188155191385,-0.07518916623186074,-0.08767502351164934,-0.02908405937903106
-0.023527227722283495,-0.018467545335734973,-0.06904542028594705,-0.11504062671438259,-0.04259876786114976,-0.07522860488861735,-0.09124655521673602,-0.050123152235767465
-0.022606955835278553,-0.020003358094034307,-0.06772946623330059,-0.11204845537200869,-0.04360074964629705,-0.07722743727915143,-0.08935361298280388,-0.05468033057686821
-0.021808678622925688,-0.0187970946188107,-0.07479182991491506,-0.11436120417120471,-0.05228722141916009,-0.07802192520959068,-0.09315389391812558,-0.0792345873140077
-0.027786030932377692,-0.010067210237349813,-0.06981718884389697,-0.11041244331644934,-0.035741756441281435,-0.06415750750520435,-0.0775406000800362,-0.03513837609145874
-0.027797321200797975,-0.004866896950407976,-0.08198665557238877,-0.11029341748462257,-0.034601975034630444,-0.06421083997824824,-0.0803045034765097,-0.02170656425151057
-0.027358720208843806,0.010481667865925165,-0.08971913461774049,-0.11412291455349051,-0.04155972219572026,-0.07288755454165761,-0.0826281841875597,-0.02057527145137577
-0.026605382860588642,-0.0034188750716636464,-0.08210930821463315,-0.11174322401771891,-0.04040128433486459,-0.07532667169213035,-0.08451289980819762,-0.04455533302302542
-0.02685921481820216,-0.007572720422395141,-0.0767949250116487,-0.10950510055999835,-0.044143110748127774,-0.07587897008134743,-0.09296425755720246,-0.05750179194241269
-0.021541949911226724,-0.009043220549135105,-0.07521212629600975,-0.11188350661417587,-0.04424922634313726,-0.07116505675939772,-0.08667696109353454,-0.06193155361953897
-0.028185882001840284,-0.008846947889313525,-0.07413629090710751,-0.10409702361746165,-0.03136247053088416,-0.05819714603919057,-0.06883359584218783,-0.01729323069771725
-0.026495113628632484,-0.002507227760922467,-0.0715102985593435,-0.10320687815195946,-0.03313623717427334,-0.06525150101449399,-0.07468049377039661,-0.011372724210511522
-0.0214464280233597,-0.012628509420652245,-0.062132438008204,-0.10500880434417276,-0.034189952635420094,-0.06676156481030977,-0.07669948394163811,-0.029193899942172377
-0.02092447308860716,-0.017651658703377537,-0.06318203702806317,-0.1036089716872248,-0.04343544704412111,-0.07511125501500751,-0.08355398305256787,-0.052558353660454686
-0.02309321932664749,-0.02476663534437593,-0.06025948704877618,-0.10332169721516665,-0.049249934220978696,-0.07299487994945997,-0.08770857106052374,-0.06002205582092964
-0.02085079203003797,-0.016564084918682012,-0.06152630889154873,-0.09960383162351422,-0.03646920973408431,-0.0652514524861837,-0.07632988810205836,-0.04408180956966743
-0.02121347745261848,-0.009004973577017161,-0.06737626950353856,-0.09885468694684048,-0.028268822878606627,-0.06560108961679531,-0.07452261663346989,-0.01001407642344959
-0.01981692035775966,-0.008581122157235627,-0.06320505132806264,-0.10205196847868342,-0.03625566759667063,-0.07033502888528019,-0.07611054199271694,-0.016237049285886256
-0.01941482720470346,-0.011591608133429188,-0.06102422017554633,-0.10084853442759832,-0.03922266022818812,-0.07637626781374048,-0.08597430510597676,-0.02872464550238241
-0.024389993057381425,-0.0025613275080557337,-0.06921129088709031,-0.10276720731713106,-0.04394534523319515,-0.08096869079415646,-0.09101452000900902,-0.04460898997436501
-0.024275490765528884,-0.008533956862120424,-0.06814875354166466,-0.10627136595623063,-0.046137552180442944,-0.08206747636614031,-0.09283774682129001,-0.05389350508777189
-0.022216401112642916,-0.005943861723308274,-0.07361371286914702,-0.09959618988671678,-0.04089134588432526,-0.07687695591168901,-0.08738293613455818,-0.05318722868688827
-0.021276496980891665,-0.005170519080472347,-0.0598156779260813,-0.09774971786917773,-0.032256788660856316,-0.06549523658669373,-0.0820872116426994,-0.019973050618160706
-0.017254568375682924,-0.00998812257027102,-0.061163654982237324,-0.09382360075152497,-0.03572149236818455,-0.06735291938145128,-0.08158901807979849,-0.016597288992397537
-0.022686610440327395,-0.002497508663048122,-0.06731256072043468,-0.10098267106989284,-0.03811651196128932,-0.07731569206411776,-0.08445314953770304,-0.0302596583212423
-0.02004586102312988,-0.00735942402693945,-0.06218097099134209,-0.0984067318618967,-0.046774949011289556,-0.08095934198491513,-0.09121349637927412,-0.042610056640117036
-0.019124673518077367,-0.009996091125155772,-0.06931319311882078,-0.10124756176067909,-0.04411102644717582,-0.0860771044000912,-0.09868744241181379,-0.04630040374877073
-0.018586086246606223,-0.019857332782340587,-0.06060895309696872,-0.09768911411215665,-0.04653687414741045,-0.08506285745617671,-0.10142812356952408,-0.06863804620449067
-0.020199039428349823,-0.01928752273959308,-0.04720308720676318,-0.09369424586644641,-0.02956808215989424,-0.07033758331997338,-0.0779489012510879,-0.032471399827458704
-0.012453948591072959,-0.021516103380841343,-0.04682231649323783,-0.09979837893020796,-0.027039685947677094,-0.07326398100123428,-0.07948692160979615,-0.01999130144263011
-0.020593586213645605,-0.014311342865433343,-0.05812142119948826,-0.09675978219458516,-0.036802651273122974,-0.0797245585665543,-0.08275419340008247,-0.02369925643673068
-0.016944361784797433,-0.018827378946485594,-0.05958233221155974,-0.1004500802199992,-0.04392538586435386,-0.08547791389029978,-0.09670337961514838,-0.03903047177723527
-0.017907923114940737,-0.021250792287343234,-0.05273498133159376,-0.10334880446989164,-0.04156614494616205,-0.08710851643502625,-0.10065508727728521,-0.057302505333763284
-0.018124859953161116,-0.026818862769681744,-0.05207987597710272,-0.1007649072695683,-0.04573060573092806,-0.09033188266555774,-0.10488324677709301,-0.08109405821264272
-0.014873913072337682,-0.019094428739462016,-0.05377406191023944,-0.10034600591743564,-0.028123953733985223,-0.07439963186118559,-0.08911694175627768,-0.03533662502156397
-0.017741443215021094,-0.01153442016587692,-0.061305818132911756,-0.10383117106762718,-0.0324751403067624,-0.07924765402565469,-0.0886987240623665,-0.02281095636692874
-0.014265917042260398,-0.009187228486864502,-0.06789078161191196,-0.10239892064558048,-0.034117140859257634,-0.07920685391524053,-0.0932786512784367,-0.031601840487797433
-0.014589851309599985,-0.016365721649823105,-0.057932521683636586,-0.10288648881647944,-0.039516671092072096,-0.08457875873490671,-0.09833798149952447,-0.05306055036254396
-0.016761962438958816,-0.018718840262224194,-0.058128407940799744,-0.0993437268790195,-0.045465953988512504,-0.08728140865273355,-0.0984657014033043,-0.06989887979653106
-0.020895948917188687,-0.014610482627037059,-0.062367397473476006,-0.09710467549873038,-0.04053013557675591,-0.08279987508285518,-0.09919579027694465,-0.06692174682573443
-0.015628644757132597,-0.01305649931545535,-0.05915838436378997,-0.0960524330681547,-0.03175814130812242,-0.07865949686337419,-0.08866545797943519,-0.018191235057281274
-0.018625336694859065,-0.010263145696987306,-0.06489475672971337,-0.09801046854912339,-0.03557668919694909,-0.0710286865021466,-0.09392688919204545,-0.024581227832468702
-0.014274388949183314,-0.014691188316988828,-0.05723038640434655,-0.10173044010165595,-0.03790730576328702,-0.07962916238281144,-0.0893874195799783,-0.03864285033583129
-0.015258127785600598,-0.02284395436286893,-0.04868715089760568,-0.09897655701765114,-0.04192642333654208,-0.08271082977585092,-0.10442534452294888,-0.0530910948038633
-0.013154761272710178,-0.020797866438260912,-0.06094341932259913,-0.10022634009674078,-0.04266945025931838,-0.08772452888218552,-0.10465863628547398,-0.06001383528705939
-0.01708127672261378,-0.015459730497817726,-0.05933582874076796,-0.09925181817344748,-0.044791716319866094,-0.08665125398077415,-0.10042763475543975,-0.060671296802773084
-0.014887417013447255,-0.014533751260114025,-0.057368548955944836,-0.0956407719335019,-0.024776293083985095,-0.07244470391445769,-0.08669925223262122,-0.029475059081003296
-0.011904355792924695,-0.020327929971183104,-0.038506704530432624,-0.09504132183027914,-0.032208296602719545,-0.07519523025159928,-0.08884030400900485,-0.02000942437881293
-0.008004571827105377,-0.028377067974609944,-0.04465598728579123,-0.09541963069824813,-0.032170963741350124,-0.07879054296373263,-0.0914116870874802,-0.0338369708364959
-0.010992110438806744,-0.023130502773027063,-0.04222504696448689,-0.09658251211130305,-0.04132670118201123,-0.0824562983919202,-0.10136001331255766,-0.04843193270968232
-0.006138136310166589,-0.02023293337868452,-0.05036401014844883,-0.0989612121515415,-0.03591775865649637,-0.08990505793752912,-0.10234724316301348,-0.060626004591289015
-0.005877366599835068,-0.023798402284697533,-0.05133109105177364,-0.09582766988175954,-0.04105516026101963,-0.08958146170865464,-0.10073705067523839,-0.07733600736959077
-0.008772856862440998,-0.027346833786459013,-0.038090567801496195,-0.09404760273936684,-0.025804251072305676,-0.06674340090857726,-0.08178860553131825,-0.028425167943857108
-0.007044242211641624,-0.02063010286064972,-0.04802715431814337,-0.09205422393405684,-0.02197889716325206,-0.07281558098281735,-0.0867861376379348,-0.019264859912846675
-0.01219865439358846,-0.012065156826636041,-0.054158258873042014,-0.09732922560275929,-0.03149837141140199,-0.08158310511079725,-0.0921806756338421,-0.02339589331922725
-0.00883466344948604,-0.011258402782358705,-0.05061166085453022,-0.09807788066810998,-0.034684199082803686,-0.08605667900770864,-0.09809101302630398,-0.04119153264142345
-0.011266892358878832,-0.015291889204191176,-0.050026533336459025,-0.09178888383766662,-0.03838609142857808,-0.08781717272785204,-0.10351828536558423,-0.06443785288751791
-0.01333215408306884,-0.011478418692797436,-0.057935467112071946,-0.09649802082272262,-0.04231268199267461,-0.08416002934230603,-0.10498278657327652,-0.06822470062363037
-0.012156360553022834,-0.007368702327990154,-0.047802780711527305,-0.0892744585380743,-0.02752035002384298,-0.07443188061840593,-0.08691788500186708,-0.026981025220065877
-0.010736703421684101,-0.0017796061313510058,-0.056836409788238375,-0.09098279052507015,-0.03137180772182756,-0.07601824523617719,-0.09454698992790932,-0.011647309612792388
-0.012771783197994657,1.932655358753823E-4,-0.06614591253325673,-0.094372277685235,-0.028257476032770408,-0.08358039659603857,-0.09564146409356611,-0.022479468422761807
-0.006349992510406176,-0.0010155838834548807,-0.05263349624676865,-0.0999299791653378,-0.03476486338558281,-0.08759396572195012,-0.10629825721682681,-0.045308382102918224
-0.011093087805835285,-0.006223728579596484,-0.06226838743950961,-0.09867909612515362,-0.03813743678900362,-0.09342486927326951,-0.11321607910471235,-0.05981588279613463
-0.006127385954982113,-0.004337134999200391,-0.052862798513367046,-0.09663851136169527,-0.03179314687881573,-0.08421936360690012,-0.1002193302834537,-0.04615702613478192
-0.006783099981128349,-3.711638332310347E-4,-0.05268986494659541,-0.09394138807819939,-0.019107572897500976,-0.07434087988981619,-0.0928468691493867,-0.016789657710671615
-0.006809922861626347,-0.003665220312928959,-0.043609961418615346,-0.08973443477585684,-0.026068013878849133,-0.07827548673899262,-0.10047193780038016,-0.02163526807230175
-0.007246211268452065,-0.009058518540915076,-0.046851670360625895,-0.09064318985699679,-0.030263829174395827,-0.07928256812135533,-0.09991519211081655,-0.03501706884474665
-0.006506735850264353,-0.01536333232923788,-0.04843879901163594,-0.0932182021245972,-0.03936965083085284,-0.08521607842567186,-0.10902007595133921,-0.05150270454672881
-0.00928177700737083,-0.012375886403953585,-0.054285895269953,-0.09022137100888117,-0.038729136187085164,-0.08896578451694136,-0.11817905960649523,-0.06606947754419279
-0.004935663032842231,-0.002457203045616263,-0.04554710326189098,-0.09133897783225663,-0.01959492667196985,-0.07258286346970436,-0.09589235302590858,-0.03145680495345266
-0.0028050433836900443,-0.008186470575409005,-0.041569463110706875,-0.08563745357311049,-0.021168676067916656,-0.07565033244843909,-0.09214581436803727,-0.020051085572082916
-0.0014540468926002848,-0.012048665962980494,-0.037861503789992014,-0.08588996857551866,-0.024952952423196558,-0.07956363600973178,-0.09517243135353597,-0.015081668262296918
-0.0019774751515340173,-0.016520597741815413,-0.03540999579094704,-0.0853784620453645,-0.0318562593995931,-0.08462832926592938,-0.09657410266263716,-0.0300573119059914
-0.0028601944000160697,-0.021935692639665647,-0.03931917049777161,-0.08908219625349559,-0.03431667614700693,-0.08932696048835441,-0.11457658363379555,-0.04689143317301634
-0.0027608502410719563,-0.016141918431268755,-0.048101015056879796,-0.09023261400773105,-0.03774374090846797,-0.08812254514698456,-0.10861195045630254,-0.06763650951125519
0.002052919108632191,-0.008195401169347537,-0.039779876473478526,-0.08651309138705583,-0.024192722189488015,-0.07226194338523934,-0.09264615815616788,-0.021302686417269307
0.003991661580976385,-0.021091140249527587,-0.031182671154102174,-0.08624038204917983,-0.021039817609419174,-0.07559232059779741,-0.09373144193144503,-0.010562078389178395
4.1708533200901683E-4,-0.026027052771377693,-0.02195011384340734,-0.08476813295285279,-0.023045665882811935,-0.08003911061899201,-0.09258008715774652,-0.02138454434960529
0.0014672681744808567,-0.02706535111610832,-0.027175332622264504,-0.0855476392307639,-0.03614397847623586,-0.0874573742410605,-0.10881688126295819,-0.038120756673246575
-3.1912881273654057E-4,-0.03504846148321616,-0.021257612137673177,-0.0871808948335465,-0.03742107382071601,-0.08917838919390882,-0.11245737669119356,-0.054608763108847796
-0.003357504726410317,-0.012370320309160993,-0.040496035865184785,-0.08880891761498248,-0.03641668599305279,-0.09329489599088746,-0.10970249103218764,-0.06894198760533352
-2.978125868201468E-4,-0.01851813594274351,-0.03402262302107936,-0.08508880952211598,-0.025176678125273556,-0.07914242616220736,-0.09808504559584029,-0.03851239683738349
0.003096628571279184,-0.02271292032800743,-0.02330307255027412,-0.08276065300245433,-0.02466000735847709,-0.07768820498126011,-0.09963281773383773,-0.015576406119404475
4.38338765499081E-4,-0.0328714266091917,-0.021667950507232792,-0.07762680968883814,-0.023784799856189965,-0.08004351047595606,-0.10085940224961323,-0.027020679058594992
0.0014280355893437889,-0.016542607632131622,-0.03504153292672585,-0.08614006390844375,-0.030855413444190165,-0.08618013714796699,-0.11075953081788861,-0.03936752826310692
-3.591132123470435E-4,-0.018235692067075173,-0.035682206172373734,-0.09181839690384924,-0.036578407815992316,-0.09345498758363932,-0.10892253687268541,-0.05343693464929219
1.123905424832459E-4,-0.015498568724708672,-0.04223953332418452,-0.09411711752705666,-0.03680315442859191,-0.09152666447739816,-0.11545406386299249,-0.06455406658846365
-1.8575803411324652E-4,-0.019274487807396906,-0.02439595395525624,-0.08624090731777073,-0.02462841466196385,-0.07826709927395033,-0.10041831582822566,-0.03204243667454681
0.002123138011410211,-0.025509593988355925,-0.026641440689165918,-0.08563028951795698,-0.026549873823169638,-0.07791771195329088,-0.09610231310862528,-0.025233322333210243
0.002046191712488613,-0.02586647101337361,-0.0238120218123476,-0.08776182029836364,-0.028495881887848695,-0.08659334511715508,-0.09856460517337805,-0.0380097471826878
7.835162785716655E-5,-0.02843741671014214,-0.03306717991157689,-0.09107629341871476,-0.0314988911900454,-0.0863635060753765,-0.11029670281717283,-0.041332402489591115
-9.718498865260557E-4,-0.02609781654745834,-0.03491423946200332,-0.09003164218646227,-0.03416571283373066,-0.08617882216622003,-0.11680565028758334,-0.05378571205703832
0.004007628356068922,-0.021939585573329052,-0.03267576560357534,-0.08620231125973762,-0.032478325803684295,-0.07965142368581016,-0.10758755081359417,-0.05081697622361156
0.002671155929527218,-0.027013506198354752,-0.027437862055845433,-0.08350938420114,-0.02191627095230225,-0.07460034317732117,-0.0972934970254692,-0.020627575157725585
4.015540436496123E-5,-0.02462135086446818,-0.027655737686308014,-0.0811031438650503,-0.02023313685174294,-0.07679820065027362,-0.09977909559606009,-0.01757682475790647
0.0011796891199461084,-0.02029642609840283,-0.0307754569093643,-0.08703983864821585,-0.026430188405202015,-0.08218133497994813,-0.10877441473526159,-0.026074696998921315
0.0012920632075419996,-0.022955671948711263,-0.030183294427313337,-0.08967339939515509,-0.0327498005633003,-0.0898980885297181,-0.10665524168726377,-0.0439134907039631
0.003760359909489765,-0.021750196623665383,-0.034366114913347824,-0.08914843711077251,-0.03734399835818096,-0.09221083923088502,-0.11689095951365337,-0.06015246148005043
0.0014535829944590727,-0.021301111580231732,-0.03234551903089125,-0.08351981045301875,-0.024663325622096135,-0.07921745928605972,-0.10344035499627127,-0.04107222932043202
0.0025976437125420342,-0.011290788948283049,-0.029593220640977483,-0.08325502331080809,-0.02180746871805428,-0.07723730735367129,-0.0908919625550382,-0.010758747608860133
0.0013409031647972807,-0.013039208961241834,-0.035144806159843084,-0.0857566940202407,-0.024614623146841694,-0.07839879632011787,-0.10053090059003121,-0.011529710961098569
0.004070719719628653,-0.022439976062347138,-0.02078093742185506,-0.085970025723506,-0.02397491704049699,-0.08514587656259466,-0.10256562333889825,-0.028789771696976843
0.003232712993333863,-0.032307738040739935,-0.023309111495094507,-0.08704450162040764,-0.028481131348652888,-0.08353186328049876,-0.11151361593788524,-0.0477540399346637
0.010148567049003129,-0.028655969951835794,-0.024822154888071147,-0.08479265895419733,-0.03578660617775324,-0.08902718455906114,-0.1167373462433344,-0.062119855805116274
0.004903013377655304,-0.018311476198979815,-0.024069773970719965,-0.08369670468104859,-0.021607895568270957,-0.0765183358210018,-0.09859310947534676,-0.03298838315795515
0.00741020916835841,-0.020685099268892667,-0.025128709975239548,-0.08305197646685945,-0.015419056783575632,-0.07260511216757715,-0.10110752753818453,-0.004798074692325938
0.0046603584097455785,-0.024990028844023265,-0.024311572307345534,-0.08216464211481145,-0.021518891370244705,-0.08120862151941785,-0.10059843456539541,-0.017147999829685207
0.009227494952406356,-0.033417195031417594,-0.01698858968736543,-0.08134520714685499,-0.023608592378011526,-0.08539698990558346,-0.10384286887834578,-0.037602901278239335
0.0025847568739534406,-0.03011776925311224,-0.016176575043637592,-0.08098356413982127,-0.03558723484115346,-0.08951630981314929,-0.11097629880411125,-0.04550747609899532
0.006414769501433649,-0.024205177482150914,-0.02460186864855103,-0.08336787422376096,-0.03906303792741823,-0.0903042739389417,-0.1175454539541066,-0.06172270697056094
0.007196519747116781,-0.027009130124727766,-0.025071275841030867,-0.07949346211731248,-0.02491684904734559,-0.07951658690140165,-0.10261085496064261,-0.04227078707394532
0.009765227238841006,-0.02259492341016994,-0.02301542360822973,-0.07829671403324498,-0.01677970292839692,-0.07188289636659573,-0.09329413408129834,-0.01372961751269143
0.008129082772899884,-0.0246340567323649,-0.020372573078803517,-0.08144286647471331,-0.025377045253922342,-0.0769448428911664,-0.09999066717967979,-0.01851175343521505
0.004216709668934136,-0.01532271252777659,-0.027516803451151123,-0.08465791831034185,-0.02661284434885709,-0.08180859565204421,-0.11091821601273645,-0.03700184049609422
0.0029860748791683883,-0.011659332799536869,-0.02944659501920699,-0.0839685712970405,-0.032969125873035465,-0.09105020853162259,-0.11368296396553591,-0.05037732963657565
0.0035821856808574454,-0.024921112974730732,-0.033311435781037825,-0.08491844860265345,-0.039096471780053065,-0.09262741212896465,-0.11696903579251022,-0.06731221098352803
0.005572405610904061,-0.016148215544287522,-0.01788641301509368,-0.07643774443313951,-0.01921014382382374,-0.07625210918044127,-0.0947238986635793,-0.026032166752779872
0.006739749740675919,-0.02190362902419961,-0.01907016017644576,-0.07843733640463185,-0.029186962321068533,-0.07774289933064987,-0.09946333206972778,-0.026722086088277353
0.012623305315039796,-0.02146740185897748,-0.021025813622179156,-0.07642789318495892,-0.028366712738637105,-0.07756398987814904,-0.10606482377616135,-0.03384305636210295
0.006876693426228096,-0.021424193248325663,-0.021986064644099045,-0.07596926292163907,-0.029245616125846047,-0.08362401100384909,-0.10581943692152726,-0.039713991985263465
0.00805823654034159,-0.025657643069614676,-0.01929072139467838,-0.07938726414138327,-0.03517768159627892,-0.08734468891122692,-0.11456768611729008,-0.06711507860074163
0.009964392430638248,-0.02714205958150504,-0.016068063428301128,-0.07570786019705411,-0.028621679266405024,-0.07485644995300661,-0.09391360413159601,-0.04854685920179412
0.010802881322976778,-0.02356703935777678,-0.013760239101717732,-0.07421601535418705,-0.021367385687777,-0.0689023377781046,-0.09173708092572763,-0.01618738119182862
0.009364994205974106,-0.020801241260013904,-0.016046560097965134,-0.07605333598208323,-0.02248293298345142,-0.06882895532613682,-0.09163172363126608,-0.015541637816243148
0.008033022708614727,-0.02586909598297589,-0.011577429085696695,-0.07460425007218449,-0.021598671080494194,-0.07693332196468979,-0.09881955936916524,-0.039234537920760114
0.012110566552182279,-0.024910163416037617,-0.009627095163162255,-0.07759678819142872,-0.028504868272706877,-0.07444800594501853,-0.1079431091371867,-0.05555743196841628
0.011574149854387919,-0.03300701038411866,-0.014703314221972122,-0.0743595081736322,-0.03154250175119121,-0.08036113809319818,-0.10098660387368422,-0.07017980184191085
0.011791531582578594,-0.01722342373322985,-0.019032285398294532,-0.06870178384772184,-0.014624182472685121,-0.06337209957945963,-0.0804478175306329,-0.021677288098423387
0.01300911253261245,-0.014874776328718727,-0.01427066186984806,-0.07281201241518201,-0.01954480691050612,-0.06419526799551381,-0.08559813094920281,-0.014510841648674371
0.012332393374020733,-0.01773562869181122,-0.020341281377274048,-0.07238447399865316,-0.018266301908637362,-0.06864838584142131,-0.09299983710352311,-0.021078875293897827
0.015710648023538415,-0.019641352167855387,-0.0087382939777357,-0.07072510664738908,-0.0218206274416664,-0.0736034857006935,-0.09447488457684243,-0.0407538537119947
0.007630476209276508,-0.023082749704276387,-0.007733071254865394,-0.0711922249304855,-0.03067408412936539,-0.07683702118925381,-0.09578119641112064,-0.05861392981933702
0.012067354675845446,-0.01869976181689763,-0.017838841169158196,-0.0727093659366023,-0.023666008096708643,-0.0693739902743502,-0.09365259505876061,-0.048548798192215414
0.011734709480417136,-0.012929867748815113,-0.014372453077242314,-0.07110021963566054,-0.01558969719750931,-0.06706311015755484,-0.08112353084973127,-0.009882525605868284
0.01053039194933119,-0.019191103879632194,-0.006578460454908034,-0.07275995221523127,-0.018975955484241795,-0.06360180684150779,-0.0804684552015249,-0.01961550641068774
0.014149159695661065,-0.023126771710698303,-0.00854174588882196,-0.06984548929273904,-0.021313156685144306,-0.07081294958456116,-0.08900799796642277,-0.03468947855111064
0.0139676535684575,-0.023051029534934524,-0.008136451933433058,-0.07493660550520664,-0.021642838354833334,-0.0754131061696458,-0.09731616300045595,-0.047456798217720184
0.01619591224393636,-0.031012889595445785,-0.005796890324634441,-0.07128732261460695,-0.03751877697735723,-0.07662440174875046,-0.09782676166311563,-0.06350094657758736
0.017235215472444068,-0.027528092076651828,4.918598253271395E-4,-0.06523869354072243,-0.015850799344471957,-0.06583089265376493,-0.08240403487611431,-0.028355696318121088
0.01728865304317224,-0.03559252563017688,0.00887324557163338,-0.06554745598977087,-0.018867203639208643,-0.07205792072842761,-0.0837834650357868,-0.02674716640226037
0.01779249259751289,-0.031348571273728885,-0.006936774271905635,-0.06566852575862023,-0.023590695729637894,-0.06564297698025989,-0.08669722581623471,-0.02765290301668923
0.01128175145763083,-0.03009212101889998,-0.009792729286970784,-0.06953242122485943,-0.025912414855866955,-0.07530672804039079,-0.09430659552049077,-0.040895737524187924
0.010240465841083334,-0.02261528871628645,-0.009432756776688738,-0.07058904936751648,-0.027508170086204417,-0.07451340828660356,-0.09760010645874743,-0.04474470450820531
0.015085348483421175,-0.022216504468451803,-0.007055723973501798,-0.06494638845372601,-0.02226951760727322,-0.062240046093490146,-0.08032268052599284,-0.02872873652550247
0.014892154248738406,-0.02624078258449056,-0.0010085563320484854,-0.06648651551009406,-0.01368064085073649,-0.06587528898715014,-0.07807257156151265,-0.013104011278303457
0.01709361440700672,-0.01999342911366144,-0.0062130783723808045,-0.06640473756872112,-0.017212139390105078,-0.0655977339363521,-0.08865927456358597,-0.018355425372685707
0.010990565716283391,-0.01587912750443749,-0.010531271986941003,-0.06950999213208618,-0.021262028423161414,-0.07263870289305027,-0.09192577854391001,-0.02600933425791632
0.015080996309958739,-0.016336774515124507,-0.015302281572232764,-0.07077873513889751,-0.028443628760040335,-0.07832230709266035,-0.09208419822056102,-0.04724746244057398
0.01747901446492145,-0.02390692487505499,-0.0038964219699195043,-0.0654854646172823,-0.016675369469261334,-0.07088502799145627,-0.0860041976720417,-0.03168823774225277
0.01777970824943749,-0.02482639860836435,0.004475933961953727,-0.062007448336891265,-0.017188684787195204,-0.06744964030597837,-0.07371527093947125,-0.009269854985235025
0.017218508962714277,-0.031222791582542066,0.005586366991943463,-0.06913395352533887,-0.01741084556839889,-0.06886280224336701,-0.08808222755250854,-0.013340612502549918
0.01626093236951757,-0.028821736065371525,7.645781712975221E-4,-0.0674164757619672,-0.02123627348618667,-0.0709127691609059,-0.09819176424115318,-0.015918956195821562
0.016599870068668983,-0.03233577274632718,0.008613685965686943,-0.06725125724986668,-0.02514260096483626,-0.07813779555161186,-0.08808949892362233,-0.041442184348839214
0.019729955089291547,-0.037907002955692604,-0.003997591027645191,-0.0652795177956622,-0.027777754537840888,-0.07667825889239294,-0.09823764394429159,-0.055153563731165464
0.017525601070485848,-0.03274379828898846,0.006978608205575002,-0.06178985997391817,-0.018485314494071297,-0.06709630640268142,-0.0861386013897741,-0.0162315151506779
0.01585046110077103,-0.03194369240050906,0.0043221762936171025,-0.0624375859714878,-0.016031609274374654,-0.06923621150176344,-0.08243805247032772,-0.010007850358087746
0.018541847202501547,-0.03414489096949671,0.006146074620013181,-0.06538434093528195,-0.02383295941567468,-0.07530229086118755,-0.09788162784983011,-0.022022039442148457
0.01866229277196804,-0.03623627244409609,0.006188603099989138,-0.06736319833304003,-0.02369575191904219,-0.07905633471439526,-0.09935994168993195,-0.035726808883491966
0.016737622990918993,-0.040329676654733346,0.0014553685135137368,-0.07009696178108922,-0.028559110323302217,-0.08165267576415182,-0.10859465600280607,-0.06310320358053445
0.01695322101136752,-0.031308613220794625,4.8735814412434524E-4,-0.06641805352107095,-0.02211748420831542,-0.07688477022938629,-0.09863274968847721,-0.05180520920711254
0.01260532383148753,-0.02883723595960796,-0.0016455600824440255,-0.0656022598358696,-0.018693193417184544,-0.06796487163224489,-0.08805861911620107,-0.01373919237217612
0.014697960656848294,-0.029706688154123133,-0.003021773543838658,-0.06603127368956846,-0.017656834938257895,-0.07474104086261377,-0.08731065488609802,-0.017703391108452194
0.018094345555199065,-0.03551473654715456,0.00796132156768335,-0.06652570722964296,-0.026263029410961196,-0.07852207850230108,-0.09551619686592609,-0.04146000771362836
0.017342661655665188,-0.03745621261193953,7.4230183792363E-4,-0.06679151144380968,-0.02580926775048887,-0.08226988554137717,-0.10350374364813271,-0.05529108642495212
0.010523984529785724,-0.026490672272778203,-0.011168888258881016,-0.06884479987062474,-0.030205680952379337,-0.08441908890195599,-0.10298420872025624,-0.057528853478921255
0.00977872123971482,-0.013830949460442618,-0.009684321233288653,-0.06860724399979831,-0.016478765531721028,-0.07367181135041076,-0.0968535296028972,-0.009592867223114155
0.014843859156218263,-0.025739528878058353,-0.007973019514186615,-0.0659848829331173,-0.016985651909939344,-0.07656772128965965,-0.0922676729509274,-0.01712953556393467
0.014996564263653166,-0.036166871324827224,2.8125459778610164E-4,-0.06520733085504724,-0.022702085920643995,-0.07478293099175425,-0.09699032619513426,-0.03471967037730915
0.01538554540866122,-0.031939052134592194,0.0019861780983704887,-0.06655206080256441,-0.03184950412191008,-0.08291215572452405,-0.10543129763808354,-0.04850777349850254
0.00954755832627762,-0.03641501925673706,-0.014396307761126922,-0.07304160230074913,-0.029513624975398067,-0.08568821058639467,-0.10865196888905163,-0.056574289156699875
0.007939278792488567,-0.030192024211589667,-0.008842454213406428,-0.06953712552570228,-0.024547374390606183,-0.07285150012757378,-0.09444579430238566,-0.04391065754252231
0.0172904205147895,-0.03516256264023297,-0.0016084579518566271,-0.06140270687024103,-0.016828859543258787,-0.06972664439136493,-0.08772812201436253,-0.011973303219731729
0.017831730858410444,-0.046467720137598374,0.007168689125083971,-0.06458046976554785,-0.01789264643212996,-0.07301258979747953,-0.09332156987087728,-0.021506099376566414
0.012264273365751302,-0.043983052365182844,0.0030825674943196157,-0.05558974595202327,-0.025935524907117195,-0.08099440683964608,-0.09538638991056332,-0.04011589744664432
0.01639933878588246,-0.04291695594917491,0.004793972465155851,-0.06318635298705043,-0.027797236082961287,-0.08354264230454708,-0.10499461155156119,-0.045166497465321635
0.014329130517237882,-0.04393043757790704,0.006722760677899187,-0.058653787697738775,-0.028365849846340226,-0.07876490842348845,-0.09241000103757076,-0.060862849695204356
0.0159664367424159,-0.04092832512211356,0.00908835260778028,-0.05908879709992522,-0.017710858497779883,-0.06872041245478791,-0.08680982245733573,-0.03050476657283721
0.013611308682669607,-0.04203857150851095,0.013926882887180681,-0.055523646302469296,-0.019304805147442917,-0.07366780802610375,-0.09432616005504278,-0.03130413686450111
0.015119688220029886,-0.04745947291373737,0.005366480129937034,-0.05831231208961894,-0.017959690286646787,-0.07794419253090779,-0.09668219612819075,-0.029552016689106626
0.020089459221583405,-0.043393204086000635,0.008143689006609275,-0.06216652059247052,-0.02576823317962595,-0.07900385944758576,-0.09688625806288506,-0.03967437672064214
0.01364387804899822,-0.04392905852630353,0.00926220320543856,-0.0633931107277017,-0.030870759037625945,-0.07965681276019126,-0.10061310854724094,-0.06532831495267155
0.016019087537374178,-0.03557677678123496,4.916067373550809E-4,-0.058716600203472774,-0.02506266686448941,-0.06901576834786996,-0.08145052796567459,-0.038716356906290425
0.019668361253490897,-0.03711716787819397,0.006923040880372796,-0.05491569921934531,-0.013766143829973642,-0.06699014999955841,-0.08559209459523692,-0.023755918950198265
0.017274859377743663,-0.040023705155949066,0.0146847190084112,-0.05781050690975079,-0.018981152093399747,-0.07174108593463949,-0.0825742634643179,-0.02690643970085471
0.01962479194553891,-0.03967610232970352,0.005598200195732829,-0.05480321293658467,-0.028569068899103215,-0.07770701086983187,-0.09249302820004415,-0.042167331280189145
0.016424239182414483,-0.039753427672008644,0.009627108087184944,-0.05099353738269148,-0.027979939163897,-0.07879087966079697,-0.09880117355194946,-0.06705373742618179
0.016801150587530136,-0.03730891984640547,0.015082555936297452,-0.046993755181664924,-0.025347723745518903,-0.07111598208900367,-0.08906976379846279,-0.04997579283882834
0.016999851186016372,-0.042786382124376486,0.011425324853403702,-0.04774127565935432,-0.01879404888422883,-0.0667464981984948,-0.07904270040852629,-0.024188077411133883
0.020646927218490475,-0.03875119319381288,0.015016949360515815,-0.04985581298620372,-0.021461414238507046,-0.0726024927263279,-0.08529892579556733,-0.033570010432227494
0.02377245703932284,-0.04334277019090237,0.013073144039709042,-0.049034588353369324,-0.025821654393787273,-0.07399770280513908,-0.09409220180883696,-0.05066867728137828
0.020658937914709484,-0.04055106511276225,0.008024495674319254,-0.045447457232564645,-0.028711321815691828,-0.07027645021397046,-0.09369508858463296,-0.07226205074659377
0.022748035976863014,-0.043430073673253536,0.01988217904455627,-0.04358831202868589,-0.018988969295268627,-0.07004638001863792,-0.0802713356020492,-0.05141790221689094
0.021839854421902883,-0.044696363555245054,0.020899740066396756,-0.043056787922658,-0.021558438460266904,-0.06531418462686728,-0.07808491555876373,-0.024766006485369876
0.021671097560794595,-0.047997458403830365,0.026751188278640557,-0.03996787740023615,-0.02080069786891088,-0.0710697370553107,-0.08433252483590171,-0.03757006289400206
0.025631555346517183,-0.05605962225658576,0.03105439366837391,-0.043883522985432334,-0.027467797299170645,-0.07485219826181387,-0.08918562389597189,-0.057522086799446384
0.02106337249889852,-0.05440789696015828,0.022873724461934065,-0.045982331272652846,-0.028564842863163614,-0.07651702213431472,-0.09179154591630793,-0.06965333884346121
0.024470924839609255,-0.047983259819683884,0.028521816411381136,-0.041130182462920085,-0.019548328028242672,-0.06409605062620682,-0.08345672082262699,-0.03998560632549851
0.02468972083893282,-0.04880081783094605,0.03219332622466567,-0.038760015488943395,-0.014906556645986417,-0.06033371521996426,-0.07544251881718278,-0.019916225263043145
0.023930413384595884,-0.044657979258823546,0.03115320496108691,-0.03756832994696276,-0.02570249510126908,-0.06676402267948706,-0.08327072482789614,-0.029223907617356746
0.026096544000928444,-0.05110008660793184,0.026225627863116576,-0.03793236226855992,-0.025723447823243924,-0.07122924110282874,-0.0922268323440496,-0.042536804748893445
0.026493692882660645,-0.04741975057219771,0.020724558370862158,-0.04037819207029906,-0.030928398809087414,-0.07639531717840162,-0.08738800431894934,-0.05212716134835837
0.024765733490225667,-0.03495026726310174,0.022621186256902605,-0.036680429838800384,-0.01728475127931718,-0.0660663465090035,-0.08559664732909687,-0.034556105405010897
0.020345667133720328,-0.0380235772153128,0.031813622486694663,-0.039271316632952726,-0.017664546999349905,-0.06508010516122736,-0.08172531567012437,-0.011142807421996458
0.024839519150526197,-0.044119811046523336,0.03147682563216299,-0.03740976655361714,-0.023694961842753402,-0.06360689825445867,-0.07903109666118785,-0.02037082794829339
0.026189093601773666,-0.04420660652455443,0.028753330114614454,-0.03960290989783338,-0.027669191472220443,-0.06551077518562828,-0.08566889042729052,-0.039650645883525744
0.02451509190915765,-0.03074010637530467,0.017574483888380354,-0.04255569721406165,-0.030792081200040806,-0.0786403202229207,-0.09710293520883645,-0.046028497197156994
0.01904056005752586,-0.02211415558959877,0.0176826426001731,-0.03955182099922916,-0.021508129996721474,-0.06677759551380019,-0.08555253130626869,-0.033283525580192715
0.02833470384515722,-0.03012867545744547,0.031031004327394668,-0.03785237932135124,-0.014986169067828908,-0.0665872832155008,-0.0779292314029968,-0.019576073716420696
0.026911652516004313,-0.04746639206982151,0.031958352124412,-0.038715398620429706,-0.01735563880683457,-0.06749921663067293,-0.07726456880652968,-0.03110432162985734
0.028891789601079736,-0.05084315163948149,0.03333831215657932,-0.03593475494596409,-0.021509038094788848,-0.06813026646075862,-0.08619545264540061,-0.0407596615325234
0.024155865823838267,-0.04039288658469255,0.03084692249428423,-0.03864062237655081,-0.030589459226002622,-0.07267725891373925,-0.0914453099886709,-0.04998427465739589
0.028147453483939443,-0.043688517216445635,0.033150747461230395,-0.03542749767285536,-0.016845771183102497,-0.06466511990893357,-0.08073301166904524,-0.029707617374335756
0.029711489230598718,-0.04857415200398537,0.03998245854019664,-0.036139034248205325,-0.02146342189136453,-0.06521942919931792,-0.07375348519654563,-0.020674446071975078
0.03269602454534344,-0.055430708605342396,0.03966164433820236,-0.03616710233983636,-0.021244436435244315,-0.06631896402772416,-0.07820927869655567,-0.030442473073048405
0.032509535117483945,-0.04912198331504199,0.02982385515230502,-0.038171375894582665,-0.02419714450492721,-0.06768753595100878,-0.0859187072021454,-0.036239417698906005
0.028046099856993682,-0.036733932613936635,0.023825638588471365,-0.03890693198711111,-0.031786386632136496,-0.07084580808964192,-0.09022130623659012,-0.04612836241454237
0.02864169180126611,-0.041015070244559006,0.03243167391561933,-0.036219297619598634,-0.01581203484157276,-0.06272101306144354,-0.07826077920447037,-0.0158827074449381
0.03237073479772985,-0.04386542769078798,0.04470863560053081,-0.03259350751303713,-0.020275833558882454,-0.06127889931454627,-0.07979588428950499,-0.015594816566121782
0.02652487944484635,-0.052611768040526995,0.03329125913614344,-0.03321018375823696,-0.020629321667635685,-0.06664661208119278,-0.08038888231492115,-0.025688024034471155
0.03362364008846472,-0.04428864272046939,0.037697726490326114,-0.031150793165479078,-0.02874725092582943,-0.07606913337279177,-0.08903175722372672,-0.028744872220593326
0.024854487620657947,-0.04877097148429332,0.027593782679352502,-0.03690828908674446,-0.025295768738718073,-0.07456875266051113,-0.095309268105898,-0.04002434506216672
0.027035819288083754,-0.04598942270699819,0.03597101277820698,-0.03204659803869095,-0.013417750830638444,-0.06269791761284249,-0.0811142487997757,-0.014553997184804393
0.03195279252400231,-0.056556039873578746,0.04428444694124427,-0.03063898226423719,-0.01575034455152596,-0.06362812422686615,-0.07793596617943019,-0.01559021642608418
0.03238697437807587,-0.0538955932224325,0.03717038670364566,-0.031344981067270454,-0.021857656957772382,-0.06768970544032003,-0.0807793651976779,-0.0254688101472921
0.029324539200126412,-0.03889444063311862,0.031214512767418844,-0.031196609383715327,-0.024903800601646837,-0.07777670585172664,-0.09512351030252994,-0.02561531714978325
0.025890139099651707,-0.046409020484506694,0.02618814142178708,-0.03740698310297831,-0.028979432874994857,-0.07601904962694463,-0.09055054861387586,-0.03868637755277707
0.02837938962702449,-0.05289435276754327,0.03629959300711381,-0.034194842656776483,-0.023745579484999793,-0.06898844605645614,-0.08134390945517787,-0.042574891395658704
0.03274791951274359,-0.0648114152459887,0.043028376783203724,-0.03149096150684419,-0.016716733569550255,-0.06325860432544732,-0.07693368415393863,-0.022429480674450032
0.029666914230745668,-0.06291170728369004,0.04003428552314722,-0.030029101936317918,-0.021131195420156134,-0.06941527774792369,-0.08267912574928711,-0.023634415023207796
0.0292492420644024,-0.052388694435067676,0.03821241260131704,-0.031033244435975688,-0.02867629791988808,-0.06916341663602284,-0.08718316817302176,-0.02525172421765887
0.02842074938802078,-0.05829341125980832,0.03934329552576589,-0.03389018811968365,-0.031045845156166672,-0.07722383577764654,-0.09532948817894292,-0.046739870932594525
0.027787429010459535,-0.06003193761163546,0.03892135612936818,-0.03713760410387711,-0.029163898358885332,-0.06514334119755098,-0.08918939155010946,-0.051452794098899204
0.028762555339895864,-0.05169865523568197,0.02947607324154476,-0.03311087167609525,-0.018815344112906213,-0.06429811491598468,-0.08306505148714935,-0.023855097866543377
0.027830195256455664,-0.04721065435826204,0.031649745566891145,-0.03615250682255963,-0.023856428691149553,-0.06942390045795273,-0.08283157838440765,-0.027420374398813126
0.023337116551739853,-0.04572269641767863,0.028283735018104394,-0.035784561173243384,-0.026627146965148105,-0.0724102929257838,-0.09069044570736394,-0.035153933462991775
0.027367771277664932,-0.054913971473743495,0.029627095595683706,-0.0343552555112708,-0.030946528025539908,-0.08291140736898356,-0.09113896572235261,-0.058884759576116004
0.028764357189541498,-0.05621787499568375,0.029230783830677037,-0.03582369244543386,-0.02748701826692669,-0.0709041708180433,-0.08624962436398052,-0.04802244476515856
0.022383015763281434,-0.06191397028300144,0.04092990609764768,-0.031036096708280805,-0.018802074848415635,-0.06090216443890279,-0.08571656105487842,-0.02035002405036262
0.023970514255877495,-0.0552487611350643,0.03670379980080454,-0.03220794388200744,-0.02375252903773651,-0.06950316388349405,-0.08880083147160878,-0.02137851330957609
0.025722574079497445,-0.060147178008548255,0.032341643718643176,-0.03520603250556329,-0.02652349391316449,-0.07593303397655252,-0.09345676984463869,-0.037679973438035794
0.023363138581446258,-0.04838309554782714,0.0223165260329993,-0.03750675891707318,-0.037946663875063354,-0.07666204854622108,-0.09942343743712144,-0.05904036858715845
0.024604798504389427,-0.05383188099003577,0.02954439100565733,-0.03511755056410808,-0.02436668590134006,-0.07097727544585254,-0.08178366481750754,-0.05144489251472661
0.028912514126232417,-0.05974404264723829,0.038051462893363204,-0.03224944335709511,-0.023264734390231235,-0.06701110991398422,-0.08237353155977162,-0.01855833644879568
0.026611933215825865,-0.059991286025210554,0.035916352535196545,-0.029408533886076494,-0.03131459951988064,-0.07060284749554342,-0.08548585859734915,-0.025975355543461157
0.024619852255137926,-0.061031083769703405,0.03499096098529252,-0.032453507934632926,-0.035759991849931616,-0.07707799202423109,-0.08868317055497132,-0.04592926279034401
0.023152128678834642,-0.0599630719981743,0.02852175749122562,-0.03391933062294239,-0.03495639259834649,-0.08122972571459192,-0.09467565688232978,-0.06269568679599803
0.01993068864726003,-0.06153138201429365,0.03300750702597395,-0.033371706308345336,-0.02978576872814268,-0.07977684183777896,-0.08873032214804553,-0.06624674788169088
0.02313876784266194,-0.05608289056166764,0.03042747905767405,-0.03228565735083467,-0.02754083877697627,-0.07163905749224254,-0.07967147075157936,-0.029991847458440732
0.02579473111739687,-0.053085634795415323,0.026607224463564876,-0.028386093142984865,-0.031923766088993125,-0.0777716210567081,-0.0848639711708117,-0.02993737465746065
0.023605727061429344,-0.06088044543261467,0.03341959530678071,-0.03531339055251292,-0.03695789392098439,-0.08115281276649662,-0.09102894969210672,-0.05393217431562381
0.024910681121650662,-0.06345406054260484,0.03474461404949574,-0.03634968592472213,-0.04048485821507743,-0.08442803175038503,-0.09951076007635878,-0.0772356172856078
0.01997925857796332,-0.06395923712907532,0.027770219146898128,-0.03954847468239264,-0.039074112170932984,-0.08391508072580094,-0.09401714959536642,-0.08302237277559711
0.023797249072444546,-0.05125036021369582,0.02912098759214549,-0.03234062972550309,-0.024939363360219204,-0.07360954800012033,-0.08874919719089089,-0.036335494588232875
0.01614451380345978,-0.045512762141861667,0.010811743239388662,-0.03520236724115485,-0.03281575281470606,-0.07459773620527772,-0.08841465333413184,-0.04305628034073002
0.016346042400587717,-0.046679372084493055,0.015833744134071272,-0.03896299412038872,-0.03307225650634306,-0.08157440644547218,-0.10052451077235167,-0.05959450266715834
0.015100026117891727,-0.043751409487355786,0.006819173200300805,-0.04100191422568772,-0.041745350729608915,-0.08089152939219359,-0.09213478743288779,-0.08009196634714416
0.013814929124604329,-0.0418783606298652,0.011798359090230736,-0.04039893505979936,-0.038351453648644535,-0.07958883355342107,-0.09231819682768548,-0.07023982918059463
0.018614910485361416,-0.04122855372847268,0.018303755785739926,-0.03954187483455684,-0.03394862267582381,-0.07211513647379413,-0.09072473185765804,-0.04378088497384322
0.02007435030280446,-0.04337842381729189,0.01618405620977564,-0.03990763737617591,-0.03488181656791183,-0.07793666572172525,-0.08888204887062541,-0.04838572102524271
0.0208989682906533,-0.054443297014131725,0.020006162052740535,-0.0416133694316065,-0.041773858460416105,-0.08343569881506967,-0.09521024207418578,-0.06859715466892082
0.017914187903658035,-0.05635190615908617,0.021115867947529295,-0.04317068711975439,-0.04379003353133931,-0.09118791991343701,-0.09435568985718247,-0.08478865200366882
0.019614846690720975,-0.054284715004305775,0.025360773310768955,-0.03850514647066371,-0.035447228952235996,-0.07725421823435388,-0.08705569084199828,-0.06472587834499012
0.024630176494885275,-0.05736821351030985,0.024976195368447307,-0.04028471391176215,-0.035266163837186684,-0.0732231970704168,-0.08907102849829274,-0.047959901637958186
0.021815119204818156,-0.0676714096019842,0.029876405750174754,-0.04082515226603931,-0.03937505267054238,-0.07500089531839411,-0.08582652370085626,-0.04812400087339687
0.024510026084551138,-0.07025204129102279,0.028252690341266026,-0.039646032406033226,-0.04205668031134701,-0.08857844918707679,-0.09639598286912425,-0.07193186522840053
0.021307127439768543,-0.06690410379789453,0.02436807300796753,-0.04516303929256512,-0.046587756442832334,-0.08665217525411528,-0.0964494453267712,-0.0862159522421077
0.022292638788347568,-0.060691628644915646,0.033469008200427225,-0.04146250646436882,-0.03502013425581624,-0.07652285723770827,-0.08033359759016001,-0.055756651126919035
0.02610959503597362,-0.06378094006539901,0.03540540697366565,-0.042961879286681826,-0.036024503572044744,-0.07768516863009987,-0.08536502422810245,-0.046439582339919856
0.018354716887962537,-0.06858370964752371,0.03343362829966742,-0.04020984669279704,-0.036539213800562735,-0.08396386667454454,-0.09036377079574308,-0.06240765088939239
0.018498060189546292,-0.06692384229586132,0.026084606340194712,-0.04160091095533497,-0.04523312623420156,-0.0848564464923559,-0.09847950469136381,-0.07958337385144477
0.021955678437595574,-0.06646611721006002,0.021626227894768105,-0.049202915770112675,-0.04826419021596717,-0.0923405363316189,-0.10526120378891995,-0.08617172134889706
0.019142584895243613,-0.05449926242774942,0.024116757744952415,-0.04426826900139975,-0.038565942818326114,-0.07990925777897127,-0.08681558553661055,-0.05008722568701981
0.019809115890767903,-0.0652295149413367,0.016756863142056398,-0.04718308625852567,-0.033727939673117074,-0.08340074126990915,-0.08674413800581347,-0.04956572558479081
0.020977950903151257,-0.06532841361010372,0.013615743186303896,-0.0502010769973294,-0.03826546938342757,-0.08859335275751881,-0.09715894960236097,-0.04717108666254301
0.011592631387876466,-0.057668423815204414,0.012560487989614883,-0.05359236494770213,-0.04889341871713328,-0.09462184011430062,-0.10492189822013333,-0.07624554509820335
0.015534536767428487,-0.0492860263091777,0.010141684958673987,-0.0572508322378264,-0.044324491848790816,-0.09358543270193248,-0.10708540813882726,-0.07901166976019292
0.016176821696818864,-0.06244409114257805,0.021422960397230704,-0.05512197783991284,-0.03317487038673818,-0.08230803811202672,-0.09433809712580539,-0.049485440943898396
0.019511276967613574,-0.06792429808204072,0.019610253637039148,-0.04921646761738161,-0.04423911807804976,-0.08848523248590122,-0.10460317527091209,-0.06362474265561441
0.0193398963611481,-0.07139793968813378,0.022712103060762594,-0.05471711676093192,-0.03875589252626401,-0.09868920694777185,-0.1021999288702234,-0.06958058088350583
0.020732280700302513,-0.0681144092761009,0.015997267911053943,-0.05746607714079034,-0.048201922978736406,-0.0955700844368504,-0.10542622703749963,-0.08607251833743712
0.013228193414982456,-0.07174684009241256,0.016361020560921584,-0.053508823491122355,-0.039757508982413606,-0.09107198519132846,-0.0992695647533999,-0.0629471261696829
0.021439684961930834,-0.07285567741989928,0.025785660864231258,-0.05177316154589009,-0.04496532423157457,-0.09081530155928727,-0.0970641504808281,-0.05616761575415263
0.017318927534322837,-0.08050260866117274,0.024197023797364933,-0.05219396148656301,-0.04292438045707215,-0.09545302357858133,-0.10458486521786567,-0.062056298880010616
0.016490129536405797,-0.07197961197863366,0.026832648462307325,-0.055238331206219245,-0.0451842240167303,-0.09386255406282404,-0.1098652293405153,-0.0696050294389845
0.017245216732294535,-0.07133518721569942,0.022991173943115176,-0.059320774151054974,-0.047479509428118745,-0.09799646905299808,-0.11179257365581953,-0.07845021003376734
0.020780992738045723,-0.06430209375477601,0.026089515470625477,-0.05303633376200117,-0.03441052074760242,-0.08455119487635235,-0.10085884054884565,-0.04437263579692023
0.019929440748747564,-0.07330019739270818,0.021767755180360334,-0.05474619574460618,-0.04090279184002438,-0.09557155886635713,-0.10260468961046414,-0.044954788710013634
0.019603082846793136,-0.07160203510708196,0.028435373291127993,-0.053300879211440735,-0.0472380967673153,-0.09906880438878617,-0.10945591990734987,-0.05317012824545898
0.017338754979815896,-0.07824822491286296,0.019987335516997277,-0.06058814522088127,-0.04030268990541804,-0.09383206905673129,-0.11861834897190283,-0.06627748734648219
0.016877023216154547,-0.06810201845253713,0.011723969298755601,-0.06177182117030087,-0.04694458808696851,-0.09910308604996897,-0.1135963611671748,-0.06365604389270975
0.022255858690600715,-0.06876265929306512,0.021824557052761116,-0.05427737319137177,-0.03660875385413985,-0.08910493475517184,-0.10634734936585942,-0.039642790455693994
0.01880811286413239,-0.0795380489882647,0.03217677998363997,-0.055179668642593944,-0.03747673514437834,-0.09196911354364987,-0.10767570639535945,-0.050171611918378496
0.01959429464238363,-0.08340136380709039,0.03478002953892907,-0.05799244395880097,-0.038249744382157745,-0.09656115947084266,-0.11228113162061647,-0.04492125397747174
0.019989534315412696,-0.08100550544651812,0.03220098235559181,-0.05873140418133665,-0.041944194284586865,-0.10304510221809542,-0.1142173216477404,-0.060453492294850614
0.02013191756578253,-0.08506433498228178,0.03112515993696452,-0.0621536563975631,-0.051511924257795286,-0.10201172530245313,-0.12133185096760357,-0.07427211240917508
0.02145129701620881,-0.0911712909016431,0.02985289221652203,-0.0559594494356965,-0.03850406723195259,-0.09265866013739339,-0.10724759691274936,-0.058273686525445824
0.019217438649805622,-0.09284946429769103,0.0357241095638445,-0.05327211722787639,-0.03735951028452703,-0.09434935348475784,-0.1145451206121582,-0.044919580244566375
0.018390835080027493,-0.08824553023190602,0.03517792824672196,-0.05592359391841957,-0.0473543007744747,-0.09630561086843034,-0.11325725680087773,-0.045738477159302265
0.018877606832132087,-0.0903660065231913,0.03397646302639414,-0.05874820355860683,-0.044167272415671414,-0.0984467494129665,-0.11863783772429011,-0.049235088786835066
0.020896643941157565,-0.09989296622368726,0.03931819001029327,-0.060737262152632664,-0.047402365803764925,-0.10623210800184799,-0.11895283688690754,-0.07777517051313802
0.021992538761236313,-0.10153135026796162,0.03235829375894105,-0.058324873286198786,-0.04813890693997373,-0.10900472292654052,-0.12021719242608313,-0.08865923242042029
0.022341023774106798,-0.09990050402722468,0.04059139044847521,-0.055228060075732444,-0.04203469594844164,-0.09954525346597078,-0.10999944632774102,-0.053493787625742834
0.01693856525911427,-0.0878349633855711,0.027144197162271545,-0.057083337472443,-0.04209334325803656,-0.09626022617492196,-0.10794997435043759,-0.04211997642378393
0.017495623959722508,-0.0848633954207535,0.02125286349039598,-0.05924441754103495,-0.04218763426904667,-0.10182779770390271,-0.11450288515771359,-0.05131549754111712
0.015167923136094911,-0.09210746312923261,0.025786879320296788,-0.05729469921617834,-0.05466270214320531,-0.10307025375716504,-0.12141315222769024,-0.07293392940651963
0.018557499765672555,-0.09994481794965346,0.03094034313427599,-0.06187476974942949,-0.05545255125600023,-0.11190757653777192,-0.1259703784819659,-0.09851328757633658
0.01814681181987126,-0.09110076300933159,0.026041454271039353,-0.058581684894625105,-0.04134575016001149,-0.09332731822143281,-0.10823920028572767,-0.0667694465998192
0.015992844829966383,-0.09302410551859568,0.023999012849099777,-0.060498814652246255,-0.043684439896648455,-0.09932628598757176,-0.1073589255523272,-0.05756735548273115
0.01622966552743202,-0.0929377306213161,0.028325301562266526,-0.05773102583588242,-0.04534667572729452,-0.09654598377194683,-0.12105915188025586,-0.06894449113012156
0.019081257912917097,-0.1002118444837269,0.030357927226287815,-0.05939866429002353,-0.05438001954064119,-0.10226954954065692,-0.11510082875152455,-0.08903311154011301
0.01650786263547927,-0.10672383963128748,0.03466964378877896,-0.05376693143751466,-0.05478155939034421,-0.10252288865581527,-0.11827128661158957,-0.10315958528946978
0.02172815691782549,-0.10274189582211263,0.04000694988553172,-0.05343445920959598,-0.04206164569525346,-0.08918296729435517,-0.10262122945806731,-0.06469715325884935
0.015945259901850424,-0.10132658355491769,0.036721660788293406,-0.055563298644323716,-0.04909847277646481,-0.09702690429893229,-0.10422033942727672,-0.06188689440093127
0.02141659447879889,-0.1073906474128132,0.039741246511992075,-0.05248822912300597,-0.047537958340498426,-0.09446361109172717,-0.11245273346133061,-0.07606027732621638
0.02027230954627163,-0.11632116066172533,0.03819043443954296,-0.056342345159770935,-0.04801354368464481,-0.09968369120644402,-0.10809170952381483,-0.09536669958182106
0.019453261585649285,-0.09808499001381461,0.03259619842932517,-0.05294459019962646,-0.048728695414613596,-0.09524852256786877,-0.11595381553184739,-0.09736841352219669
0.02094651559265407,-0.0954994708911003,0.032392608671729974,-0.054284855209955844,-0.04043061291962958,-0.0869855958382168,-0.0970804597641533,-0.05174616933299964
0.020364798565720973,-0.09590513280179562,0.03331240171162884,-0.057943035242380994,-0.04613907061636417,-0.09025463025071968,-0.10071697537906256,-0.059388427498623726
0.020187662094914644,-0.10174326014021426,0.03053765938391416,-0.05518008399321252,-0.047215011153703836,-0.09538156523395504,-0.10365389917443803,-0.07366203930480854
0.016119720277863122,-0.10529308273854414,0.035039468310063264,-0.05225383053487418,-0.05299790619423413,-0.10131112946092989,-0.1081754602140096,-0.09405906838267954
0.019750960783114734,-0.10743205661182226,0.04073465764255802,-0.05268046914293851,-0.053667881406515024,-0.09598555555962338,-0.11035801417826768,-0.09891434719874127
0.01719227575780427,-0.10466538125415167,0.03900594034598094,-0.05308095579758869,-0.03779698485188741,-0.09041901618404306,-0.09563833510850658,-0.058381056862765325
0.021283952156110023,-0.1038462176486814,0.03857985824459735,-0.05638049228565795,-0.04675430885468934,-0.09258361442153791,-0.10205495462645361,-0.06062847351529348
0.014980044726421973,-0.10480600885374,0.036358495728315704,-0.05679139970446629,-0.0509603420484549,-0.09762265772944725,-0.1023319679722044,-0.08295640563082513
0.017252348979372573,-0.10043558595996013,0.027766249878925193,-0.056466841874436624,-0.05280814226903335,-0.10080700601504759,-0.1070029179042476,-0.1005268909696093
0.018425310628251933,-0.1053115835227303,0.030722208035934243,-0.05545882586912431,-0.053258488755750406,-0.1051650286967857,-0.10989575149516034,-0.1063569749333452
0.0176764908362065,-0.09919285616302892,0.036903913227475466,-0.05199160025489468,-0.04236547223747144,-0.08782239644246054,-0.09702743816211881,-0.06459684881438038
0.01586231267257925,-0.10863429383071019,0.03673618633973639,-0.05439717946926015,-0.04472793764728801,-0.09500279580384022,-0.10385052989486872,-0.07078011489350021
0.02030734264592107,-0.11170118704213934,0.03827269007508682,-0.055873646496878066,-0.05364862609533359,-0.10137659838167705,-0.11855257430687387,-0.08757726573402667
0.016590430884041597,-0.11433897615916168,0.033682500249979284,-0.05535798507241743,-0.06284707007697776,-0.10295603094159084,-0.11258554250355272,-0.09411971660884477
0.017634257771814085,-0.10663958756242381,0.032606416150503,-0.05433567458943657,-0.059253982284533706,-0.1032420358569793,-0.11558060050272541,-0.1036537801489412
0.016803723855195938,-0.1092973460502783,0.036524721137438106,-0.05721557313380322,-0.048193884911437106,-0.08994516019614852,-0.10370945287934204,-0.07037904078994707
0.017094407706238733,-0.11400031522767336,0.04009863442207949,-0.05570133753515373,-0.05365346707840537,-0.0981029337078211,-0.10368022762092652,-0.07761297655323648
0.015395314141237126,-0.09598796238616579,0.03169569001826269,-0.0575700874327401,-0.053045878653309425,-0.09573347550379989,-0.10177030597925166,-0.08393840326678609
0.01038060949687678,-0.1035094800781224,0.02681522378729477,-0.06179347128221083,-0.05838662832997209,-0.10484759833806198,-0.11464776119101239,-0.090988015428015
0.018617129720903885,-0.10177006948707117,0.03389668796559097,-0.061910906142212396,-0.05382485745198444,-0.09789461772659365,-0.11006061107011278,-0.08450803487085828
0.021419281499312902,-0.10626041121648873,0.036398894994634313,-0.05654653254463499,-0.046438699633287894,-0.09615023758539137,-0.10755771251612449,-0.06956835962119545
0.020714133727218552,-0.11305427872414715,0.03552944554999041,-0.061893891430443854,-0.049411405040478654,-0.09720017929345197,-0.10576872693322671,-0.08024308347411534
0.01629359811071311,-0.11226947115681861,0.030372303152301692,-0.05695819380591825,-0.057411017579404276,-0.09896133322139236,-0.10888454195350035,-0.08048808801625468
0.01917399196564632,-0.11071106729259064,0.03467870791643099,-0.06192721984196445,-0.05736152384971475,-0.10656598380457348,-0.12000750325462378,-0.09230263439386197
0.018085031152384697,-0.1086570225942799,0.03874069591539263,-0.05873011226679367,-0.05065941799481957,-0.09388182464360766,-0.10713390768266622,-0.07314921046139661
0.02343721368788471,-0.11465167390396963,0.044663553992508306,-0.05742703460763381,-0.04691002728936631,-0.09038788754514802,-0.10134305279633604,-0.05822982235045372
0.024976702876130588,-0.11468616358763575,0.04765399529857837,-0.058474481964933926,-0.043720049653667756,-0.09953568157772028,-0.10630686153299714,-0.06327073500258042
0.01994276280015927,-0.10019630028578946,0.03498793462472936,-0.060922670703604485,-0.05282746020373063,-0.10193038548274709,-0.11056808695454726,-0.06990725546602324
0.02235171776096403,-0.09659063708975978,0.03052567456391867,-0.06367459347484607,-0.05311407736090198,-0.10611146884409706,-0.1177654262643955,-0.08381621137417664
0.025648031388081825,-0.1067285533513728,0.04176505734583331,-0.05530567965625512,-0.054312522517466745,-0.09497458577120607,-0.11474295922899667,-0.0768438032005078
