0.055403494611085374,0.2981539710015631,0.03249313326716708,0.008781267630672175,0.012286069693407668,0.02834454290284457,0.020247499682674815,0.26485334630271345
0.06805903260462944,0.2793654331208777,0.044592981734712656,0.0320143503880936,0.04719758896962902,0.09136730839917843,0.09069564597936541,0.2741975313570656
0.0972621798340194,0.36636330427526065,0.0948665688736849,0.0926213669931088,0.19147368956939603,0.25040350805155814,0.2677397927511566,0.30755975051679457
0.09394739035825095,0.3541692312702285,0.08039507869680725,0.09654204914360352,0.19493998231583975,0.2485877283753621,0.2432236715435799,0.3643884219612938
0.08971588016069948,0.3094328536741365,0.07546586155880576,0.07420868707856451,0.11482877811781649,0.18409531069086893,0.17129999014329972,0.3042907300834588
0.060391946607187885,0.3088197396422407,0.05009426944784402,0.04400876392940955,0.04397158669175032,0.08385355695236585,0.08603950810800665,0.27491471761040276
0.05679314145242423,0.32730700475507285,0.03410089017308254,0.02326030006786483,0.010855855106851641,0.054977518952507985,0.04564203328639336,0.2923534894981971
0.0842794038710789,0.3913962670770004,0.09031379727677508,0.09432843342408563,0.20144712394528674,0.26826226828175703,0.2540521598529921,0.3826454741763992
0.0915954541168839,0.42992902864939186,0.09744591183015686,0.0984954232806531,0.19471602930752366,0.2608265632873494,0.26748810165018444,0.40409385113744034
0.09057771052130761,0.4285503644746552,0.08435497402928206,0.09232190382477026,0.15507319630933122,0.2299818370380939,0.21635069292884124,0.37143413510261164
0.07777940484461177,0.4324726165200613,0.07611146152704572,0.06276021763413075,0.0698411692665348,0.131794504796105,0.13277354121689877,0.33776535703303445
0.07871023351417593,0.41623398447805127,0.0606187354120886,0.04183305640244974,0.04550594231602323,0.10243448996804352,0.08490103692794095,0.328000848860622
0.10024763787231407,0.43270774569942294,0.11201175650227094,0.10423379290073567,0.23462801336731656,0.3182665149016471,0.3199093535504897,0.43512153322893393
0.10330763573476225,0.44897223508524553,0.10683379181422369,0.11626443781953157,0.23860093401309895,0.31813649603545013,0.3163898442469159,0.3802445358109531
0.09551084358460016,0.4323243983108736,0.10109402339308349,0.1090466462447228,0.1972438994667277,0.2708536422260181,0.273425007179095,0.37652908839095267
0.08055063313695549,0.39837576996796276,0.06691806326438715,0.07436179569820832,0.11133851722587533,0.16998305266041985,0.17262945395094076,0.2994278537108533
0.05095014615136954,0.3121334020690267,0.045510354402940524,0.029079866448691944,0.03179246883527328,0.07373945959818991,0.08510096059751786,0.2854950297471829
0.07494360019231291,0.34588743704561664,0.08918035698445291,0.11028028312512703,0.21073151509155547,0.2901460323977925,0.30478578428573616,0.3135955363193748
0.10247392444253546,0.37167527350146556,0.11214204075381097,0.1352943567221344,0.25466029744022173,0.34188269107976044,0.35905165418135915,0.2740301081717388
0.0833060847042813,0.2611013792446134,0.12983937627774841,0.14565816663693973,0.18333012622445125,0.28908929340074,0.2976862585495514,0.057675135775717826
0.05451283600383408,0.07142601060524298,0.10332053544575413,0.09081068923614377,0.07904995433983551,0.17420767163548095,0.184219608440691,-0.12642660556760277
0.004162287317163889,-0.04460855468894444,0.03969701859854212,0.042689839882221976,-0.005769983553451351,0.07534958146417585,0.0935917275032085,-0.12205736663989042
0.0445431591179019,-0.02652913931974286,0.06720371979963947,0.09485767712019012,0.09789118847835462,0.17346595535255122,0.183635101046105,-0.03862983898150222
0.09298317859284425,-0.0452549388650275,0.10569460092783282,0.13184490071257934,0.2287020392361484,0.2690085244004044,0.29486038135795295,0.06904196119766648
0.04899028379096036,-0.06140122288231719,0.06652960602699752,0.093131307352705,0.19313215163059316,0.27067111428805574,0.28243699777807874,0.0827936657247666
0.022766632500869733,-0.0066907294519954336,0.03963853535507542,0.05716638020702224,0.12987386425794728,0.20389400731141225,0.22009202203276948,0.05944551695859199
0.010998072823944847,0.03928158278575042,0.02230320441533432,0.02526371554980883,0.04004026512402922,0.1123884505952782,0.11931688261920419,0.03720942319267525
0.006823259351189873,0.051971118120344,0.024894490111160347,0.018629485588022424,-0.008498655519968383,0.06962332319017428,0.07560613204919234,0.041465525172746875
0.043960625800260854,0.1036658002269969,0.05875547080431379,0.08427892418925195,0.19902298859720186,0.29221498294797865,0.3212906447779894,0.1296713928153446
0.04429411606448773,0.17209931205821918,0.0873307342307942,0.10411249570111591,0.21231332466921096,0.30796848308748365,0.33510452347075836,0.1474800318410163
0.055767593529721535,0.22890932763458885,0.07572145437972407,0.08014440869259343,0.17892645385693323,0.2413378129624244,0.2589642762567751,0.13156550434198877
0.03189627372261528,0.20450144059018965,0.04764712256305967,0.04393216284708381,0.0878782339042568,0.16211172017713318,0.17533754054692807,0.13256656216981047
0.010280030504959466,0.13388087314044153,0.017871642398133512,0.01092616473630912,-0.0032355467795728197,0.05626061828097063,0.07261235858735939,0.03813966432685035
0.02227134163834426,0.08946149910688006,0.0440896475478454,0.06215970041727373,0.1518708014265268,0.25391624814473746,0.25812422352139414,0.05855895879459631
0.039440804463291054,0.08646370615429776,0.06181358697927029,0.0811766113794903,0.19062204867287935,0.2793218573823588,0.27787797915905404,0.054099052581063026
0.029500866088911882,0.061248232164891274,0.06128961157991415,0.07396413250089376,0.1513155223145032,0.24008469080981307,0.24573168488238506,0.021397341480249243
-0.001558324788894335,-0.001769631044463461,0.023084661064826654,0.02849996338245714,0.0646607083657928,0.13955778165193242,0.1447344205338794,0.006266180552756871
-0.0069311767781184965,-0.007712069742552504,0.0043271294605694765,-1.1801577498982254E-6,-0.009095688791032805,0.05313364413227252,0.051128392212434294,-0.020458627536905784
0.018554054708312343,0.06500729434490864,0.04818519884793838,0.06176435924948094,0.160652312395325,0.22569467721419742,0.24365704991036838,0.03984031339983385
0.04432766774060825,0.16489755014713894,0.07123334390093071,0.10242137098571977,0.23128860234039036,0.28901517443409114,0.3090834018626832,0.10609389320194067
0.04126393743297791,0.2083022789026888,0.06477660023100403,0.09149503434199494,0.18592076744538658,0.25309456221439464,0.27256452217816174,0.12580440067339396
0.03065162808708204,0.18773968954564735,0.05048917454961539,0.07380738928452842,0.10792992989601109,0.1606814799260926,0.17309079170233904,0.08885248555463118
0.018340058134559828,0.16434115261917828,0.02521374240172988,0.02203622179606151,0.02854485601854959,0.05778756788000329,0.0563954042948405,0.030314886413133048
0.020955732247967627,0.16919312066253978,0.04837084138151823,0.06592356231907379,0.1600625929513227,0.22713056552734848,0.24423262255241332,0.08912798221541633
0.04477281728939723,0.20776944575030612,0.07905876352271815,0.11521088157909128,0.2271556165204262,0.30087120282768814,0.31234480133393694,0.13940887588504403
0.058355478820264574,0.2205664153386877,0.07916504820712987,0.10765424664523916,0.20756996906308156,0.2608017171868115,0.2834733306827557,0.14163643243192836
0.028142340120782955,0.1637294946074969,0.06027090432609836,0.06791026710078543,0.1341844664606188,0.1767219961407016,0.1843553804510381,0.13273668795078694
-6.903718920420946E-4,0.05664402064993815,0.014885722259244005,0.015509594476344039,0.045386425132811395,0.08328180953203321,0.06413103397972497,0.03735352880819795
-0.00671464543597999,-0.06837929344104617,0.042393934980992816,0.04227209244225553,0.16346816026608613,0.23981832184801782,0.22870273816013237,0.10972648971005108
-0.0011306424402252446,-0.08854244809889726,0.060347791942592634,0.051096204299038626,0.23648495520758217,0.2899650031794829,0.30919677368230664,0.1269508136014206
-0.008924452120521667,-0.14817367744744822,0.03715087768420423,0.048956707370970985,0.19870851293592345,0.26046394170495957,0.2651664732715927,0.1615063812421642
-0.01643031591191749,-0.20518218290006401,0.008251174535912861,0.029479382528132442,0.11817281979643329,0.1678327374500919,0.16723106057217657,0.1008272081280373
-0.04242348880515739,-0.29051334207022056,-0.0071779977577179615,-0.01796115798194843,0.04045314789943745,0.09533325058113443,0.12551210340601912,0.01883128620373605
-0.01989195580719717,-0.2617593352731624,0.03813629797677013,0.03794697960798051,0.21936356102142052,0.2916610494954092,0.30910601369335344,0.11695792090422363
-0.001988689527387019,-0.18637094095003784,0.04458641545988079,0.051957985581990614,0.24054433078733595,0.30244892351029534,0.32543783181094194,0.12820549948615598
-0.015098585160230967,-0.17338257109041236,0.03206091582285842,0.045867510611424925,0.1831137413975975,0.2619107209895425,0.2686258341274371,0.14598989327512432
-0.031608407680044394,-0.2071983710321454,3.311057859949896E-4,0.016900153271544444,0.11302532437992982,0.159328030745785,0.1799036798119043,0.11144169070580554
-0.027486049268007448,-0.21967669923114486,0.006448254887968955,0.01916995665653182,0.13179782130518558,0.20097950816358834,0.23306912409708494,0.08673221313902466
-0.019083897445137044,-0.17551152379644155,0.03933467673403323,0.052207010080205264,0.24703794082951847,0.32198717195076654,0.3533378461025161,0.13451002541452703
-0.022872303514103118,-0.151109079488274,0.022596950903796577,0.05098727272425599,0.22345750901152164,0.29476762140502816,0.31103644081557136,0.16402122538602504
-0.027154496277652745,-0.14779077876882246,0.01608177999122218,0.030487105572006075,0.16466431333029236,0.20807427871269576,0.22756057663696852,0.1355785022061932
-0.044661046680092076,-0.1807892905103452,-0.022463076091867096,-0.005043409394218233,0.04412461340017777,0.09560672989381169,0.12863918852774156,0.054794183098000715
-0.03016391942224353,-0.1919452701943431,-0.007430456824433628,0.005606608123473686,0.15573720941606625,0.20966634925862412,0.2358981767439814,0.08609603947753153
-0.016121129201006442,-0.13146747325786126,0.02301713297782154,0.03579691014990615,0.24102805662857438,0.2939763425681333,0.3325171026905639,0.1415910989449932
-0.02591830356156744,-0.17738690733482085,0.007102077765067163,0.03034287155276159,0.2018221897096399,0.2598288259142005,0.2860954802804364,0.12769496281351017
-0.04857962413309274,-0.2018033327806388,-0.010147921309034153,-0.003023455440254088,0.13699296642026487,0.19478900283045258,0.20193429413717784,0.09799955652418915
-0.059575959373067595,-0.17721967102735275,-0.037035729789823064,-0.029812410887653296,0.06548385425562465,0.11008395721058095,0.1242249401799593,0.07536174889272843
-0.03995398604225793,-0.15988648928388174,0.004934842191183693,0.019899622625339685,0.22046165681576113,0.29751936419714714,0.31905395026844,0.12646995345781914
-0.026955705133810633,-0.13655279481976373,0.007205294600504774,0.018973074372311945,0.24408060490890982,0.307304405582509,0.3258359613352596,0.1838752608746466
-0.03549454495043046,-0.12827087414939228,-0.007947630786433891,0.004627277945159901,0.20386176986738444,0.2586313627616115,0.27127507958414615,0.15065383908485117
-0.04509926340274202,-0.17084054720775832,-0.02422285551966938,-0.028574455158865912,0.112154298191194,0.1563446670321302,0.16324331183871466,0.08385566034805896
-0.06573626916946038,-0.17304516654627078,-0.0434122231705976,-0.0384367270158453,0.07994558616490781,0.13441295156465838,0.1507758299188657,0.08340274931176445
-0.024173234462151565,-0.12013803069142853,0.006062569732960016,0.018911371524838207,0.2552691683714935,0.3445066620805987,0.34846558150736917,0.16989703413474175
-0.017308896088996054,-0.12023680718610093,0.01570778937152222,0.027185338952681937,0.2720745926797228,0.3329933393790459,0.3616680805187529,0.1775108608507364
-0.03742792991839455,-0.1497624070233381,-0.01168320338049004,0.008920553056247851,0.2159342286287808,0.27069219065603417,0.29849121502749454,0.12430819549646933
-0.05694642061665701,-0.185667817041595,-0.0346896857110103,-0.030071714593246705,0.10619619963154983,0.17371148173427897,0.20556096716093267,0.06412403849886757
-0.07364402017555616,-0.18941346673234943,-0.055138658608427454,-0.05006920116937694,0.07915482275250324,0.11288541448670426,0.13269220677187352,0.08271189000365141
-0.035965719866414725,-0.14027117979090387,-6.047068632515544E-4,0.013667953494532438,0.2598987124674246,0.32277374814325105,0.36091625747640005,0.14626639842398567
-0.01505474398905995,-0.10768227359905869,0.013110914508209686,0.02777284121486195,0.27342282907076804,0.3383490714966451,0.37882415395210756,0.16332778404257076
-0.029140146390781226,-0.1293205068974582,2.4137733708045196E-4,0.00482196069664616,0.22939603461453364,0.2921771331730159,0.3140128099557721,0.167746755080762
-0.03958469266909816,-0.12021253207120862,-0.023341935526189562,-0.011387598503252366,0.1574038201326299,0.1951245609631004,0.2167424303314515,0.11435503531432628
-0.04735122807589875,-0.11523455146193912,-0.042073300142009426,-0.04298254311388211,0.06492477442927819,0.10104765977074805,0.12386939078554252,0.07187386097613394
-0.03385726820041036,-0.050675770412145556,-0.017246093710488863,-0.017112338461237865,0.1767639684432048,0.2297007685866633,0.26018849981541964,0.18725856537089772
-0.009420005627073682,-0.026587186787980523,0.0069338639037831535,0.032502282106098714,0.2794820775221256,0.34185919050592223,0.37546760524268336,0.21966766385826073
-0.010824938787452805,-0.06251998906230054,1.9940302297487397E-4,0.0020774481913841476,0.25743333788335787,0.2933934538589725,0.3316762736988503,0.18261867363092985
-0.02343572923372123,-0.08917660443069375,-0.004262612859737957,-0.024786265866992823,0.16391592662445004,0.22570371973796505,0.2534285255882125,0.12460222066234553
-0.03603244621475278,-0.09335745768499357,-0.036629180559427106,-0.04927548903133048,0.09855005117957404,0.13455876160828548,0.16445865627673048,0.16713220105261356
-0.03112938783719425,-0.08845117234109165,-0.02833391684366494,-0.03058732510688107,0.14854242622171662,0.1978585286699622,0.22131923385426877,0.17714662485506608
-0.013176493442794287,-0.06662407058708819,0.007161285008413684,0.020423012704979468,0.2631209447159202,0.325776834735452,0.34260164801351567,0.2040350013893595
-0.021773672548569413,-0.11340768159528541,0.007013841540607465,0.011982119524810955,0.2170042400796271,0.278357129743052,0.2994545110808854,0.16904856861506523
-0.02918752936782308,-0.13087728472039672,-0.014733961670085682,-0.0083143626059067,0.13815055483511635,0.20980829496773853,0.23028648578447738,0.11772639999084174
-0.03857918960350218,-0.14136985485962267,-0.0339327273392674,-0.0411270154000749,0.0661201238255022,0.12340024695822699,0.1351911807913879,0.11200349729172777
-0.03259904317759526,-0.09861108800596301,-0.029481218858546234,-0.020498023489323093,0.13791860126340155,0.18489969595839045,0.20831131158474675,0.1411047061431491
0.004321981135240254,-0.06866051439618967,0.0223197484281185,0.02894892939896356,0.2517783707445044,0.327787322315056,0.35895174669308283,0.17418737911105914
-0.0032426113010662165,-0.07431548180485893,0.02566389171315617,0.028412451351201882,0.22992944532029297,0.3033149223427124,0.3404288739992259,0.1486654003042693
5.072503312374494E-4,-0.061546307795853246,0.005724579914165396,0.01974199182358487,0.1807124895198411,0.23502865922528623,0.2679203701209955,0.12655489457064584
-0.011444529835335199,-0.03939027150434694,-0.010636605126491708,-0.015158229912565721,0.09803639333203865,0.15116702638260543,0.16740688288873168,0.1575988725731546
0.0011372609531308793,-0.042069890863911046,0.003489520808992793,0.010547311367546943,0.14125917581813066,0.20854917810659843,0.23117981781192046,0.18413313204490836
0.032849408031613236,-0.015629393111789996,0.05693167124438155,0.06577077449766655,0.28783831437932245,0.35911244001512305,0.37192872725098164,0.2483791472687387
0.028373302859775573,-0.012164295406132397,0.061618745407304144,0.06209960191023733,0.265159030960999,0.3342258984062392,0.35782656546092356,0.23552619494300098
0.01917366965796433,-0.03763611918416136,0.05154794778184109,0.05384036869318254,0.2246246051052506,0.2696047595693885,0.29454089817358386,0.17415127357670276
0.017932345953773007,-0.017744736908979195,0.021637331500937468,0.014419798691066892,0.12715663691389997,0.18776776402288833,0.20362273007062132,0.1699249222946063
0.006825529290676061,-0.025995902919944105,0.03675518746976679,0.021181083872159365,0.14834817936868025,0.19474178603672965,0.23260457687902109,0.183339798291158
0.03678983001936868,-0.00929318561179827,0.0708970568944513,0.07967473190887607,0.2944786521065615,0.36549525763092866,0.41109185156165795,0.25627865278687
0.03473654386820483,-0.005758950458498956,0.06021271849270072,0.08239569924794173,0.28351234093147903,0.35339039932468924,0.37488327693034224,0.19810582398103216
0.03160514594612555,-0.040547859510058924,0.045471070218085705,0.058824881658877344,0.22617980096906035,0.283718387134944,0.309162788936536,0.23578075618238586
0.010633130136240227,-0.016921989646477398,0.03217721259885134,0.032070103896068604,0.13626320806999798,0.20168399788650948,0.2188317483357763,0.16295981860740952
0.0197596746206268,-0.024242719773355043,0.027150815873507594,0.030421677048902786,0.18061878834005626,0.2322925670656702,0.2631298463696435,0.1811997287341426
0.03744236170982873,0.0011742132801061589,0.06492011109030722,0.07733852559574388,0.2885662489891625,0.3620772042436514,0.3892128778072443,0.2251112357748425
0.03767098914682538,-0.0010716317022709332,0.052856018771172436,0.0645925596855314,0.2770219372695507,0.33853151816957133,0.35045650011157903,0.20172145503474248
0.02011116142496685,-0.029835259159146477,0.03346681958195958,0.03365124471410724,0.20249968020200057,0.2822286610372421,0.28382370990063904,0.19961838733723186
-0.001608120934154112,-0.06281940452804388,0.009398259764630176,0.001519160985133872,0.13317862930123595,0.17564048046538366,0.20164402210334229,0.1254944879515512
0.014076160008020413,-0.051406706364915455,0.023689181314593518,0.02400306128853869,0.2199473801306882,0.283991517614925,0.30315453551135596,0.17591129095351213
0.033269440323700016,-0.021873118699743142,0.045959006343994226,0.0690656343341872,0.31398123930702815,0.38411333133791387,0.4026162455599074,0.18035819572877013
0.02728942758034695,-0.0054847613887867306,0.04336118181556382,0.06012034100539286,0.2841018611681737,0.35353825206224276,0.37235819029880096,0.22080710080923427
0.01452303351411626,-0.03237948405078459,0.025963734291812226,0.03365923104217924,0.22445046169422153,0.28070550145583056,0.2938327636551365,0.13309750195989442
0.011696760670822015,-0.015056532616783743,1.442241434645257E-4,3.058322629136326E-4,0.15789576478390918,0.19861936666124308,0.2050316645649432,0.13042444566676265
0.01749021495974656,0.0133431909105403,0.027686885024639316,0.03713861184298019,0.24660094535301316,0.3228510756966555,0.3462792738903431,0.1963408799229766
0.042357801796531314,0.026377579534948393,0.05628461982531964,0.07209749639568583,0.3404546607531739,0.4058722108760273,0.43745720085809625,0.24427216625416306
0.028631122514244288,0.029760230969532994,0.04437836229624926,0.05832460946629129,0.3210532725116926,0.38024605065913286,0.4018649237398521,0.2145876631534684
0.01136290873692211,-0.03582945935950979,0.016146236850959856,0.023652382861130663,0.24864000674947817,0.30678907072724326,0.32820784478574777,0.16802379636735454
-0.0077815461046939535,-0.08693418037397378,-0.008040903309028785,-0.0012474074974788748,0.15019346922581583,0.21590315246652678,0.2425308857727214,0.13052704707395663
-0.012218076190112464,-0.05729108949478982,-0.01078901643570847,6.040621083909084E-4,0.1785251064620338,0.25189511531627273,0.26029509098668596,0.16337457080193754
0.02471972342656765,0.035793359735028576,0.037516217484113025,0.05682596677895291,0.32833822000988144,0.4123226976840375,0.4371765042426237,0.253982379883614
0.023462273539634832,0.022232476569580332,0.04100520771782713,0.049024529166666365,0.32263413878260844,0.3974853554263946,0.4277628847307316,0.2188285781439367
0.014250789666949962,-0.0037692820482084313,0.019204542207383365,0.02094803451762084,0.2680070455482801,0.3357959291902974,0.36314396166490925,0.15411967278284414
-0.008209260878423469,-0.011103892499339362,-0.0013838304878421703,-0.0028812919632702407,0.17523227158464666,0.2206466095565512,0.252393800774252,0.1642711583412227
-0.006974350104496085,-0.007819263149552103,-0.03367842267290426,-0.030541864002761415,0.09934857325186361,0.15084847758579,0.17546230579664537,0.14114084432507773
0.008648461652111222,0.025383704373487866,0.007161621336031429,0.014298687112419927,0.29650872326130057,0.35386471090346105,0.3933182602212522,0.1890609866306905
0.011552674863044456,3.5558681542823857E-4,0.024897285052681094,0.03552051350096343,0.3011315971111529,0.3759487119551455,0.4251199160465187,0.2290365086987319
0.009196336652539116,0.005334513312363105,0.015232845314359903,0.004312994029022684,0.2519872317976361,0.34041895161395785,0.3799761937903856,0.19020816170534133
-0.006774817169934524,0.01810820763025183,-4.8059483352994346E-4,-0.01008670086232875,0.18517116640422226,0.2609691537928704,0.28611466590810525,0.18556684420503783
-0.009419529415552783,0.036142548810530695,-0.024658853492631142,-0.047089146213885213,0.13318657408528706,0.17776465780544584,0.19080891581674464,0.1911820898660264
0.0032474485483905942,0.047201896378968364,0.003073672348904981,-0.001138467526321154,0.23878306329838567,0.31700479200294845,0.34757460468365114,0.21982432247584413
0.0066667300134973795,0.04206270893805878,0.015322428357456843,0.01148624459423653,0.2751227525296229,0.3595671957394489,0.38915685191158905,0.2389384590218727
0.003641696293924821,0.020781024452053213,0.004057177098638263,-0.003783256312758623,0.24701699784569028,0.31549164745396496,0.3445171153722308,0.2199965245224866
-0.006902328598286764,0.018040054206980197,-0.02113290529108812,-0.021909900028711644,0.17223179702974192,0.23080362572595173,0.24968185566720805,0.16889748497879986
-0.01735076987273717,0.03372601284727244,-0.035691583439993964,-0.047241706590681644,0.09055516346083402,0.13364551210939632,0.17059075130828635,0.1602279927731869
0.007316570858436263,0.04852879630404724,-0.008560943156750333,-0.010411725280780364,0.2540751960748724,0.31505334950544983,0.3403630725801808,0.23556429609149931
0.022152703868897457,0.03903089333976873,0.02858214357956238,0.0290257982226757,0.30872520113056795,0.36985029238029904,0.415994401916021,0.19937159217310432
0.016345535954774962,0.035598924875120425,0.02304145310998955,0.010179737769257874,0.2617616063265825,0.3300652576399693,0.36290040587045386,0.19270447002324054
0.008073705108586125,0.012103656722180056,0.013492288223097294,-0.002574417326272861,0.17932656573273306,0.25254489145770503,0.2729136816342708,0.20402691060100253
0.01246692503971902,0.054002827275628246,-0.011407879662871179,-0.027119128752222464,0.09580925477556324,0.14831163768241798,0.19040712586814082,0.1665073424897159
0.02568075208143993,0.06461861005436963,0.02969176940428229,0.010858003796898672,0.2466855967950167,0.31354333199246276,0.3308386161701778,0.23003554727944475
0.05309103715806101,0.06966085076085694,0.06265851179352507,0.07151338936831013,0.32967974293517854,0.41682416972470315,0.42777404251043766,0.2188639292172605
0.05581843764206193,0.08815884605577005,0.05625894971607548,0.0758017093790131,0.29861018318370075,0.3724229162858003,0.389293783199285,0.2333110038369702
0.062442126433889654,0.1154425994477713,0.057086284035442324,0.05192935970151324,0.22955474647047142,0.3036526646509404,0.29821092297777896,0.2385750805449606
0.03736186357990656,0.03405045775495513,0.04332102637904703,0.02361798269314231,0.14999015267539487,0.2246200527392129,0.23159963258550756,0.21441712084086076
0.048787387239573335,0.05160396928552787,0.05235694101913078,0.04933523797840055,0.23601298725810838,0.29102238916842754,0.32445864043025996,0.21058239369705992
0.08901065033984258,0.0947103779593836,0.09350206334946254,0.11589249019414997,0.3426522385840933,0.4446152246498471,0.47209689541128563,0.25022671105977656
0.0887961745708638,0.12439018275437426,0.10535907111993345,0.11828535438051162,0.3244218076214786,0.41095655279980614,0.4492052585897062,0.23654034436848198
0.0924774551425122,0.12382681429581346,0.09493943516140624,0.10133594415121806,0.26288974823946526,0.3397017370366562,0.35734692058629913,0.2621469142703406
0.07692872593580019,0.14003161822058252,0.07743430872594295,0.07949378415329778,0.1728583238083317,0.23528587064090775,0.2581275553486137,0.19954485279723302
0.06903818255719425,0.10945114751247291,0.06231375602593232,0.07739546043359276,0.18711205448375923,0.25655030601575857,0.28947806921732583,0.23209069835352084
0.09746538380617233,0.11620948377147275,0.11482336125468598,0.13818824875476102,0.3346680364156289,0.4348764694366313,0.46338951208961676,0.28129855261727527
0.10647394073322346,0.12904701104524693,0.11959920001918975,0.1464969199640242,0.30670460834621854,0.4004481971722388,0.42929360282751317,0.26298624561161016
0.09801083486164057,0.1289657082645346,0.1209473779994843,0.11828156932595207,0.26362457718661825,0.3301583066568974,0.3525046525080004,0.2500149482167635
0.09153067684089497,0.11812770877127175,0.0935534870066086,0.09215656814656849,0.1653770717914072,0.23647324263311537,0.25433915237145044,0.21247912287109003
0.09312931285928969,0.10101709685701141,0.08819889791008134,0.10428600756957163,0.22010644523633022,0.2932778453172661,0.3256679747848661,0.22768519311572813
0.11626221732535923,0.13238851599014087,0.12599644902562618,0.14773397276993736,0.3302692052752567,0.4125784630568254,0.4381152958891141,0.2709297529888047
0.11713975869136305,0.12925595621621283,0.13810792977959888,0.14622575670862306,0.3023119802186435,0.38084669487258505,0.40607913151183245,0.23590905067781567
0.10218985921312006,0.1353536563493045,0.11010026831284751,0.12217728314140287,0.24818288829551546,0.3075403254273617,0.32731771536697607,0.2183223646845512
0.08851636998277121,0.11256001573694639,0.08029031618253447,0.09692282099259132,0.15597148749829626,0.21417376694709067,0.23426371817110614,0.2136686363824983
0.10028937563371547,0.12733498889017372,0.12007578963301105,0.13919150436319203,0.29161628341417406,0.37661627204562675,0.40729007987109644,0.23849232370591586
0.13680504232634358,0.14768205909944382,0.1485856233365716,0.17801878763707746,0.36415245594764445,0.4615475013933211,0.4847033716431902,0.28317168944765153
0.1218996258208937,0.16124373620620117,0.14332812725160218,0.1703959168744003,0.3322320548490224,0.415882559679955,0.4359148768534508,0.24893117923628494
0.11602520110688416,0.10921684713059045,0.1246769515880809,0.133712724526669,0.25327407419115905,0.33047627393989404,0.35184932206934877,0.19125250689056902
0.08448363185007185,0.06439929164840753,0.11222487825290399,0.12433886607926371,0.20062694074811108,0.267076744190226,0.3044882251363193,0.1673675301722769
0.13085897382195835,0.10587458133900347,0.17069172676943897,0.1915128487003124,0.36860753309289224,0.4698491761003938,0.49751482783572326,0.23108359862231462
0.1523673682748648,0.15305527670205338,0.1837731422623933,0.20972377603998346,0.3997050389031798,0.4939060608731363,0.5260216730531113,0.2677087189411773
0.14483325413658477,0.15385400040043268,0.16812548690884727,0.19325081393085192,0.35868553394891806,0.45062471548704786,0.4836914167160719,0.25388647110477164
0.13150253323884808,0.1392905693669184,0.14568838598757214,0.16935433686651805,0.28672772475723074,0.3675973591518224,0.381627485389472,0.18715872947752002
0.12199854809476716,0.1555665685590546,0.12939493774981098,0.14785569237530424,0.2300043719530051,0.30152722732227083,0.3291038121915542,0.17960752761268606
0.16260583018452612,0.2060411565026643,0.17563471951175855,0.21745441915469368,0.4141154979073139,0.5072482629783984,0.5440643144297393,0.26524928374574114
0.16900069438242274,0.24248262637186482,0.21502324159350128,0.23393100242364,0.44874857659186324,0.5456811429139092,0.5682223865882432,0.3063198756940131
0.1613427451865085,0.23428782015285737,0.1848953738484366,0.21149417015713642,0.38198111396748546,0.48859501802079414,0.5228180821777836,0.25056022612207257
0.14805216850657918,0.19131662548181064,0.15775362470827026,0.19041321812555784,0.29937890986244753,0.3970196234851177,0.43377016818148356,0.2190874276090452
0.12247437181886246,0.17523912578682746,0.13434776863677345,0.15376387931550187,0.24163770129193346,0.3223090963699997,0.3406240358624922,0.21558236372296574
0.14153888622270042,0.21176914824920592,0.17373974482368473,0.18814276374044556,0.33881461192065476,0.43692363524832567,0.4973872526971117,0.24263314562759106
0.16365681780793465,0.22751405578338935,0.18889948576285406,0.22145982195014138,0.4288746968764743,0.5391960683185546,0.5712954101873419,0.26649415690079736
0.15173159217664253,0.2286556143697175,0.1805622379486477,0.21206547876737467,0.38819093003557786,0.4997929064284961,0.5372683568977198,0.23786117584525843
0.1407361194548655,0.1795595870859864,0.16664271111194864,0.18193664635560994,0.32684668922511,0.42017353225211174,0.44918990836056316,0.18503814216517156
0.13558680644802312,0.22191548654772186,0.14342254988388053,0.15629248981552554,0.2582641908656294,0.3389166004955764,0.374040614605709,0.190596853743955
0.1447541604190548,0.18709179719273467,0.1544643539639631,0.17256248143957978,0.3230306834339203,0.4222717330190224,0.4616206349009912,0.2310269413514432
0.15844980586485177,0.21149439797400926,0.19258017428394716,0.22031773076965944,0.4065943813891719,0.5137187773359815,0.5558135360570002,0.23801900838757029
0.1476688318251825,0.2125574082309653,0.18348442958015088,0.20692046394288158,0.35730262760134157,0.46299064680353086,0.5126587398100039,0.23631192183503913
0.14556526982418574,0.19728120440533278,0.16375978889404624,0.1899306441431213,0.32619991253449704,0.403037690519392,0.4354134469188255,0.1834386589469135
0.13620728201937082,0.25575762760915177,0.14108595460120757,0.153799829116968,0.22921487845882618,0.31448214203018504,0.3359455368400768,0.18635114768018982
0.14140948938074152,0.28521955696273227,0.1693103573050955,0.18587217247933008,0.2717057541215184,0.36028171276430576,0.3920559096173016,0.23149364008608392
0.16988233592260982,0.29074582695414813,0.20641087062512073,0.22817683654490717,0.4211711067516356,0.5330439111699862,0.5775541216942897,0.24342833935463123
0.16835402175751762,0.27062388471358423,0.19588549215781542,0.2252360366930446,0.40010582394776295,0.5135879001573019,0.5450997155987277,0.25831305121612846
0.16184086642416137,0.28805041400527864,0.19461001420054402,0.20518905158688647,0.3470647446289147,0.47063162522923274,0.4742283094739608,0.26953598159905806
0.15216017470453322,0.26518088264439105,0.16119132245678397,0.1786087371936757,0.2839126400915589,0.36585408898793026,0.36066033275171605,0.25262059071116455
0.13312905601845992,0.22263101333625382,0.13601807511435202,0.14789374110221717,0.1924786839755429,0.2781425913032559,0.3002954240923254,0.20439935942322315
0.14374618301843914,0.16065261684229878,0.17988756239046894,0.19903130939566996,0.3712487604690176,0.48880568670286206,0.5160520782339595,0.3095890906487905
0.1644729689280324,0.2233224079279234,0.21483734691547707,0.24119720871557496,0.4258501040618431,0.5358741912480968,0.5424584172056782,0.28300488359302706
0.18185906258267423,0.33083284278611746,0.2101966591567061,0.2373377569164543,0.401564827495237,0.4985389726017783,0.5063411267493619,0.3384808936742054
0.16680520555889375,0.3454568000110371,0.1819028085183913,0.2145834292223819,0.3105331434410693,0.40803399393498396,0.42326678383613603,0.3290348661142967
0.15783571722944154,0.376590319904232,0.16511523046662516,0.17607666177102194,0.21990502609030654,0.29448628970700735,0.30621535346822965,0.3079641192173813
0.13771095608885195,0.33988914392099845,0.16036723838583966,0.17735384741495924,0.25127747590903526,0.32408507816590154,0.3474362598252274,0.278513290982729
0.17213639859709845,0.3532366712584348,0.2105003554116563,0.2381376389485004,0.42046619267161206,0.5122564092857673,0.5241130140641456,0.35835537537672585
0.18063246513157616,0.31725500167059467,0.20615426633083922,0.2411513344950154,0.3932250080515965,0.484497551930872,0.4894884272395904,0.36444777168374726
0.1608228665924228,0.3222784692161185,0.203161681634655,0.2187621179662995,0.3157350631689324,0.4262497397872976,0.4280378897232962,0.35024840942134094
0.145484056927295,0.32975831986850396,0.1659716016600807,0.18551162024711562,0.2327232451121559,0.3156921063339138,0.31594986646819445,0.3206157395229414
0.1367756487724654,0.2818157522850333,0.16085957703024115,0.17687012229732887,0.20809829086530246,0.29399259860801463,0.3026939485439787,0.2831891656558594
0.19705301870086045,0.37439229321603634,0.22860617773474465,0.2801598064386731,0.3964533257923381,0.4814690819106365,0.5213399555481028,0.3331235178209985
0.1937518561953137,0.4113460799701665,0.23533875997792736,0.27434657015529207,0.38954570474984257,0.46464446139375437,0.49467157096695397,0.34730362241459306
0.17651299426765732,0.38756991723129525,0.20244934754498586,0.22886584183143818,0.31677017533360496,0.3969006605584716,0.4170798265441486,0.32511509606045613
0.15709914740794884,0.37878306207066775,0.17013294087031242,0.1926638233559815,0.22278345201099453,0.28145024908561733,0.29156417444960814,0.3023780800566182
0.1485732619022137,0.2968650965993759,0.15597998032337976,0.15930487263433527,0.19967237293087448,0.252159144401778,0.2682792268151771,0.2770462191937477
0.17938629469936154,0.3299725537747992,0.2248443528946849,0.23717963647864168,0.38675288989546047,0.4750899975124698,0.49640390738283424,0.3205003480202521
0.20081278601478997,0.3609872129647941,0.22068209689304907,0.2472389522010642,0.3726158585594259,0.4749437539074051,0.47548577320289975,0.33952147894810786
0.17685969988077171,0.3179679610708739,0.20307394967609288,0.2258883506520445,0.3154437980840041,0.40784613934452224,0.4164067090382901,0.28372763548430696
0.16308891504665352,0.3059242671958574,0.17471081054323206,0.18018782506321188,0.22660797610701514,0.3171042819179979,0.29767839378407673,0.24268470051462104
0.1557965900886953,0.3372292986619097,0.1501813388427145,0.17934148087029164,0.17322983206581322,0.23605514000915634,0.2548017847241397,0.268968422743329
0.1916948233059231,0.4322430631906763,0.24716965372434607,0.2658131657380049,0.39619424623156013,0.46958535808227664,0.4922675084536736,0.34771156729499203
0.19474265149925554,0.43782875463811854,0.22833672217786447,0.2763538014077005,0.40441599081403473,0.4737063458322151,0.4895141058449263,0.3421216115337307
0.1788575002521943,0.328311617759657,0.20413984499229454,0.23871143402255524,0.3519954826995401,0.4294004950389161,0.4328497313522039,0.3456024038580683
0.1793394646319292,0.380192649769979,0.1806902154909693,0.2042024464284712,0.26398249338367596,0.3305028112730295,0.3367564288975002,0.30962926110241046
0.1594475963202599,0.40627675995528834,0.15422337077922763,0.1749459450815524,0.173438881769807,0.2324122143624045,0.23832031146814414,0.3099982506796445
0.18503656208742436,0.43139193963387573,0.197532617271268,0.23391865463943554,0.388172324193656,0.46628940013793213,0.47529169715975045,0.3636907343440887
0.2026050777402774,0.4131650703044891,0.2153818287409891,0.24496101668976933,0.38272770512699184,0.4962341099906752,0.4891978483975624,0.35547789842122635
0.19548967539356532,0.4260762401185781,0.21120593421399247,0.2274467539008491,0.353250574977185,0.44192453128492887,0.4598149551989279,0.36065189026184713
0.16883074192705122,0.3381371039151463,0.1834584540336874,0.19444067394769798,0.27819050176202653,0.3527418235931749,0.35641199366000725,0.3195496350981093
0.15553713679238837,0.3710692316236203,0.16609300143530492,0.16465718682543967,0.23301122884258807,0.2798445216295081,0.283975547695882,0.30941256915931103
0.19802264563587132,0.43701737992961787,0.21357014052037473,0.24994871601122248,0.4157513185537454,0.4924064101684982,0.4896340701900512,0.3907797833736658
0.20416823506366938,0.40924858989989393,0.22042944160743932,0.25175974358087133,0.39630787502347337,0.48911566372697424,0.48469888308852743,0.32223212896676257
0.1870780733262972,0.40565770317329675,0.20600838813988182,0.24031961377573233,0.3574179564131387,0.4417352862102781,0.4273631328441564,0.3370683000889831
0.17561622654978093,0.4227800660558108,0.1856618043394927,0.21269224700626005,0.27413965613240054,0.35259668504363995,0.35917804590089647,0.32369731999696233
0.17057108870389548,0.4006308314704482,0.16212840092932596,0.17412383496188755,0.23805074782566307,0.2909196470030029,0.29510670442525627,0.26687655343514977
0.20002477879009917,0.40838226851748605,0.21104273287258593,0.24312565201990516,0.4093668684470316,0.5172862698727161,0.5293540495827586,0.3525952947336088
0.1926722569650546,0.3564708411928721,0.21758794976763882,0.2515457703966921,0.41887080488491285,0.5183115865147973,0.5368358065594498,0.3254033911052337
0.18591604542859405,0.36346225835167734,0.20982014579214778,0.24727093525209792,0.39663009863076615,0.47435275242680386,0.48468654823368934,0.3317239206766045
0.1812010070741512,0.42433286272014037,0.1913910889628266,0.2129350130099223,0.31840502322054376,0.400548268344644,0.40205603679404217,0.3288251529532323
0.1790255271860662,0.4512328457405912,0.18274027545365457,0.20086568550316047,0.28929881309813765,0.37680029800019177,0.3671462144550022,0.2914104165106068
0.20822916252233434,0.4879483737413257,0.23514776742516844,0.27555123799852527,0.4465398823474388,0.5465955697068838,0.5544675710509082,0.34883824680995046
0.21105283333601657,0.5134876213627323,0.24394065541835974,0.2797108547033081,0.44655187165701166,0.5527756755793275,0.5602114736136689,0.33910245028933356
0.21022087993689054,0.5652274427186941,0.23157733279545012,0.2717883936883217,0.41035850183228917,0.5063441402254497,0.5075017250713294,0.40088403173860976
0.19724881952745232,0.551912542552377,0.21359899146259315,0.24037073688931307,0.34180817932912394,0.42507174952057547,0.4404662120226609,0.4072256624488971
0.18949305331015664,0.48004765298155444,0.21130442675095487,0.241976458538592,0.3645638059396421,0.4573279873238989,0.46255836553909935,0.4103794221117524
0.2168277828550143,0.4945511398769274,0.2452631667435198,0.28948718361288006,0.4991136176272123,0.6064621191108548,0.6164454638296579,0.4080504096597954
0.21327482806354753,0.4780225225597509,0.2522553559611783,0.29985548701924475,0.47496197605896595,0.586536644065194,0.6238248822631093,0.38620029297408826
0.21718272500881944,0.5000744946332861,0.24595839190195629,0.2761701981409886,0.43843977880040785,0.5430893691529084,0.5506815057619013,0.4118587654078648
0.1948874225570777,0.4546621681191236,0.21722114680938784,0.25396465060805695,0.3526257825591935,0.4745853812814816,0.47232634154133835,0.4079899392295722
0.182474160943734,0.4454616377174133,0.20808352704240543,0.24808231141793974,0.34296969607549366,0.4659380550468283,0.4695151190578136,0.39653961489339346
0.2192094904965301,0.4599149130876113,0.2642942642669293,0.3211202552491143,0.5140131680852447,0.6488203515182217,0.6687323270432347,0.37983751268810834
0.21787090460317046,0.4208411844354506,0.26602013367380245,0.32321625200722853,0.5282916789578674,0.6546512709962029,0.6608384770234994,0.40680417066464586
0.22967556360636762,0.48118637972351186,0.26606591156722376,0.3063534569826826,0.4844395102787457,0.622296255099489,0.6324362282052534,0.4127650629634937
0.2187524589344224,0.5240761957595497,0.25046220216045667,0.3063576312356957,0.424845619386551,0.5338029979220235,0.5505694085045917,0.3859792493404882
0.20706757220305963,0.49174661031044153,0.22647000742155152,0.2669552968836478,0.35616069938917866,0.464511804282151,0.4860691190323483,0.39731826255442704
0.22227217793684478,0.5090741380253483,0.25827545805480157,0.32889413730429023,0.523937442474964,0.6578079860833692,0.6705652699056899,0.4493320527816956
0.25260326004574113,0.5746520089539044,0.29541855717859017,0.36542763227611913,0.5441125844107259,0.7055858425010294,0.7214924248592925,0.46859320585748854
0.24560148744918073,0.596581504696674,0.290342096426268,0.3536647093562625,0.5240381820139333,0.6607992966227124,0.6962435769566053,0.5012077405124077
0.23231542962079302,0.5568331240985621,0.26762798072352056,0.33141624856032725,0.4408904289995841,0.5704101501929386,0.59928063684524,0.4538022632760066
0.2080613780107548,0.5423028778269651,0.2283575273559526,0.29837959195403296,0.3571955604678608,0.4644865274023044,0.5003291450357279,0.41754666698631215
0.21350544017276196,0.535942677623112,0.25225085401091113,0.30943776759092967,0.43990909501178427,0.5503199306044954,0.58355249269751,0.4147686794201799
0.24455119404139072,0.5504365791572413,0.28938133506029745,0.35035290025955435,0.5452764571836247,0.702513906906435,0.7114485980555662,0.4871885172563309
0.23678672378647322,0.557248499696801,0.28322642927552943,0.35241994669928906,0.5099703714770354,0.6582050777690555,0.6849704949944829,0.49043251533679516
0.22285414090424602,0.5303494985330165,0.272016891261749,0.32196222971966687,0.4399028322803084,0.579314757078917,0.6182923952353361,0.44176230662700033
0.2085075353428698,0.49517825417198674,0.24118660935342545,0.28890280466580087,0.3699409344782906,0.5024015192549058,0.5287571860249767,0.3838983228644566
0.18784131176841162,0.452175128898392,0.2315863152186047,0.2746059900825225,0.3417727519104181,0.45676036969836203,0.49789658152058497,0.39097060522823107
0.22590632366941124,0.5002318363611703,0.27941287999952935,0.3339928997569074,0.5250157690849658,0.6710189071164933,0.7046339181573621,0.44173229841857325
0.23430885046239244,0.5092498449193142,0.2737051787965567,0.33083847965879964,0.5084642366300425,0.6534382718947406,0.6911019411029642,0.43814206259321553
0.2095513641905636,0.42648154663164456,0.25273221235400467,0.31343220523366966,0.46257208731055777,0.605966607217422,0.6148914061555169,0.380235052639697
0.19397129018955833,0.4183391346345428,0.22618584620298782,0.2792574191054305,0.373231938785665,0.4941374907747937,0.5164822767980063,0.3826442163853664
0.17994195729183746,0.4227201540537104,0.19041203923256522,0.24536052900388983,0.2661871485675431,0.39998049027552934,0.40984671385858,0.3573553565379953
0.20289199235076139,0.4675352098112434,0.2174411823676108,0.27675684942345313,0.39119166818883283,0.5223217252612026,0.5351478178364768,0.3870757543961449
0.22713864824245647,0.5170121723130439,0.2731929287397176,0.3196192932456771,0.5152800403096995,0.6604317521434016,0.6936274444813637,0.45832689120768993
0.22192559693398278,0.518342038076504,0.26591451674068156,0.3307470638037288,0.49369758269702124,0.6248618389617424,0.6532073191276401,0.4650564427648665
0.2255412736596761,0.5173668166162944,0.25236570987130597,0.3018114576031744,0.4126628485117747,0.5373994825428595,0.5576342950300447,0.4349061961645986
0.19778019659217347,0.4917160592956614,0.20598224634957618,0.2607981716745199,0.312141483448775,0.42371864156854633,0.4289168035398818,0.4087384604676855
0.17011434095876862,0.4748782510743413,0.17891343584048736,0.22682082540625728,0.21489870601027627,0.3226903043597707,0.3298111888001048,0.34980196116426704
0.1816012510948719,0.4800868243020587,0.22021743136367894,0.2400742511996546,0.33092503685442803,0.46057046850582156,0.4753955119051359,0.4001851306874911
0.2185138427417925,0.5220927755992779,0.24920984447632366,0.30756685376118675,0.4763085365799611,0.6191909625084242,0.647982400029947,0.4533302949927167
0.21054506470383458,0.48589215671209957,0.24856424914218184,0.3018484349802802,0.4402842362480426,0.5729669011848747,0.5980387629523605,0.40224735395773825
0.19720878713350742,0.4130974634613548,0.22237462393746138,0.25603744415085644,0.3516121500320353,0.46926905543110375,0.508431810083659,0.37931331864438445
0.16568251815385945,0.36400527804051686,0.1863674411381854,0.21477458023705495,0.24917451421184528,0.35966498737513636,0.3638858338202934,0.33228087482692337
0.1411373748199118,0.34109201364646446,0.1404575960367172,0.17463446171124491,0.15963800144520326,0.2486748090840618,0.2522128421236236,0.28036470794641655
0.14405359294923248,0.34116776247185787,0.16671299225099973,0.19550472913611985,0.22415208302257233,0.3272421766123179,0.34950667097010435,0.3527143696202856
0.18580349833713367,0.38735334009809236,0.21862915923721615,0.2691993657568484,0.4237109285737426,0.5445965523339293,0.5646095788364413,0.41891368547451024
0.1796506112102054,0.37324099426890717,0.21055433128489312,0.25854309084642413,0.41411789964962886,0.5109222102457021,0.5306252282942755,0.38714326760466405
0.18842243840052234,0.43353918824108095,0.22408666286788578,0.26690563146077506,0.33379590103181817,0.42530274222540565,0.46171230653724415,0.38315635271278325
0.16474727965833688,0.38518181209418434,0.17588417911619766,0.2024642758603326,0.2302986391411808,0.30588449848290555,0.32137070761738445,0.33707968640533215
0.12905991860890176,0.2816699418257893,0.13921271450360498,0.16265060225329295,0.11653980257094446,0.2167778047826355,0.23087018882122606,0.2677296554922381
0.12578954598988748,0.21331113012588915,0.15229973845424,0.1678640958898754,0.2140701309170598,0.3129084850869141,0.3293892764600502,0.2727759375010972
0.12482294354923704,0.03494367670291689,0.1683147172810127,0.20894347356907864,0.34796559804280286,0.4732254357057319,0.4949054795292836,0.2402943601654509
0.13695106607769175,0.11954148199141378,0.17581873119373928,0.2059438274589591,0.2973138493598931,0.4158392733861242,0.43805119205311066,0.18534673339655602
0.13850658200058968,0.16066140817517494,0.1675447328172224,0.1912922449984025,0.21935505778157582,0.3208157634292197,0.3364986484977749,0.13447200695257225
0.09978257629603537,0.0595252679094597,0.1236262708586443,0.14588755799610775,0.11266293294412762,0.2207435701010147,0.21358699877404824,0.16111944347860946
0.07749597190770721,-0.0014294034182338348,0.10834673599545908,0.11840655550793232,0.07001008166007223,0.15950080855671225,0.16720146768983607,0.1347899934139526
0.11330117370038065,-0.0020228715351844812,0.15159903216412257,0.19229828974804927,0.3003594846804831,0.43157617162820144,0.4476304439071267,0.20840299691912287
0.11136344068243886,-0.017948464757549805,0.16426123705480594,0.2019486478196903,0.31585530454667243,0.42484639749987957,0.427882750991454,0.23758442109448757
0.10855719322112163,-0.0282807924185997,0.15855812354575308,0.17740852875213517,0.2445911675223036,0.36338076715092954,0.3683886143416966,0.2360983286092768
0.09732225679354649,-0.01596333229506407,0.13037757186240242,0.14896390626533662,0.15852361028595405,0.24935555686171573,0.25671555075356617,0.17603473680685416
0.08535841023911357,-0.09805144273816863,0.1069492505491914,0.12510341886183063,0.0986700898239425,0.19874082516950986,0.19292821500770665,0.15559808757623167
0.11559456107502747,-0.09769418074766517,0.16025425179149608,0.1980460852419643,0.30566837596279484,0.432736163547718,0.45814048910026484,0.2140212625807516
0.11237380888833211,-0.09991873969989844,0.17046318075969316,0.19803779612319752,0.31080675346618136,0.4110824614718429,0.4481676688270286,0.20069929768743863
0.0985190066720235,-0.06102559992328279,0.15563241997269192,0.1874378828175628,0.26962452152298866,0.3718471617085939,0.4046639240747534,0.1636493899601071
0.09229195809913415,-0.07485255823663037,0.13252829293962748,0.1585799988698322,0.17634837162567166,0.2669587497176093,0.2866246481221642,0.19372775869510284
0.09439118494041578,-0.07681837910604151,0.14528750827197542,0.1767306980813495,0.20752943460577467,0.3060095871432294,0.34856485837778023,0.17768060839966754
0.12217410048396501,-0.08590758861258772,0.1971539109093847,0.2380362108668975,0.36286339481408536,0.4945802364894875,0.49939350427846874,0.1960265738612975
0.12888939160097368,-0.08495129076374312,0.2041620893312195,0.23673871652530218,0.3462182092859615,0.4849175679356133,0.49474759197943097,0.23895583296403888
0.10649839770651466,-0.19599294442827964,0.17770636637093995,0.20562345576837135,0.2861404369900976,0.4074872055163899,0.4298784298006544,0.20169624006001266
0.05307320143745442,-0.391957063811746,0.12013322913942671,0.16410069621947113,0.1623137731486533,0.2967261701217346,0.30958873496258155,0.12765567657119548
0.0486817797290243,-0.44873194752063617,0.1275289312219747,0.1652391824218807,0.20774794258799528,0.3512557322188162,0.38321328169355034,0.11097582484942099
0.08291414726590077,-0.4445062267301013,0.1941347314820645,0.23522056650858555,0.377729724483091,0.5355028980641809,0.5493382790412883,0.14679577195183224
0.10900879678165373,-0.3323255722638753,0.20676971066590866,0.264635242324645,0.36848042672032666,0.5172540165807537,0.5523733978050733,0.17867153962802038
0.11933069977240776,-0.23807671126742258,0.21192762039155505,0.25337753900843224,0.3242169552127305,0.47065358006867697,0.5116225576172334,0.17450299537795555
0.10636268168202305,-0.2086644818551844,0.18810076465166764,0.2408411858579716,0.24859956667841893,0.383576738396874,0.40643987720258423,0.17916399990013318
0.11965816437069236,-0.22629498942656318,0.20792004062000904,0.2464471900827173,0.28106860382683424,0.42393649550188256,0.4606954147969422,0.17315232591315108
0.15748436702921412,-0.18141040636551933,0.26554324342969177,0.3228436240909336,0.4504798895177595,0.6151225461489782,0.6490253163568874,0.24412749670778774
0.16813476088920323,-0.1430898972238365,0.28069649016940923,0.34155178985989204,0.42974343897009293,0.6107475029950693,0.6479902940847317,0.19791212288805216
0.17331065627894465,-0.033973740247200394,0.2850682988859592,0.3265033936660629,0.40704661532016434,0.5635301620565616,0.5812494715956459,0.28638784574387366
0.15339824443371505,-0.05652071372817688,0.2509201643586742,0.31888426069311127,0.317968160839032,0.4762664485503408,0.4826239168875557,0.22357805714550044
0.13860392343009165,-0.1084396618509013,0.21086238955741002,0.2787424689555087,0.2282960748370116,0.38321052832347957,0.4143826642428343,0.14518809996482937
0.15416862322529973,-0.06557959967423524,0.24669494165226147,0.32362572800042994,0.3562097028334449,0.5327533239337704,0.5544505813341578,0.2149312730797148
0.19928962878564502,-0.023622297468399122,0.3052385052329727,0.3806657284100581,0.47946581066336247,0.6554424095538783,0.6817591900592594,0.26628144685165284
0.1876068121122157,0.006843488176070071,0.30907096576568505,0.38964726809186667,0.4515316660603896,0.6245094795991788,0.6605590920238374,0.27459815676101385
0.1857093232612306,0.011627958459336745,0.2909025368181488,0.37129140800450555,0.3943195636380442,0.5669974259451769,0.5675144118282558,0.193916035146952
0.17882585139750984,-0.00854600855434864,0.26952101045160537,0.3368984742431255,0.30934074866564165,0.47547688497629514,0.4762190235629912,0.15436601323719368
0.15956099068134724,-0.02496417764223509,0.24043074086292124,0.2987080484665311,0.23118522197177538,0.3721658002202869,0.38409083581075326,0.1385922960616851
0.1585244089917113,-0.09895744641311094,0.2629952504852177,0.3262805376088836,0.333564757047081,0.49799391951687866,0.528330493792534,0.1711229718165659
0.1913827704629727,0.012443608913513489,0.3145093637776717,0.37482113099273573,0.4502733215811486,0.6207287304010187,0.6443766218525817,0.22516656825967185
0.2056800944573129,0.07861564645675372,0.3106826152147737,0.38805848734833653,0.4128104839147347,0.5990619386746165,0.610483321340326,0.19666917104117793
0.19539051253306178,0.08167193103976236,0.28981596227859907,0.36776051568514473,0.369757086496205,0.5203411481101512,0.5425527539764564,0.21367995066291284
0.1731516674109424,0.04064367434428746,0.26003421645923075,0.30710974919950484,0.2606369051319558,0.4132260046014785,0.4176401656420022,0.1990810645407796
0.14209292115223993,0.023287025594223614,0.22527199263085093,0.26607900054575345,0.15891668149814744,0.2979931055086739,0.2917210450591111,0.1401242187457095
0.15577708657766298,0.04574196558218865,0.26002641573467733,0.3099374909378512,0.30948739515563023,0.4691883835387201,0.4871508009849764,0.1917564748614338
0.17208764772485252,0.03283220966968675,0.2831511198583173,0.3370338528403719,0.3942757790951159,0.5436962491468855,0.5569932161673133,0.17935591827454161
0.16343905623730073,0.050907682149049706,0.2729087033134063,0.32278085729059025,0.3521440964885966,0.4970530634177738,0.5113016456729138,0.19570942157686977
0.1517201044195508,-0.018729353247666065,0.22909277482992788,0.294517714925427,0.2855114069604738,0.40381727840209736,0.40726489738146343,0.15519110102690128
0.12093391873753809,-0.0461612847934774,0.20904964707865964,0.23901301478583376,0.19241275341646652,0.31382121405278657,0.33248866159250434,0.15447466071655788
0.12316495878734333,-0.06612738360868918,0.21198644934912536,0.2543316206313695,0.23706333434557092,0.3672627674252568,0.3662327255395175,0.15041619585398702
0.15103029844439775,-0.07778012818895459,0.24905176131794662,0.2985423201157494,0.36936724698545553,0.5128602816962816,0.5064346218827608,0.16156178107572686
0.1297427195159967,-0.11608269722768304,0.23189559725424233,0.29365910920443816,0.3271063436720375,0.4538530713754114,0.44967606274706323,0.16585117532328808
0.12206677673243264,-0.0780766260581426,0.21000601220397624,0.26250523354283056,0.26082531764523753,0.3735608209198336,0.3831541842290754,0.1390421218462436
0.10195966467670302,-0.0840592321093677,0.18346407565242887,0.21985268580957945,0.16466618917388448,0.2762559123763865,0.2674639401401808,0.09726592195895398
0.11790717799666647,-0.0768994743035592,0.19297504265818968,0.247985927541204,0.22265073966686053,0.3377058524630529,0.3494332081496416,0.11101057293094703
0.1495983356022355,-0.0013891559533918598,0.23848597358220797,0.31794008038600646,0.38102206539792893,0.5059466970731242,0.5188856865305279,0.17857898667382693
0.15623117087273858,0.021739185831360457,0.24718966547977575,0.3125496867503895,0.3648253639760153,0.4835123275105287,0.49401012057410665,0.20571920356105397
0.1493027256403266,0.016105070018276296,0.2248340991393348,0.285779943278549,0.2771387116512863,0.41934097062781356,0.4251186876530365,0.19053666363986313
0.11250568226251847,-0.07897042423285097,0.19270020371259836,0.24236285880696923,0.21444453682228065,0.3095986982809815,0.2993005005483917,0.10716917397166388
0.12902682993844802,-0.011022534475980355,0.21844925705082652,0.2656182416775362,0.26869603402284487,0.37381615851407346,0.3919139716712387,0.13662912614810827
0.1686284085120819,0.04576809855525477,0.2642452941124708,0.3272152771199862,0.4100459847793771,0.5447234762506655,0.55881740836383,0.21315236766513165
0.1641983896947587,0.08302706248217405,0.27298366377395245,0.32910134925991746,0.39809247393172265,0.5071621995149778,0.527837464900364,0.24073247748487853
0.15807359790113765,0.06183425832795332,0.25247776861466836,0.3069036025100635,0.32888380066293654,0.44000704335424223,0.4416160521075191,0.1478707310911499
0.14391432474263716,0.03286793518219533,0.21130939066359064,0.26884920742399193,0.21459098831971607,0.33817515524677183,0.33448780318849813,0.11177269950417983
0.12191237138522117,0.006311124986859352,0.19196532907941727,0.234455816874742,0.1674092832834394,0.252796910794095,0.24494912306019678,0.06858002924400709
0.1571717762070202,0.020896109560471055,0.2494195439850858,0.3002086807126217,0.365867349113225,0.4948090265329629,0.5090964551289674,0.1973268282455343
0.16489983042228018,0.03501438796215556,0.26275692678411977,0.321245862982912,0.4135632991789624,0.533485625602322,0.5383489333515658,0.23714197059931752
0.16075191970583397,0.007817003655190904,0.24828188725898256,0.3088495112475463,0.37186734652010145,0.4866031315031961,0.4968004824681257,0.1859913705901163
0.14375561786202015,0.013765707301577213,0.22775544691903857,0.2783252680150161,0.2831528720383221,0.38090920512283716,0.39364459299541876,0.12673826571049898
0.13721251203924936,0.008414739767239237,0.2021552065125507,0.24271153111388535,0.18738807258611168,0.30480834424177655,0.299956190403314,0.11495760812459695
0.11282506050712522,-0.012910879555474639,0.17924727464395526,0.21588094775433386,0.11438216424239366,0.20652383892292858,0.21129220602353901,0.12229688096419908
0.14383420266631958,0.033652148723254935,0.22813088547789007,0.27809193260364545,0.33214786856803874,0.4635224869267026,0.45241061054288534,0.21934949590190714
0.16020627837816248,0.04281350618762259,0.2581286283187184,0.31076218962836055,0.3709151849539661,0.5264997920622961,0.5089402300874645,0.22290274093027806
0.16016464121898277,0.05746675267690059,0.24276693021434856,0.30002315280523717,0.3548813947174414,0.4705902791753778,0.4646366721875823,0.19810069087133572
0.15121836074766082,0.07212226068914841,0.2295719168456326,0.26428166566146866,0.266679568648408,0.3767167406487116,0.3732283028386051,0.1892788148212108
0.12963945196714052,0.04636036509746507,0.19718133220072748,0.22817856715735896,0.17496557415265976,0.2738811305472451,0.2776202603300621,0.15454589173768832
0.11198109293662002,0.023219477818300728,0.16156801655013336,0.191889386856366,0.0880590098916147,0.1546453373336153,0.15771899693672037,0.11462253309843062
0.1267178619643165,0.009456018135094816,0.20251772401127957,0.2121814955649841,0.20018422188656954,0.3138156727893987,0.31768348609804575,0.17974485592475256
0.14905197335700332,0.04404066635606322,0.24216307350760802,0.2699638076085972,0.35297805461435516,0.4752938101207643,0.46755385037921543,0.21374289023662002
0.15380115053470741,0.03676003979935999,0.22960395508937392,0.26669930232195205,0.3276934365393642,0.44049530563904526,0.43405555887703035,0.18787921396528046
0.13124714427877468,0.011596440967452165,0.19764905210095757,0.24350806451728807,0.2537809037832837,0.3451843494320966,0.338850354478428,0.18501548825285985
0.10325840081009877,-0.012738185371249062,0.17365542412696072,0.2052735753901231,0.13489590841213805,0.23001407165315635,0.2116474037723506,0.09779544894386769
0.0885383045165173,-0.04498845401673733,0.14246170502152705,0.16205154255459406,0.06275325205192414,0.12882525844138107,0.11057322315501039,0.10019568108144669
0.11065765502000986,-0.048015632658058166,0.17018401233169367,0.1972405712413956,0.19787221180045642,0.2990417654473461,0.2778118886671287,0.13010966823950987
0.1190980433462412,-0.062259817777441946,0.2060212136911818,0.23368767647585997,0.3229789271874642,0.41029058936638696,0.40203360546274597,0.1539133162604709
0.10376062320226816,-0.15321123367117426,0.19008857014849426,0.227050805645906,0.27593984346032835,0.3758966578781151,0.3656775604918534,0.10523285474576342
0.10192285557907457,-0.088050513809526,0.17526476593778714,0.19371370823664422,0.19510139379054608,0.2852829883503285,0.2733923990064376,0.1204404048188902
0.09332294208741976,-0.10022968761816889,0.1507172808586235,0.16181415071326838,0.11606746500449729,0.18058771823093897,0.17801246902566759,0.07345585664976773
0.07427519191489274,-0.08694180031501712,0.13113456757662256,0.14878686174096545,0.07410052135202967,0.13224226162734046,0.12878243468407183,0.07461076552660983
0.12414628680402534,-0.04370699850483052,0.19416979421966804,0.21514101027997612,0.32289611734303864,0.4092233626457116,0.39274840956871204,0.15649010116606552
0.13319979691665118,-0.05334100396293484,0.21405770918264455,0.23501735588005165,0.32871107610440903,0.43393132667461176,0.41936525493362553,0.15194415543067485
0.12825712647099907,-0.015616041393018826,0.19421681452098222,0.23252706372757206,0.2891780537689553,0.38187369907533397,0.3742294479181393,0.18340605531350618
0.11923012890969235,-0.001660671723979522,0.18228327367735123,0.19917575156897568,0.22451713982653654,0.313837863848389,0.2833255208275467,0.17305039056649427
0.11494332612694971,0.014793680265862249,0.15164231314367255,0.17935119290520693,0.14337164946533534,0.2154630287859033,0.19611313517255585,0.1327328509370554
0.10610873412467574,-0.01426742552302249,0.1529726674515392,0.17216213380558246,0.17408612267147885,0.24531505797008377,0.2372857283377427,0.1422852499758502
0.13646785898340552,-0.009061241538228525,0.21355929391914152,0.23819588038129652,0.34981002950454815,0.47064872395827884,0.46684496740958853,0.1719450576865211
0.1451833290923996,0.007438106214307932,0.23177300105075538,0.2602889281225373,0.3650918136612448,0.4716635802704891,0.45503226216729903,0.18030062950092415
0.14202780947205995,0.005363182127146118,0.20465880682130944,0.2307112095377721,0.32014756154896484,0.42499852342183153,0.408756411705618,0.1729946130942557
0.11543097944004688,-0.07134545802599458,0.18105840889158592,0.19801814585554534,0.23385581002375108,0.3349856038210164,0.30205945233806314,0.1375823567376416
0.1107243442161094,-0.055763449007369036,0.1556197258469855,0.1787725737836168,0.16140155106985138,0.23413881689150357,0.20975451964465813,0.08922282466144991
0.09552030889816049,-0.07172174854679984,0.147537245834793,0.14954381991251578,0.10708558714664343,0.19328365542146522,0.17598059012725434,0.07679139596194824
0.13796402766062524,-0.02241282363339885,0.20421306595192468,0.23716679823218137,0.363433035450141,0.4686352145853542,0.4695533605591357,0.22337162435970073
0.14511047152671513,0.01231950345714289,0.21797347546336007,0.25752682008472894,0.40059031211494084,0.48570086575622895,0.48976506866041797,0.21996466986132068
0.14469344055096997,-0.041653076308977896,0.21505054195970363,0.24860453691089804,0.3551535860159619,0.47134500686703007,0.4418119061814799,0.22399018052276373
0.13290270801284015,-0.02162625240642208,0.20073576300417345,0.21671642646247177,0.2891563584903645,0.3678062637187421,0.3373467991453647,0.17322632374702995
0.11845209958155072,-0.03266140783376211,0.1750778595211244,0.18573108027935628,0.18982682976912219,0.2796565577088588,0.2530937240282324,0.08391335704436644
0.10860635495244382,0.013673857699870298,0.1496239379751774,0.16018754903381757,0.11733154125276597,0.20165509486509012,0.18101977247563514,0.12210649247087975
0.15517614394806747,0.06954034971544477,0.20446650813511336,0.2348188899248004,0.3339699551157494,0.4455662740223514,0.43221485477728855,0.26230157818377875
0.15227794600150651,0.08870088059779507,0.2323278318603387,0.2712643270240689,0.38497674201907073,0.5075237352244643,0.49051850732675134,0.24757685515081052
0.16109348260346554,0.046010423593782546,0.22967422817351213,0.25511936317108,0.3571523188648342,0.4700062782010656,0.44246294329691865,0.18953689835988455
0.14065092457613027,0.05074721224402573,0.20726720747643512,0.2381432599097806,0.2931949433790346,0.39274639390605814,0.3641222451428846,0.17430261445450967
0.13014139924466597,0.065522903210522,0.18367494997890846,0.21558182023902753,0.1992622499739291,0.2923253273886334,0.2862649148363357,0.14591293623979226
0.12047267939223291,0.06815929535616212,0.15099745340777895,0.17731141346823054,0.11650143696802819,0.20369101078544805,0.18277619543369616,0.16893390813224715
0.1354901461539009,0.06576015736557496,0.19511680271269233,0.23421592274620756,0.28035832602504346,0.3929174156585934,0.3944228385130776,0.2167723168018632
0.14199481938854194,0.026829866199093933,0.21641405231724448,0.26210114490010256,0.3500642119527744,0.4747117939732619,0.46277815900421054,0.207483739301075
0.1338102981744232,0.0036088037979274865,0.22079175648950297,0.24572432381825746,0.3386183348983107,0.44702044057653234,0.4390967422148557,0.2056074207629076
0.13042504753944734,0.028002606126619024,0.19982299796001093,0.23024017159733806,0.27326007111183537,0.36959808637669106,0.36290726842114135,0.21520687048749043
0.12392487524124277,0.02679078398752412,0.17016046047026268,0.19725263070263882,0.20012044201636647,0.2830467908508359,0.2732060364611581,0.20324953602860812
0.10416328656368022,-0.010376971847531443,0.15333118125118647,0.15430464622516657,0.1227356942719995,0.20413851853532286,0.18778695707217863,0.1318401296733385
0.14005391589947608,0.022790957210403143,0.20678369132107066,0.2395198711343475,0.3393587643147441,0.45486004399356755,0.4455349902086387,0.17211646142293271
0.15116671970191817,0.02632014787904299,0.22275381862610563,0.25474325746874055,0.38011820307554917,0.4789677150167001,0.5035569926162755,0.230762159153297
0.15051953100199814,0.06287437095440143,0.22089182064543705,0.2663695438460185,0.3592714214512507,0.4506696713370506,0.4535174616540284,0.2530757349372519
0.14610784995905537,0.0919096840878237,0.20683490167355456,0.23277647374533608,0.2815735363549735,0.35501851004295476,0.3764207034386729,0.2246080966960112
0.11907480964337198,0.04362465775634629,0.1797840639195115,0.1949126582601617,0.18424743093234966,0.2729443420480829,0.2565481888185589,0.12883950712743505
0.09364442146260582,-0.0017950730039153994,0.14572076083270757,0.16684848326992138,0.11676323441425167,0.19177394220151842,0.17873947802869297,0.09048719717465807
0.1424688997808498,0.048033770724883386,0.21701862923325133,0.2439189649341084,0.34701678556082993,0.4644559432010334,0.46972461552246114,0.2528045202135523
0.16392232446924715,0.11288146425919927,0.23363615836624005,0.27934323360755203,0.4099356205871467,0.520935378013769,0.5287501662808876,0.25296506301481486
0.1619560978562647,0.15062287483240483,0.23299705204259627,0.28164068471172826,0.37375693707780444,0.4795720591473647,0.4837834718322896,0.26008142718973337
0.14679522421727934,0.09781338076881499,0.21060255799998026,0.2557321239812144,0.31501973923192295,0.39137144848514915,0.38707648619149126,0.23296188185851519
0.12261708553072913,0.06657519351565688,0.18615643151212086,0.2194132508174606,0.20115305499771127,0.3136417171201377,0.2908818564529884,0.18087265674111197
0.11349056164681327,0.08082803893089921,0.17124318107626738,0.18468936578811573,0.14177856534928146,0.22457320988191276,0.21561545638576393,0.20033557169852215
0.16164201728975242,0.1500216337573642,0.2180072616998159,0.27401718184901275,0.3594288037185445,0.4692427920106583,0.46822163214150225,0.27659567535081686
0.16438931177322094,0.1352710568911583,0.24710486887287114,0.284713013709951,0.4107994166618012,0.5348841456731053,0.527553555649355,0.2641260030080305
0.16401289249139395,0.07942819186031705,0.24447167450881277,0.2893828343720542,0.3911202790818525,0.5017490156869616,0.4958160823904457,0.2248870571945958
0.1541320126036907,0.054414657783524355,0.21194061046672602,0.25859260042198934,0.30931672635962637,0.4194298361131515,0.4023677249050092,0.20092993975584406
0.1382541600494964,0.06322011140789849,0.19271719649133967,0.2143310784950635,0.22941819141430284,0.32788750059781924,0.3262717611976941,0.22522728042842896
0.11570311875050202,0.005390652563402754,0.16922439518775728,0.18751004201805155,0.1486894109011125,0.2313729948320034,0.23296895891105632,0.16246839877507585
0.15196305908713004,0.03983904840734937,0.212971714918959,0.25105048230417026,0.3510464451455567,0.48072151533208485,0.4776847387668422,0.24263561547020662
0.15626808805911988,0.02156254835383576,0.23785513857686325,0.2788434344830486,0.40530936769948755,0.5295329915885238,0.54435151171488,0.21563598087279573
0.15167390768591524,0.004776638624705116,0.24761866156946194,0.27564397783948186,0.36819107157271863,0.49946028766325135,0.5047465221983669,0.21179689350009254
0.13843773846256324,-0.0019096769315058281,0.21444385272348554,0.2626842867258064,0.3081445212014958,0.4088884455813825,0.430236296240706,0.23668682568027274
0.12203529015428598,-0.001366971456565487,0.19390889686990023,0.22842319651153106,0.23000621655961093,0.3436204942856757,0.3534702340246564,0.20078615856000498
0.10717226271630587,-0.00787503448989344,0.17481921039706602,0.2173385110876138,0.21005722717865444,0.32103189391892656,0.3324286152810683,0.17282252511132684
0.14935422965041203,0.029395314874280373,0.23848298380089836,0.29057090636154936,0.3828775366886513,0.5213601600997871,0.5357241700957022,0.24508109767768646
0.16095837459585557,0.05623183821674158,0.23559811239263848,0.27990925331499866,0.39231047450845935,0.5240352121598953,0.5374473971008777,0.25817343915882557
0.16100601775494508,0.07791399034823901,0.23858766122326602,0.27166020845967404,0.3505703192859429,0.45964102651386635,0.4658206516886002,0.24915584322335216
0.14264826998652494,0.08278905573092116,0.21090939914591225,0.23996003447470368,0.26570431445963566,0.3631320714885143,0.3736468269003727,0.20260893773834607
0.12593689961535412,0.051745193345391856,0.19239872979535796,0.20207539734866645,0.1703285200681151,0.2681033950626276,0.2944214886919507,0.16101719537455797
0.13456502867821116,0.03068363487412068,0.1989123976186874,0.23847641126935795,0.25706135769027794,0.3925574098075631,0.4120026210176934,0.20944789934173436
0.17460874308377616,0.1040050220290079,0.2538997062829808,0.3023112707119513,0.42722725238385795,0.5588340768902386,0.5713431226999449,0.3148169171582745
0.17788954758466535,0.1362047837082628,0.2606022053808278,0.30257425053491477,0.4213810667345838,0.5573521502343318,0.5628271748706531,0.268688921299302
0.16623745133649168,0.13884305255833398,0.24769727803767203,0.2894496477270533,0.36074116757871916,0.49283971454902886,0.48070845972395154,0.235043200061518
0.15576649787526542,0.13333578780104574,0.2194261221118768,0.25877169713018316,0.2645541745728416,0.3923605196774577,0.40822177215797556,0.2141424437224689
0.1267599050956381,0.07445725795229359,0.196972783160931,0.22283392423900977,0.19870129253796434,0.2918426600382316,0.3035127871746076,0.21376938155459316
0.13769863060341206,0.07608037185767746,0.22030442472907397,0.27238593776484027,0.3446846120288231,0.4730923599991044,0.49415847562277354,0.23922130888397714
0.1782070234986506,0.18728544354303733,0.2749283229215609,0.3220128248906558,0.4532243432400865,0.5829865649937048,0.6166730251257205,0.29436228402145076
0.19365068625533002,0.21625923055118276,0.2769551208632521,0.3234805205595327,0.4177842675040961,0.5703947398787752,0.576942857491692,0.2840287715871032
0.17731230082361826,0.218306093595893,0.2590532835815862,0.3071485114621027,0.3831605481246841,0.4970337042471247,0.505616452195924,0.2839856562619678
0.16495785524150952,0.2244330904135725,0.21276706866666842,0.2718124225017979,0.2871730719862545,0.41165834664030043,0.4191052504521762,0.25242154005152634
0.1367222531954485,0.07342187403793375,0.19295703499264236,0.22120649382196797,0.18231196519766332,0.2944739880980304,0.2991082453787302,0.19966351526589504
0.131179819127639,0.13521957102734744,0.205274607913351,0.24099560812391718,0.2724080537632598,0.39556924075669603,0.4133367226772666,0.22562432900379392
0.1721658556446058,0.20339407594382192,0.2643681220757001,0.303732872141166,0.4401473235100758,0.5917162958611794,0.6087952326942812,0.2829885226015122
0.19752468862421693,0.25498933711055755,0.26914472860156385,0.3080628474799451,0.41246960627927387,0.5546403833373182,0.5892741451068433,0.29937610447435276
0.1500867680251103,0.14679469528237263,0.24447450584424527,0.2935848720842582,0.35934868088644084,0.5041735695607504,0.5231688642535759,0.28413614275599675
0.14083623197528863,0.11825824570531931,0.22269248473163158,0.26526456104477814,0.2743969126904693,0.4049344320973997,0.40536735450729167,0.25152336300262035
0.11782709619857686,0.0947893656132629,0.19325230882032404,0.22786961614095153,0.18106989012156965,0.3047843487457416,0.3197184373393553,0.18219901664925978
0.13927878421548473,0.13140283026930474,0.20934664209496232,0.2618746356640719,0.31908159351912585,0.4482547165154769,0.4770645610939897,0.24588543780077973
0.16446427884941794,0.19637165255510858,0.24979354333594705,0.30143269256508015,0.4173628258238409,0.5536994422197588,0.5918541892132821,0.305272854784809
0.16091857857325773,0.1981945661028495,0.24523063773150078,0.2957758930403811,0.3911506533143988,0.5227885556608597,0.5454598243709571,0.3190745810994774
0.14389065585716065,0.1766728322913809,0.23002144360498752,0.27739433776607314,0.29892689237781817,0.4279513242490272,0.46646363281097597,0.22184494911011593
0.13123729291307737,0.14139042722355002,0.1954988966482961,0.2350480550954852,0.22588126261698685,0.32513066571653476,0.3613587814995758,0.1858623796616768
0.11320158777124799,0.11841091580267342,0.1800834931053238,0.2219471453379442,0.21007221069238452,0.3152506337696004,0.3469118769752543,0.20353150826155164
0.15127813450036803,0.19730300931542236,0.23912903030114172,0.2903076708586238,0.41535535289885955,0.5503091184459449,0.5885886604364076,0.3016844358170916
0.1795376053472712,0.19161739074343428,0.25100788879772873,0.3051579177215904,0.40518528715784585,0.5533528794148904,0.5904534637871457,0.27447199962549124
0.1592222876574638,0.16605304031381932,0.2415103382189313,0.2912009376439991,0.3731449998840003,0.49484579660921574,0.5319754487094478,0.23677829716384335
0.13819013282663672,0.15727767281525537,0.21768128173900472,0.2776919218649412,0.29685793289542456,0.4073849772973316,0.4206757361587488,0.2069986902829116
0.12383611059492527,0.13550741575826547,0.19038885763437105,0.23691027702213419,0.20503934643303548,0.316177087658873,0.33589162126709043,0.20250698245695684
0.1265278032035657,0.1252609954389263,0.1858000441044582,0.23326600779875004,0.22118175951588953,0.34619886766114283,0.37165350201589,0.2094152354354931
0.1519293138473812,0.12371150499818699,0.23382854684660787,0.2940491043295884,0.41950210059366694,0.5623484650279297,0.585073432387392,0.25890135163049105
0.16136895791469252,0.1411399241750707,0.25551568920950746,0.31227128103910107,0.4261960714968417,0.5575205630449411,0.597126530378567,0.24580499135701528
0.1638927835447513,0.16989955021126843,0.23399780989304306,0.3005707683230135,0.3690931190496267,0.5052799551184136,0.523297948084139,0.26815350907592195
0.15241587968961595,0.2170940093721502,0.21251231735241355,0.2858109135440049,0.29000845913395457,0.4143884798545637,0.44734123592480757,0.26402409003586785
0.12074777740585492,0.18527168747330766,0.1913742928916065,0.236951281861951,0.22178992903533035,0.3223209202900332,0.34620316380937655,0.2193798725507837
0.13746963250837185,0.14328277200345652,0.19483292426017132,0.26089482060842334,0.2633543005050056,0.3905778162946445,0.40783658453916966,0.2093839938613851
0.16600635822166418,0.19454706321797371,0.25132620218495016,0.32763049830901797,0.4279612385194135,0.5724081568752082,0.6273194052243708,0.2616832551980059
0.18477956114608407,0.23986646927094474,0.2691672229616538,0.332169333265078,0.4273888157148062,0.5680267333024664,0.6022481983281883,0.289405740300479
0.17609384368316613,0.2628311041916008,0.24485727564204024,0.31505637670804637,0.369269753217212,0.5134813795151348,0.5429462578546789,0.3227304076215448
0.1654303328384412,0.22001862009294532,0.22069423166734473,0.26682428064482705,0.29886021557607034,0.41814322899326667,0.4316189049506821,0.2341037948149302
0.1317333203331997,0.16181388056597248,0.1895767589708475,0.2360044906356891,0.21408260824315917,0.3076036577572091,0.3406309512470668,0.19648226235976432
0.12835251290694222,0.17377135464752932,0.1975014721094578,0.24037953759225564,0.24828794317699432,0.3479677564009552,0.388541458671567,0.2174831543875208
0.16367392305302403,0.21322808947468785,0.24738968866284067,0.30611099568578143,0.4162186914608591,0.5459094925319267,0.5896951486227793,0.29184808160827086
0.16502870421671442,0.21915971917815422,0.2443849682583791,0.314859243597275,0.41222412909208267,0.5354060127177752,0.5678116188783094,0.29225614157741436
0.1496017423585619,0.14139200898093376,0.22670735691904087,0.29373434676102567,0.34659759421049513,0.4670884784207235,0.5036188696437103,0.255057522379679
0.1355633275567467,0.10674558880804028,0.19628252450707345,0.2537439336370131,0.25591895592647795,0.3740734016439813,0.4053526152742072,0.22697474948643445
0.11782396082073747,0.14219489660127957,0.17511773178706228,0.22522837117825423,0.1878412329897561,0.2931570059495191,0.3172637721553622,0.20422827925515905
0.14774540280337942,0.15864330374841715,0.2077635140145191,0.26267661171391793,0.3520612569462884,0.4693621851559914,0.5064531334520057,0.27721484394060575
0.1731899459129831,0.20319423198037223,0.23929661155317566,0.29742382953806096,0.4107699009353654,0.5286911884236064,0.5649591929222004,0.30199842826553214
0.1497777210852253,0.19611732077459307,0.23543662264262835,0.2868567338116494,0.3532588226126214,0.47483097401910296,0.5138848380560778,0.2723381742290527
0.15377087149280594,0.1805289083237129,0.20950638443966732,0.25626998970744985,0.26600683305110695,0.37362390647057764,0.3938493449127959,0.19103160192228488
0.13208760769151595,0.18330560593827422,0.18446096708799192,0.22565877244318164,0.18546305446364914,0.2785454515555335,0.31350822860834054,0.2148020784238919
0.13314521294374704,0.20208204612776934,0.18813145354288713,0.23495510802336952,0.2223467218169539,0.3043349359634916,0.3256254172611477,0.22453151199272342
0.17466049741253828,0.22429473897032068,0.24758659895298774,0.30322322495421056,0.42426941279545494,0.524654776546027,0.5581510363658033,0.3083720517443751
0.17876169891903235,0.2248091219244541,0.2545790443579029,0.3153257139137133,0.40319537995858046,0.5144206794653835,0.5472476167799399,0.26262222834704124
0.17178209482621504,0.24055360999934522,0.23109476016819053,0.2919856024855388,0.3375460390631353,0.45873080245479647,0.47852947030425624,0.27945156968858853
0.15335713103348197,0.21920852199905563,0.20303990589413326,0.2696337842039776,0.2532385672997895,0.33912369009429566,0.38832152342006465,0.26261256784124987
0.13203332307980378,0.22658657092014267,0.17800271954495706,0.2305120712776174,0.17663517781700816,0.2623024954368582,0.26866346469092184,0.24967220979501886
0.1628739076152369,0.19477900498947728,0.23351420878236273,0.27291602626228395,0.3338436733543535,0.4447942270526694,0.4709594548392684,0.2701863798348361
0.17840808079148918,0.21192895863124553,0.26148461974093123,0.3327379310299988,0.42380338039182813,0.5331762722266282,0.5660987415369455,0.2996207387605769
0.1719081579824159,0.21157118830204266,0.24893081786532367,0.31825761643610145,0.382165717849729,0.495385881564878,0.5319484552604083,0.284772752887502
0.16423771628613543,0.2202730226445762,0.22292362368349666,0.2861820795164749,0.3162989829832297,0.4203851806389439,0.43466140275931425,0.26959560612033945
0.15830557900495237,0.20029375155381848,0.1922158861819298,0.25378697234931996,0.22215202906998047,0.3246040097036938,0.3258162808254194,0.248168416249182
0.13408625543903147,0.17319181026715402,0.1848501672937646,0.23605672654235296,0.19223495879452945,0.27544039916621715,0.30213848820502587,0.20760213658129156
0.178828111401242,0.1994163381972254,0.25386896917375346,0.3184400522891253,0.3997213678790128,0.5343735051899675,0.5467057016196667,0.273343566254987
0.19336269427971803,0.24812051666772172,0.2563158062422616,0.33712024807706825,0.4210528529765963,0.5197808195551035,0.5293354856531572,0.31498406974297666
0.18842829662824612,0.26355364135237735,0.2619250776876613,0.3115009049052384,0.3693519002342928,0.4851774493550325,0.49195001260484267,0.30760279953516817
0.1684816804047032,0.2429233864500287,0.2310658718844039,0.29359666052755107,0.2544340765760191,0.3756257248595316,0.3981074343629543,0.24584495634385378
0.14832507364481762,0.2615622797483279,0.20024691603962053,0.25542863133097593,0.20462441220530803,0.27129964452274324,0.2979247240950763,0.23269224708800365
0.17771762242002445,0.2879783409023757,0.23029662116492325,0.2920991727467583,0.3436911689181049,0.45658112383513333,0.47246086072326227,0.30047098851790643
0.1968871957810755,0.3542678514708444,0.2677155371429925,0.32649510205881,0.4264348855177084,0.545824488428608,0.5586966235218404,0.35356963922463625
0.18898376328705704,0.3057561679403948,0.2669020467901355,0.3154882077216507,0.3886484816170565,0.48645352882161097,0.5099172447917847,0.30642041493050404
0.18013386751816596,0.2674646746800583,0.2353737464683723,0.28959270940040865,0.30664274242082856,0.412518357941062,0.4318089269593736,0.2445657397592312
0.15752408308915591,0.2123758880623761,0.2070725571835159,0.25968894529183545,0.20684685683344878,0.3133576273736692,0.33337995802449183,0.1818030062083931
0.17537011153310111,0.2542478533888728,0.24285696943486978,0.2976424989807257,0.3578078347452432,0.4624979508543372,0.4604433979730859,0.3060191525547489
0.20430267309637928,0.3092530017286143,0.281347627967518,0.3422804803117089,0.42710425075973096,0.5682619692467218,0.5811653291570327,0.31530374548488965
0.19431577998431407,0.2599491869756123,0.27846414672421727,0.3395835915679685,0.40242331813878013,0.5246997001561181,0.5582856448903677,0.2995293161952693
0.1832974178501331,0.22000129735630797,0.2554036053886194,0.3115201444609785,0.3284346788105326,0.45141552964760456,0.45778373193018757,0.23765827388097335
0.17090943546772536,0.19899459738009462,0.23287721125655128,0.2842735902046738,0.2605197690280125,0.3696346938435678,0.3733456041905708,0.24554770597477876
0.1717177998210391,0.25518120480770257,0.23403972791697336,0.28666482921762926,0.3144470972776769,0.43400065840727786,0.43696082961671295,0.27544686698020204
0.21372259826740655,0.3413604438388216,0.2943250302704839,0.35614037296865225,0.4716465365130984,0.6141827110731751,0.614476305415971,0.33491157764856166
0.21865535475507433,0.3461089889087535,0.30357995437426677,0.3783935252542317,0.46568618329828504,0.6047215567452863,0.6277223062770151,0.33186022454651853
0.21970304774117783,0.3385446491666932,0.28792861455754853,0.3540937573490347,0.4111734708161858,0.539330963325596,0.5681652910637518,0.28316250913969865
0.20222158926814582,0.34173408614662226,0.26425350875184384,0.3234779343749983,0.3352012269346127,0.4643210510394017,0.45068503178789565,0.3058920134238878
0.1861370162988899,0.3481813503141708,0.2525788841861953,0.28924690476908715,0.29074279877249043,0.38962744451189874,0.4034054710132678,0.3127864364588085
0.21736673717370864,0.3655494208354849,0.2915919161322936,0.35885679181203406,0.47746474553853874,0.6024480461564753,0.6210082383847403,0.3703758080388528
0.22819267046001276,0.36534246578226987,0.31257285206607116,0.3776115097490822,0.4979047107669108,0.6411545652900477,0.6323415464491486,0.34637833796774137
0.21905116954441586,0.3602494799423987,0.30106545853762967,0.35819669243116575,0.4676444709203128,0.6036178978337635,0.6204284158595036,0.35196966566635646
0.20621278299099685,0.35615347234379524,0.2681396503845734,0.3311770004389643,0.3926154947394289,0.5082810828938398,0.5391379587350155,0.3254592093538219
0.17857976814429627,0.3457085009915315,0.248240256993528,0.2949086340106436,0.3191067248609974,0.43382507402174525,0.44799378509939525,0.3559414795009709
0.17352939977029685,0.29232779705399503,0.22520856244777554,0.2688697157478134,0.28273163375615773,0.39324086710914147,0.40909702105513407,0.3056453678089344
0.2005175178488901,0.31357825818438856,0.2761946469840928,0.33029991592110164,0.4857517712646866,0.6053753565942421,0.6309452108739062,0.3458294462053615
0.2000503785234142,0.32330710662059703,0.2858962325567791,0.33989854252880636,0.47488316179459983,0.6150450942781319,0.6142949892782275,0.3510527518057204
0.1882121410926075,0.334409377791555,0.2642801470142515,0.31782659381573336,0.4466457049800143,0.5614054781067565,0.5737739231156945,0.39400438278675837
0.1681659875860328,0.3273776625667427,0.24296315388743203,0.27662625192037227,0.3468432097653897,0.47041537579993614,0.485677836294381,0.3574191616256878
0.1544618118909629,0.22726571424212882,0.2070725294239591,0.23057685727195296,0.27052098761937815,0.36034339133035054,0.37105013557767597,0.27778538533197417
0.16318176682269542,0.1833177125505392,0.23310240164825902,0.27284178778457646,0.390714187639601,0.5365969019942488,0.5637142856820765,0.26728745292350464
0.18440398475668246,0.2749781404706728,0.26255754852898305,0.296621313201352,0.46070609607227403,0.5897452054355955,0.6075419953654783,0.336830450892266
0.1757701365271636,0.3093146766338801,0.25585731814917806,0.28781120917496317,0.41945150925295155,0.5303067371982501,0.558895097285259,0.3643906265624582
0.16386482939031896,0.27773680720268823,0.2118556741827707,0.25810175128692986,0.3580833290846328,0.4536891408042337,0.46599480784361785,0.30001003620275885
0.14136949289018935,0.26503466447764185,0.19457788793192718,0.22716904507020638,0.24060265650244914,0.3537789351590175,0.3629443652113285,0.2475321524171034
0.13910497271629363,0.24052510743099648,0.1877422468187388,0.21128786776236722,0.26768058821534835,0.36065331286043273,0.38240546229305333,0.25303589628297424
0.18177937368933586,0.30090853041357135,0.2525407724331515,0.2756327753649501,0.471913016016875,0.58697803458854,0.5954900214898035,0.34189642396772985
0.18472841005733426,0.3624792525427234,0.24648356817211256,0.28618535604364903,0.4534738346386055,0.5748206040708495,0.5926453046927973,0.34222006465414184
0.18099408223007987,0.34874800584430066,0.2304465569880233,0.24215676248890355,0.39779441223711853,0.51079860697683,0.5125861663062868,0.34353811946863255
0.15268613066470466,0.31773524788245894,0.20067752016973953,0.22514301197822095,0.29499098691292636,0.3955283927235839,0.4144201204484289,0.2593698304243405
0.13911251126361335,0.2967410719750747,0.18152201770110277,0.19038602849540376,0.21553453482289778,0.30617124979922006,0.30383106705234336,0.25356903274792847
0.1761361532196557,0.3471440414381958,0.22898007841201157,0.25998456876884,0.4305765361086666,0.546448777334785,0.563027309688331,0.37892509231313337
0.1913129268702411,0.3635206219642233,0.24586271055503897,0.28332640250016705,0.4604090765763779,0.5761648083272957,0.6095927678673008,0.3941521792336748
0.17987656350520423,0.37849256831427863,0.24072832214210582,0.27136751110827456,0.38681474553707984,0.5281926543043092,0.5449818506299787,0.31931031589193865
0.1615216065496662,0.33689273902425,0.2072716231054765,0.24238851538623354,0.3221657633636611,0.42671174960527214,0.4353928821291334,0.25940695018517795
0.1517215243231037,0.31834138025481423,0.1853391416957407,0.20885488791948523,0.22381696256109337,0.32819025392340423,0.33203563240714,0.273986034055046
0.14541227684341296,0.27635134091326197,0.1870413195062792,0.22522906682684385,0.3092143170729886,0.4122837757222791,0.4091545099499272,0.2951776670738274
0.17296145370495922,0.32832811361670006,0.23564510258276292,0.2812736119921691,0.4306336348772896,0.556345476010647,0.5821592868762879,0.35568165844878624
0.178179762749852,0.34648580762672176,0.2290369960567635,0.27833531335019346,0.4043880126204991,0.5185049338012143,0.5310095149926157,0.31644719544433875
0.16821592929145557,0.3335720400864487,0.21903903668257735,0.24906371973124677,0.3465159221596506,0.44981774826738713,0.4467606393657573,0.29085671826505816
0.14844366318100027,0.3188455395420478,0.18595099255247408,0.20657248560202382,0.25213560852934547,0.3477108170530792,0.3633375630778292,0.30742614284747083
0.15063051119600832,0.2977337904380387,0.1798296793211193,0.20176261347641763,0.25882431062657835,0.3569724260401592,0.3829251790579934,0.2962185941627043
0.1784159151392293,0.3697377922930046,0.23886731808294054,0.26624840293442603,0.4189200123333179,0.5370510773966645,0.5557218891683386,0.3293319667099682
0.1844713638274359,0.3660370568924975,0.22741906031345965,0.2768077906058464,0.4030356108228361,0.5092891695956666,0.5270543371015203,0.34640660309362287
0.1613913078741104,0.36435909666344674,0.216977640902489,0.24898266477007772,0.354434526567397,0.443147612093871,0.4589992688260276,0.3231907199593951
0.14963979553094156,0.31903195529384626,0.19561508486416787,0.20991410293312637,0.24936653667727335,0.32829453603390746,0.357590517934947,0.33754715715223
0.1594544639081486,0.3496995861970137,0.18427107768090084,0.22022538496948701,0.29857753403495374,0.3969099649059956,0.39571198045585176,0.3294568146765765
0.19105516126280328,0.40673382894631416,0.2538441564393117,0.2874436314260351,0.4390034718747298,0.551470751619216,0.5645087038914167,0.37211917787940446
0.19850734931473427,0.42924428870543924,0.24354743965384756,0.28208764760750915,0.4054214860722303,0.5258880073903373,0.5356015579887892,0.3665474837454063
0.1846561975716343,0.44994707462037853,0.2288234011321008,0.2624281012272068,0.3579493971772868,0.4523954842779448,0.4693916784664977,0.3975742439965618
0.1734136196889851,0.4261908928821087,0.20499896977912835,0.23656838124513072,0.2640843344376386,0.3560017074339484,0.3551493709934813,0.337770431011067
0.17303439916147195,0.41643235338146134,0.2104766589193983,0.2469126538003129,0.3145596599073443,0.41258788533221374,0.4354305589523709,0.32494189047049793
0.2032229659707638,0.44868446323312855,0.2570421294072193,0.3074527985425115,0.46241811796134685,0.5638806243993187,0.5852440371318557,0.35585377993867345
0.22348323769777256,0.441131877951516,0.2743460954572452,0.3092067660406845,0.45247182985438655,0.5536591018217975,0.568462920331169,0.37832389397562616
0.2016015769668918,0.46731571697958285,0.26091478725045675,0.28529925408395046,0.38889966369200785,0.4909302140527939,0.5208060405503101,0.34987218967283507
0.17753109857456043,0.40515162394577514,0.23169056066014598,0.25236574787275723,0.30724528834622805,0.39120230462137373,0.39691324240593057,0.2819686825394202
0.18190860545679807,0.3605897652731628,0.22981929356265296,0.26597245947016973,0.3117244498212404,0.42764386187080194,0.4540638480490222,0.2851698560033619
0.2203003655830235,0.42106821410467243,0.27748984393579235,0.33171240074884845,0.4755573418236616,0.5978815444417738,0.6138669354911934,0.3503629845472197
0.23235703069562672,0.46238833810624463,0.29216981890602145,0.3307644408191766,0.48093872694120887,0.5788548622727202,0.595894152141139,0.35879516213360396
0.2189669933633696,0.46417147306178524,0.27641962504215933,0.31420796683603064,0.421307951155121,0.5090997710564417,0.5222878204963108,0.3778984288594854
0.18129121991884067,0.3448949659781461,0.23903164185778683,0.27381434913072245,0.31993462658044824,0.4445205504573088,0.4460104130616136,0.2833149444733494
0.18492590413848425,0.29570311227311374,0.2293496251278493,0.2532820801689106,0.33107303541045807,0.4290775411134625,0.45792552555920646,0.27796948815381206
0.214596403503854,0.397974075597352,0.293058410940743,0.3248744231565953,0.4855635552448521,0.6059366144344348,0.6329910274590443,0.38621698678679056
0.23483204328256707,0.4888577859314876,0.296951502029076,0.3408999372213401,0.4720237955526341,0.5908934643331716,0.609156132111794,0.41726975264311267
0.22028730321077858,0.4958712265736608,0.2849859053286436,0.3096656597538579,0.41610915005077936,0.5360084267822353,0.5529598198128398,0.384508692357077
0.2097640015887881,0.4327532964679317,0.2571688542638595,0.2830771042426518,0.354452598394799,0.4415139550874948,0.47608365661601854,0.3196476487059074
0.2040730516610171,0.45134607256906467,0.2596166646172505,0.2913842217965159,0.39544644528726997,0.48961710008942755,0.5117061243678783,0.3432495645601061
0.2372797684569536,0.5095338938871634,0.3100478363038165,0.3400760480633069,0.5144179325895739,0.6192799704628392,0.6444733263366315,0.4160794148152308
0.23382611752636173,0.5350888371899649,0.29222418535323513,0.32931129040826984,0.4885239844398964,0.5874764982988473,0.6097879601461315,0.41390302666628537
0.209773316439848,0.4807562023920138,0.27937331448853164,0.2997275302192979,0.4330055734671647,0.5197633959754988,0.537448506501206,0.34965745671406495
0.19331652384110304,0.3924525912779893,0.2552443472328942,0.2638699542302257,0.3361078384806154,0.4181342698231401,0.4295111283004977,0.2952704554314868
0.21457775885059815,0.4292105751532161,0.2750894870637367,0.2941664184701212,0.4394155545189462,0.5524192487791538,0.574864585475059,0.3369671868621208
0.24443211398390702,0.5042806000911256,0.31164584737247975,0.3486952133344866,0.5369665522676258,0.657467760174624,0.6826233142489974,0.41832487071310864
0.2495366243937486,0.5338786677554265,0.3247884786090859,0.3318469340812027,0.5102513301699706,0.6248365757060699,0.6438023087121094,0.42316203237451727
0.21958969081426,0.46655567142341353,0.2835537991871861,0.29857672397898616,0.4511734848886795,0.5592858904097007,0.5666091077981893,0.34042923731432656
0.21433701424246068,0.4477850062328259,0.26535576199132654,0.27442541002873927,0.35210812868215663,0.46503568472238654,0.4848616862814639,0.28399770366104793
0.2275490285907641,0.46864596009322435,0.2866894253248648,0.29195300882834674,0.438984712238606,0.5655652762932711,0.5943897072700551,0.3568803485473993
0.2588923565685055,0.57582342746377,0.34445396430484243,0.34925047539879317,0.5651632548431216,0.6887132734975906,0.7191117174122985,0.4514170185693503
0.25208853533274556,0.5619393545853585,0.33824268055387796,0.34648950506763704,0.544878841541278,0.6561556530774869,0.6865859307191831,0.45776668232378476
0.22665000436694144,0.4389693732514921,0.2973192759517221,0.3047524950691832,0.45258240989838383,0.5819664037380025,0.6034996731633989,0.34586399642128
0.20848678456130776,0.44543552381636675,0.28079837849216205,0.2821209868872094,0.37075942380308663,0.4751815140840141,0.4892626061026799,0.3006541899345212
0.21529612596052047,0.4985120241080395,0.2742218297478131,0.27888845951887725,0.37169328889215514,0.4720580643728182,0.4819977899809563,0.36046827266806303
0.25421789144075224,0.5925380911680095,0.3307242006778576,0.3492065414370109,0.5391397036655103,0.6669185906719859,0.6876006528569654,0.45102647414062846
0.2567080508859802,0.5875624972108845,0.3278213360698135,0.34358738968084335,0.5333896069077336,0.6507166000279787,0.6620920247438129,0.4149267694595118
0.237962508923984,0.5085879800052564,0.30964704688867634,0.31266876892991213,0.47535565506904953,0.5766212132113143,0.5988932117546345,0.3600482225817
0.232191881580577,0.5243414406289149,0.2831530218219774,0.28767484223567913,0.3940271011005155,0.5020308671141395,0.5159124230956514,0.3462150893157688
0.22512893158599098,0.5200553976576223,0.26859993030397306,0.28624007091545906,0.3803180539485758,0.46766588356867517,0.49329955965938355,0.3945033152844742
0.24036555805041077,0.5008117775534107,0.31360210593046517,0.32368830816256694,0.5212468047373238,0.6341817278033104,0.6736654976275249,0.416291032030786
0.23388252477809005,0.4718862875709698,0.3030117868260178,0.3325829627834385,0.49876497155401667,0.616770260623974,0.6272371632715893,0.3974905367830524
0.22766465653668622,0.4469524880853389,0.2861194341813625,0.29708661887565146,0.4403827191858963,0.5450149816047397,0.5566853232541639,0.3347819476896926
0.2137692299519558,0.48568237867941555,0.267584337295081,0.2723691750761362,0.35282667197002426,0.4701273460393894,0.45544031658097794,0.3481859891792344
0.20832679230846296,0.4921986405565668,0.2659788419773701,0.2765499175924464,0.3651863768219221,0.46932696448683214,0.4790126280130898,0.36355442785993897
0.25918289772131814,0.5647099396868486,0.31787598306120207,0.33105159820909674,0.5145590111734131,0.6206184140237744,0.6730352874413468,0.4015134814398536
0.2514480033122041,0.5182025373966461,0.3052961012812004,0.3285713624825003,0.49751355874519704,0.6094197546399353,0.6344359306108305,0.36422257052854573
0.23719143062764794,0.5222301131335189,0.2935219380411485,0.3159256491241981,0.43354937509823055,0.5477651076470217,0.5547528742118133,0.3493356165273041
0.21572382062426057,0.4300850831068165,0.2677118581904516,0.2759205894890783,0.3618244622875018,0.4453436842214038,0.46438220286988,0.34488539077864255
0.21302422571723556,0.4533051396613243,0.24557220843888178,0.26471555636999805,0.3368690694820423,0.43753685747823895,0.4427820900982742,0.3435469762421925
0.2425862455014915,0.5365681759154847,0.31072350641895125,0.33852535319970356,0.5218315015906144,0.6347750889426944,0.6566432458106107,0.3831709018370566
0.25928112042497176,0.5482737027788852,0.3251340628991235,0.3355789058111334,0.5084798605269345,0.6198368714729645,0.6487625554807142,0.36819686119901257
0.2492662226140104,0.5323633983632468,0.2942774523306968,0.32279290567688557,0.448741083307063,0.5572082735898588,0.5643812376225312,0.3900651857472431
0.23007110193702768,0.4900036629617344,0.2748586407609723,0.2900403565932326,0.3554846269634354,0.4595544820581486,0.47110723574949687,0.37479685417468833
0.22009674175233865,0.4872074412924131,0.2559073845145195,0.26319888121278756,0.29429313574157456,0.39361491119596204,0.3994988073113012,0.34937550509325865
0.2483979149947767,0.5012446432165606,0.31321684647978193,0.33260904211788833,0.5040042692898831,0.6155264651667272,0.6413178527274639,0.41270458410137884
0.2556161934005119,0.49311584829935085,0.3225967916521498,0.3396808887507168,0.5066600989255706,0.6285051323560346,0.6388946547054399,0.3923463753364327
0.24917153924653038,0.523605637244658,0.3052521181662941,0.337485707220244,0.4575199162136898,0.5734385407547038,0.5849489017299185,0.4173974853962247
0.22874423552040582,0.5174792104024668,0.28313609524801653,0.30081423025201803,0.37521727746578043,0.47323499441036454,0.4740573159051276,0.40861114695461714
0.223614669786109,0.4968151524056834,0.2538918203744592,0.2743726957148601,0.27667843454150914,0.3746658298272612,0.38549441270690177,0.361209106213079
0.23618695691484481,0.4702154421471885,0.30728858239155415,0.3174680301144475,0.4574603282604937,0.5731515090906466,0.5946303122165295,0.37562827210496297
0.23495795651704401,0.41275633025306585,0.31598738129168424,0.3187894736143287,0.4633831036385038,0.569916305402172,0.5952392299212707,0.3905616003353396
0.23015244664619716,0.40443531471520416,0.2970333376805181,0.3154744202988538,0.4098998495102822,0.5284808742605648,0.5596521424480441,0.39942979311151444
0.21450436359023423,0.3761945071141459,0.27206853725693786,0.28038361955357466,0.32282417326819884,0.42775599318416185,0.4332913439944735,0.38514286696117983
0.20081444158516837,0.35117950776481893,0.25192709946243524,0.2539377996175806,0.27718519788259816,0.37273711549929117,0.38246116578533834,0.31129341789076687
0.23263397211238102,0.38901225159265457,0.29999462078442724,0.3246356514538591,0.4759427130719926,0.5687763822359303,0.6003542902937954,0.38115656559044625
0.2349772916095743,0.4176905774990801,0.31779786151647527,0.3252072331529729,0.4522986876133688,0.5645249645900005,0.5808790017685093,0.3802198360558074
0.2362944805552694,0.4517663835231012,0.29617043328146564,0.3177893348663959,0.39582924139616804,0.5113102761002754,0.5139646393349359,0.38472773714675157
0.22213151219977287,0.44654651620376723,0.26494655201424,0.2772999185798497,0.2977497863846314,0.39088581897146607,0.37747506510648066,0.3554183386229833
0.21482434772612224,0.44467376469213216,0.2722427337230897,0.28007896397612564,0.32973071126785974,0.42319913824882965,0.4371756386064743,0.3496967538709748
0.24844540461834252,0.5079278173855309,0.3335461571245084,0.34793413558711067,0.49976926677704875,0.6078289737657766,0.6243943637529678,0.435084577724163
0.25555812227367425,0.5560829973570867,0.3307286068597127,0.35337787623453826,0.4809119610747667,0.5773531264702247,0.5940458025850949,0.4074008766945506
0.2438244099208313,0.5576823317386184,0.3150758590304831,0.3299326869582701,0.41818659063086383,0.5059231597459203,0.5175772715240025,0.4183108544724532
0.23388494365148352,0.49916656849980595,0.2869014003028208,0.2951241706192737,0.30658765829293094,0.3962898138896978,0.3986959255290093,0.36377088141428005
0.23810726805347424,0.49422031345251655,0.2942513040437701,0.31989431620363934,0.4089051271786856,0.5143076713083334,0.5174913303290598,0.37773754969951084
0.2679481099915515,0.5516665817944629,0.34395548792716596,0.3785530362123459,0.5238837128852395,0.6339269843010381,0.6519907365177212,0.458057286556213
0.27418215430133885,0.5669339443056519,0.34484796761692343,0.36321267079752856,0.48536731630199925,0.6094536691883502,0.601286250950126,0.4616082392605352
0.2634859811470339,0.5398047477446477,0.3266473298256064,0.3338102315226044,0.42119471985802354,0.5046823479614778,0.5200088962168915,0.4366217132906314
0.2296090153684583,0.4891848733597925,0.28437454887205865,0.2993915607949661,0.3019949224638747,0.3943833140045152,0.40357033126580066,0.3237666729010005
0.24330200775370106,0.4796342608380786,0.3091085585725471,0.3354264983148775,0.42894830649879284,0.543008121889024,0.5379896630124948,0.367870788283148
0.26183560096613673,0.5378285927146758,0.36221487381767026,0.3812683353491945,0.5198544309661501,0.6405887295043494,0.6400186726341003,0.444454393951934
0.24745964149849176,0.5137243370658326,0.3529436330425814,0.35650009693827267,0.47966874861574177,0.6023232455452279,0.6142807187836231,0.3786063809145065
0.24739941506026586,0.45006329611601914,0.31662813727959277,0.33106436566559033,0.4185233794870395,0.5185535784020537,0.516838267694198,0.38254937404744216
0.22464018333632732,0.40229135966976587,0.295944860352856,0.2985856459422272,0.30126074112000345,0.4206497756296604,0.428882425884191,0.3218131549178905
0.2504232537404837,0.49215528357755606,0.33503469045102163,0.3580635098334388,0.48323670529935575,0.5991743970550498,0.6193922266598554,0.41064995884221916
0.26353215317048634,0.5393526596460183,0.3599928484892728,0.37221140706968553,0.5129640144120314,0.6266894080972171,0.6504866052378564,0.47448021766669796
0.26117863896616605,0.5389300968834926,0.33932256860312726,0.3664157287132279,0.47390523510485755,0.5992557605596459,0.586000890784074,0.4452239628945572
0.23401817974961142,0.497672829801126,0.3094520950389561,0.32750603122329536,0.37833884260266626,0.4726079888535496,0.49432524334850686,0.40530751080020394
0.24961607151875959,0.5295447434408616,0.3175966055868687,0.3413294194573037,0.4140467468820292,0.5243102128952059,0.5355363083795192,0.3929843212571693
0.27908989333267636,0.5814999152993409,0.36511037705456595,0.3898562594124736,0.5668746748076494,0.6754320314512499,0.6802763258048963,0.48237545203336374
0.28769229113320416,0.6082071874528197,0.3702518995859119,0.3873906968264888,0.5267773903563658,0.6431265299417107,0.6629116507002438,0.48273466197186554
0.2719416481441265,0.5505038816887892,0.3330196724853253,0.363856640655172,0.4659907365512825,0.5705435433796848,0.5863997705026771,0.4252299555263081
0.24792965928771735,0.5064375539965821,0.30211099620477994,0.33543137043332794,0.3793446324394615,0.4755974883032153,0.4794318704458542,0.37761381727359333
0.2680753318041885,0.5310909820830854,0.35870890769322494,0.3826938398595878,0.5344413874079775,0.6537107564809093,0.6792357988995442,0.42676203362907916
0.29457923694616556,0.5985409148235357,0.3903400209903308,0.4218888299160041,0.5879557556829046,0.728096609413783,0.733267584352109,0.4607668629442356
0.2903859339917908,0.5784438089724216,0.3712624323670606,0.4070895906892352,0.5625568291496001,0.6865651141628384,0.6891716841012567,0.4437304223181133
0.2746963854274267,0.5875663006648747,0.3517025690675153,0.3863721830445299,0.46305749945860186,0.5690609235758493,0.6030916035921208,0.4084068151839049
0.2514037997737133,0.5035233419336501,0.32193155282023284,0.34901539985791696,0.3888051424487577,0.5056671807285632,0.5083436012583706,0.31045895240021415
0.2841592570918231,0.5562339996472263,0.37372852376341964,0.406940351210543,0.571348844872602,0.690880550540062,0.7185430609060127,0.4301228159011654
0.3065096260425292,0.6320538036314538,0.4030531875441312,0.4459558350982562,0.6167011108020989,0.75695536118428,0.7818716581592962,0.5038616910968212
0.3076317286810912,0.6610957560548837,0.3847148294952465,0.4442787258430197,0.5716899337500001,0.706236571201272,0.7315975514589351,0.4413002564313724
0.29319184848759544,0.6184931897826997,0.362055305297317,0.4026197295870924,0.4893496657487026,0.629321559262542,0.6040884607512373,0.39343241666438517
0.2757660054734291,0.6112979068584654,0.3317854501431406,0.36528320429988953,0.425117920304355,0.5232661772882904,0.5278971651654686,0.36927404990880863
0.28440623234955065,0.6587005022643387,0.35660923469541667,0.38916139404653377,0.4910911225500903,0.6153390867686956,0.6251133222420848,0.45021921366708384
0.3246420868648138,0.7055249957618029,0.3993757015676645,0.44372087726806125,0.6246339725214387,0.7624861435809761,0.7857102795207487,0.502437997983663
0.3207608570590305,0.6791101892420076,0.4021722545878956,0.43865927426205015,0.5979966789146077,0.7307887240889794,0.7335769549245832,0.45250712508786745
0.30482018456610027,0.6768912950204875,0.37430930374284954,0.41674984797149384,0.5309873927844678,0.6420396691070372,0.6596304373610565,0.39590451688537165
0.2856237506722673,0.6885294662110802,0.3394218501980601,0.3761152611716432,0.44909020961768725,0.5599157048757587,0.5785917504585423,0.4048928599175786
0.25759762682884485,0.670915866714349,0.32481313430549363,0.3468737278871225,0.36639397184043265,0.4828222859617624,0.4746465299380991,0.3808152793584269
0.28498284812259495,0.7109071105065751,0.37004291654008836,0.40559808040826945,0.5533918972753458,0.6907021349365327,0.689582875540505,0.47299173087174107
0.2972506240792221,0.63834554868905,0.37645121299015166,0.40444873892352684,0.5682735843513197,0.711359468078774,0.7125880401277043,0.4040524462257627
0.2745445734545618,0.6013998841623714,0.3680421137371316,0.3834183246201913,0.5216083655916902,0.6593235294282143,0.651777617640903,0.3887467275721401
0.2771461787083983,0.6309974744809456,0.33526161115462916,0.36328042253655596,0.458745132750673,0.561827997789887,0.5774330344884195,0.40034274441091305
0.2570749517797633,0.6515428114108055,0.3152492708602733,0.33488965210125693,0.373629465055253,0.48951373532731474,0.47816260481922424,0.42432262368035556
0.2675301775150312,0.6237901787003767,0.33726125181283845,0.35748364384731895,0.47693389023005256,0.5969301305229487,0.6160498058453772,0.4403511609936242
0.2746469475440153,0.6385312477852113,0.3544058788781104,0.38379234047244287,0.5434104571670267,0.6649383706928418,0.6655987332842009,0.4357664279824941
0.2723319446295143,0.6389288942517793,0.3444722890100112,0.3663807223394715,0.5006721433486672,0.6155668705340762,0.6498595831861144,0.45340762837479537
0.25861455130942357,0.6597363616508581,0.31295530982678116,0.34094639650052416,0.44069245431307674,0.5266730090123176,0.5314059796077228,0.45474999476713285
0.25611716700786236,0.6623953145737473,0.2902997117961249,0.29366643291884514,0.3510383444865518,0.4347236142193794,0.43222624491979306,0.43367183338927584
0.27578406584113396,0.6893480361746609,0.3277681101499056,0.36044750880190496,0.5016962481433974,0.6298188811440937,0.6313041420709474,0.46743188688766696
0.28780998494920423,0.6940782646250732,0.34779131921482365,0.3833551221504487,0.5510737976824032,0.6656663877053505,0.6621212625240628,0.4754371956995441
0.28669966275414077,0.723311845947435,0.3431609425373973,0.36831415692145836,0.4970105690165246,0.6096986482164992,0.6273888792111159,0.4836451624444
0.27338505716130196,0.7470320879423902,0.3199719962298581,0.3436296103257,0.4136944151932954,0.5186237246475074,0.5141269919479203,0.45866305090659887
0.2486119310184308,0.6388583784294266,0.2962478128994283,0.2997437372596506,0.32708593591596585,0.4287225364883139,0.4555435601980236,0.4208883513085411
0.2771904502926944,0.6583240726932366,0.34588606448632825,0.3685727335346253,0.5161443165519278,0.6570941589651693,0.666195513035475,0.43312158017738267
0.2804676022381808,0.6779572543932529,0.36084763358931293,0.3893683784504433,0.5420647565196147,0.6700978643433351,0.6830929989575183,0.45899095816746527
0.27778504820064015,0.6911853623814207,0.34817499216127124,0.36293107631307414,0.5015241256837292,0.6139405916797686,0.6105471097265435,0.4538276294798691
0.2729850560120098,0.6923204476133944,0.32635825855382855,0.33034135485605837,0.4091692093462648,0.5276989198006358,0.5200820156634571,0.45131424622870525
0.25771338843264874,0.6944082724770874,0.30031356517301533,0.3008140633733239,0.33590559871299913,0.4320871647952823,0.43743509487869364,0.42226327256087365
0.29088480696704794,0.7164479389912769,0.35167991318226993,0.37176864942019866,0.5109338493885779,0.6551200478158514,0.6550848516476904,0.45635489706120025
0.29629266047721153,0.7251207634157302,0.36108481399533454,0.3914804066887306,0.5527510696934687,0.6726939437510496,0.6888069583874579,0.470574799901425
0.29157842476961426,0.7057988957037228,0.35478491798514605,0.37336285085281024,0.49854807325286915,0.6153619045756996,0.6139819410334398,0.5116394246855843
0.2638854115327527,0.6539868461870306,0.3165264630673113,0.3311750454573827,0.40413468299104605,0.5147647647305132,0.5058544175505055,0.467892002443067
0.24936465917880452,0.6628144599521916,0.2915167587020963,0.28824721004008225,0.3012577074455367,0.41175914390129004,0.39284065448255157,0.3970046496601499
0.27568419566976254,0.682518273551584,0.33297653287538864,0.34304211543809326,0.466178935297906,0.5946896979378059,0.6172100837454629,0.4349565459815742
0.2918943834445777,0.7365742306572794,0.3541345405314131,0.37450105012189805,0.537558475026375,0.651737470465426,0.661178249443354,0.48929816339888305
0.28087965934192327,0.7407223701710179,0.3522004627341411,0.357943723041134,0.49463301704650064,0.6143320884323471,0.6414227658939423,0.5037788253748736
0.2739334853566169,0.7240926606713142,0.3220774480972741,0.3200458817142407,0.4155434056260077,0.5184516826644319,0.5148510061286726,0.427047828595092
0.24163730075670212,0.6662040047302514,0.29338477112995526,0.2750946874498256,0.312706057960514,0.4189203075428725,0.42323317390100257,0.38763461472595756
0.27548880391427655,0.7239656019158329,0.3372365849013539,0.35041134718930694,0.500912135883071,0.6014531686500406,0.617459258157253,0.46092816437184164
0.2934477392817895,0.7389567253603206,0.3474776255485656,0.364602965294122,0.5096929252457715,0.6247541138397379,0.6347005933130349,0.48399939779884255
0.2738918713525405,0.6314495495448695,0.3254844569744284,0.3322242792310683,0.4654262783259695,0.5628925112693167,0.5681537836142667,0.4483607885813238
0.2631822664025502,0.6474294761309679,0.3066064978038276,0.3030087308258175,0.37185359812990537,0.4772262749801811,0.4780872133190646,0.3657459046730176
0.2490707540108673,0.6517538298925906,0.29859612577653677,0.30242162153359176,0.3561719878711728,0.464786376094771,0.46077966922275093,0.36898796398258277
0.2851555726057672,0.7175641792122902,0.3537778840888272,0.3781297997928257,0.5372762227740822,0.6716165097967245,0.6798242912336008,0.4918165626815976
0.29935129389936277,0.7521143230437082,0.365600177531862,0.39115581201065236,0.5284442048785324,0.6516348773811801,0.6554937083225473,0.511203015454698
0.2929420126602554,0.7335757106282911,0.3477775614406555,0.3669949870294355,0.48284755224236925,0.5823257320238172,0.5796549687587873,0.43709564634206993
0.269948427923723,0.7098345247607922,0.32084204294371543,0.33441768505310787,0.38227414561095546,0.4831456897042462,0.4935898684080497,0.37203064934136487
0.2767722333040953,0.7201527812514927,0.3249860644007911,0.3493673476345522,0.40742283980750543,0.522184128783823,0.5427701921286997,0.38260485490365376
0.31916492343396197,0.8039127595568056,0.39272892672901644,0.43143300617798724,0.5832013396557144,0.7112606046222277,0.7079614844852845,0.48024108961874684
0.3219322737730239,0.8095846696393973,0.4004686761715049,0.4424729503336658,0.5473585739559521,0.7064165336884329,0.7068176422199706,0.48959157954077276
0.307441755573468,0.701207702591968,0.3757796702584872,0.41574789096722925,0.5006407708630551,0.6354667091567275,0.6466516524441643,0.42798161707892435
0.2871359150049631,0.6684865914395183,0.36242727008978154,0.38228305785423716,0.42107033236779257,0.5542200295912323,0.5488276377866887,0.3959904105462243
0.2856113959569073,0.7216621626542576,0.35521130830996,0.3816738745549776,0.45480403275330195,0.5515226019395715,0.5779691986679344,0.43634554140750903
0.3545465110001762,0.8761320294025832,0.4213777960814172,0.4817471630223175,0.6195479200020573,0.7711160409072059,0.7769250919594141,0.5275263308869905
0.35980435422581003,0.8781618576433321,0.4434017133061399,0.48209692424797057,0.6144042563002308,0.7604692679151036,0.7864112067604351,0.502290134779372
0.35101322190795886,0.802105137725575,0.41526533757879824,0.4667295818447276,0.5571085945782467,0.7082745291901932,0.6869141806318453,0.45566939964367814
0.3341797534675571,0.7730524567631186,0.3957154980750501,0.4362614139142876,0.48859568673540216,0.6134293393958399,0.602011918323525,0.4423636315435514
0.3229521152878897,0.8378052744980802,0.3733416310997122,0.4097705840450075,0.41892282067196235,0.5331662404281005,0.5330488992112693,0.4665286614447427
0.3559926906263144,0.8866667087355198,0.41297907647469456,0.47836478817097905,0.5737835044421704,0.7361625743536976,0.7393470262978806,0.5441580681248293
0.362704904242582,0.8863581945868273,0.46210474090934645,0.5119521028510033,0.6309938705799188,0.7872313236275986,0.8018186784798256,0.5021169410668002
0.3658715868579758,0.8561745595366773,0.4467469631388218,0.5024151754632982,0.5879157089267368,0.7470646635531878,0.7495543044221522,0.432422680089852
0.35762954373763983,0.8332874218463501,0.42585961690944474,0.47420206781881263,0.5120115825043874,0.6709918885988806,0.6821614191681404,0.43788018528702033
0.33124214744645053,0.8107491948765536,0.3924484686084804,0.44151178950326725,0.4522025405910121,0.5668918887424895,0.5801609944962169,0.5182768444414392
0.3564852307168969,0.838922999962437,0.42709573752544044,0.4832970755848458,0.5242926604815948,0.6912324029576161,0.6996142431868203,0.5423646981782911
0.36859181837746735,0.8373164708652598,0.45860741888207646,0.5168730086080864,0.616324172638868,0.7726622603307742,0.7994069627143379,0.5110789268106063
0.35843107342368274,0.8296590210335439,0.4522434719633164,0.5126241554554486,0.583030069508257,0.745365107353058,0.7475561640303029,0.4801935966241648
0.36030851051815377,0.8567219497799062,0.4292378646153311,0.4839955314576581,0.5197902019290211,0.6800872216008754,0.6694106488091099,0.5214894653115971
0.3415705471680682,0.888927762717902,0.4116160427638925,0.458369136595918,0.44445104047557166,0.5901501984471835,0.6007846344086808,0.514214448316798
0.35256280008058105,0.8739460908195175,0.43199968846689263,0.4852890732744515,0.5466564086784019,0.7095627863145009,0.7381302720576226,0.5149066124102336
0.37573727884065117,0.8369655638882447,0.47019298844989543,0.5297835538618461,0.6058719909970648,0.8177337629085292,0.8412282430538445,0.5051314168329688
0.36529460082115617,0.8126742085370885,0.4497265758355899,0.5163956957836923,0.5842233512173173,0.7640577637331658,0.7843110893005856,0.47800903179334214
0.36175536898625593,0.8875090026086753,0.4383963281372205,0.49608734910576674,0.5451032622992622,0.6855722617879192,0.6995389478399816,0.561386391632527
0.3512069306329123,0.8835663720788602,0.4147463729749034,0.46577379993522405,0.45617850169217594,0.598045151271242,0.6085786701397373,0.5081324222572569
0.3386104591609725,0.8323573056391046,0.41130884399974826,0.4520453939826539,0.4615263256130711,0.602655088727571,0.6154755284491253,0.48358592470349926
0.37855995391111913,0.8649893404302622,0.4656370192768503,0.5263886743671327,0.6279732597511374,0.8072823309534793,0.8247639361299457,0.47631149747367213
0.3665525619452135,0.8505077951340339,0.47205475204894276,0.5274107298474406,0.6216362929335782,0.7992994469624253,0.8275724109692574,0.5288772630101559
0.34907711515479967,0.8436607454734039,0.44304727045252035,0.5131031875431638,0.5616078131667551,0.7355008025354645,0.7558640224610129,0.5125543587233434
0.33975468894819616,0.8030847725631571,0.4170418340406561,0.4585940112367018,0.47481886549233027,0.6252466219225756,0.6193767281506175,0.46739797990833915
0.3154334523469526,0.7683791320584402,0.38159318076815185,0.41957894421908265,0.3817121927693436,0.5250701624075842,0.5305834092072343,0.3924131717486551
0.3373092582526273,0.7956962267912531,0.41176459858852765,0.46629962394237023,0.48567450076283253,0.6517738488461854,0.6786724950932617,0.44994470792360103
0.36277529386496055,0.8556367605300985,0.4472863851100242,0.5177064942755115,0.6230735516277143,0.7994782807638335,0.8177919911025889,0.5247799682588036
0.3586558566542194,0.8735046516588256,0.4392450718934078,0.5025850335875796,0.595706119948497,0.7736378676828766,0.7993598512116746,0.5727986222901664
0.34593563664110527,0.8359270790550729,0.4302408107012704,0.46978685520513636,0.520999709398766,0.6780099854038416,0.706210944914783,0.4970159541163146
0.3166116124175329,0.7379470411368354,0.3971548393872387,0.4303748150415206,0.4223396650243442,0.5648068571920395,0.5750071996265531,0.422593955395677
0.30499477553205456,0.7057287190955832,0.3755834052864374,0.4179004765227676,0.3991116635932156,0.5575179520670186,0.5681978580104425,0.44646904816381794
0.3322746808614041,0.7148681519860648,0.41427092537880494,0.4893696439670441,0.6031989836598143,0.7694722513790447,0.7974241504716498,0.5389102365268263
0.2951946587540741,0.546161520415609,0.3986342372635443,0.45111509433337105,0.5909913384985054,0.7469632958944213,0.7698755930028053,0.5320903418070606
0.27840215395572887,0.40992527006521845,0.36578394869671893,0.42327036168900867,0.4891344307024926,0.6708334491634038,0.6930653597342362,0.4525580596405596
0.2553189630035314,0.3860900036318931,0.34651064859369574,0.39765560387506016,0.40199867270336564,0.5584484716777951,0.550451563731618,0.3993686408287089
0.25416041073133194,0.43952850672534466,0.3441045090571173,0.3967698408493035,0.42314398912843226,0.5905182925285876,0.6253589274072785,0.40760086043627075
0.2963178017630308,0.5097112910444637,0.398379272112938,0.46146757428445206,0.5982984146241946,0.7629439569013591,0.8002932035013122,0.4893599106043011
0.2956372850418033,0.5439590393639209,0.40659732916780517,0.45785055062799984,0.5644970186888434,0.7416162484344884,0.7708479842537271,0.4723996053733405
0.27807895236768315,0.45738438049537616,0.3779579395653559,0.43406792156667995,0.48502897418795404,0.6645423048658469,0.6822365897234816,0.37328865162194386
0.26921291425061916,0.5199153686674558,0.36192771494606896,0.40918298077818616,0.4026271879881143,0.5702182282699347,0.6028699674515497,0.3765437098624817
0.29228157401792465,0.612840736413159,0.4028116096116696,0.4705101417216599,0.5632963182135956,0.7642383829580802,0.8040536884764927,0.48041411466708456
0.309476377250659,0.6402568108881407,0.41549291445086817,0.47815439552022754,0.6047662294029027,0.7789923464685227,0.8178006509622708,0.46252564378395594
0.29289790795407505,0.5673586865732806,0.39940541487386255,0.46005820888493626,0.5226166820301188,0.7030992504510207,0.7574685100542371,0.4230971335357509
0.25686304603973975,0.35384708615047267,0.3612089498480027,0.4089274086808001,0.4170896247939981,0.6174742242851701,0.6332718902634883,0.28264681709362377
0.22212309381757767,0.23432978563097007,0.3357117418393799,0.3800482398265444,0.3905255801110232,0.5818588281609705,0.6256098961878435,0.2788650544970334
0.25297612608020364,0.30777599134441036,0.37916560428628315,0.43873110258231374,0.5762029560725558,0.7450705592243153,0.7908510236897252,0.38368288073513374
0.2641796209977277,0.3232281556517692,0.36972553934130326,0.44442040602331107,0.5098846651128183,0.7286436589154072,0.7449278814907595,0.3798103351690129
0.2558220087197282,0.3202835716633067,0.3610169934859499,0.39532099565073864,0.4613408650073434,0.6436343322903395,0.6717809058011992,0.31528242820200003
0.22957580106192316,0.28485654268209243,0.3282418305484987,0.3838865904890373,0.3812792601617664,0.5402306862522611,0.5903979423065291,0.3121088128883036
0.25544439011398495,0.350349778943819,0.366369986885644,0.4268779699113343,0.4872905805195697,0.6969749860902321,0.7389970346787544,0.36882448702316556
0.26692759634000707,0.41500259664563044,0.3985299795666453,0.4579273710210262,0.5635370815533222,0.7571273906994271,0.7825563664495301,0.41397064434417
0.26973482859740094,0.3858423607422039,0.3908909388088662,0.44257510829143343,0.5148090871391241,0.7234530355726523,0.7511515384566059,0.40801147953236644
0.2492744311407332,0.36450842128233735,0.36361704740109074,0.4201023041289446,0.44019202075860353,0.6297075292182162,0.6508893102350389,0.3445285021872699
0.2425906067360931,0.37830820385791414,0.3525726152537422,0.3957463246452187,0.41186801283887864,0.5755966924170678,0.6396690971345118,0.33571399105821687
0.2847233168068083,0.4345018367490156,0.40910875712780864,0.47593728201566693,0.583449359630904,0.7896915186449155,0.8165334225874764,0.450020571409583
0.2785327875421795,0.416721477321783,0.41456357776047437,0.48363257845362795,0.5855103381624057,0.8048713295225223,0.8298703668208676,0.4360175881978463
0.26821518029627345,0.36820411367291045,0.3997361525841959,0.4579263511749608,0.5381229947506562,0.7348212658287343,0.7558495713129811,0.36147077587133014
