-0.06894061406664533,0.12340256147113926,-0.05235148576953645,-0.14000873533543257,-0.06191951666238763,-0.08772393836432672,-0.09897303012131548,-0.08811548826160243
-0.04798491845362124,0.1352623924758413,-0.037134502834286764,-0.08630103391095072,-0.039742613261515146,-0.07478253344752198,-0.07512442510190405,-0.09142695659929276
-4.744090332633124E-4,0.16757385584091994,0.006355417573455136,-0.022813901237652284,-3.151249327434105E-6,-0.02213675599211951,-0.047693003035169566,-0.07230864402856475
-0.016857934434545578,0.11799566821769984,-0.004979650928954228,-0.047839700731034204,-0.012145032177281212,-0.03351848607273451,-0.09089204747893134,-0.01832300754038994
-0.04108031091038861,0.1191029302758134,-0.04190313426366194,-0.10673747581558922,-0.017153182848695256,-0.05852552840974454,-0.09006172939364764,0.0012439451957018883
-0.05831450311895301,0.09855082041377067,-0.07976704183433207,-0.16768647339294643,-0.038491093844215195,-0.08795060756268883,-0.09336055717323428,-0.04392424147754761
-0.004686638717578327,0.1447955398078773,0.02097185631240386,-0.0311986754573548,0.0049245954690790815,-0.012564182773012285,-0.043971578177087155,-0.026249215214976307
-0.010535964848488734,0.16050439646628986,0.031083140614462528,-0.02743166789658657,0.014772707399138905,-0.01860060658948959,-0.011971385815576649,-0.0348169912458009
0.008897211424536387,0.25528433238644244,0.025987108267108483,-0.011782657575354094,-0.025233202150872904,-0.03543581387343148,-0.029555349183765338,-0.09254138013929278
-0.022812390514975675,0.24430806401162508,-0.02065456554994724,-0.08414857202390548,-0.03564494073172166,-0.07136365917237199,-0.09336555436592295,-0.0906056646129894
-0.021616899558392622,0.15203541116290456,-0.053181092701059016,-0.10693479958067753,-0.032521684234986935,-0.09186382214908963,-0.0826393162202501,-0.07860486202622528
0.010381874565304008,0.1385166170414985,0.04971557124084131,8.072499602766631E-4,0.012849475395851415,6.894386613436955E-4,-0.018664416481446216,-0.024115754448830677
4.367631687036481E-4,0.10189929137563011,0.025518792062033807,-0.02990300438128602,-0.005853909729742818,-0.022381877020070964,-0.02179835415153351,0.0030979164214651016
-3.224612526387215E-4,0.08886177772519553,0.0020714971192460027,-0.051085069671484434,-0.015399619959382651,-0.03817314055963011,-0.0387995437588626,-0.017145182168757316
-0.04981488726106318,0.06617838547763427,-0.06391753388102066,-0.13382423506617402,-0.032249402075858864,-0.07324532196898789,-0.08778651046107373,-0.020335465963254692
-0.02169890141589743,0.07387592219867725,0.0038848603868997336,-0.048877033576031556,-0.005565955220450356,-0.015846471966446677,-0.03137514534294975,-0.031113824788286212
-0.005250193736030713,0.07072085095242117,0.010147781255329624,-0.02650857971218068,0.013793678525280096,-0.005802635560701845,-0.0027446946042257872,-0.002049782852550866
-0.012955596451441785,0.05825806492338689,0.013396398480577398,-0.058371552645673716,-0.013411919958466266,-0.02521804194780953,-0.04165460226290751,0.007881564082891
-0.046894158959564364,0.06992906039724357,-0.041461264949014594,-0.11636080486705173,-0.02845078404343411,-0.04795159839386275,-0.07114135398028748,-0.012861424228241634
-0.0408165680800702,0.0846096151042833,-0.04268454178331851,-0.10429032808278121,-0.015731266820561106,-0.0758734074475125,-0.05525909136717211,-0.013233756397816364
0.01722528415947126,0.11684639434494405,0.03715916585568667,0.01835914922662998,0.004666962857615677,0.02841663609922805,0.025082350511844882,-0.014389606801886648
-0.011987181434684696,0.09992851521258092,0.021785708105083488,-0.006092637259727629,0.01045551462157454,0.0030378003312322315,-0.025703476205473908,-0.023520198383626848
-0.009015052516249709,0.12261643837893615,0.0023608636303673156,-0.04447125991497047,-0.004522112077349779,-0.02548930182179845,-0.021310237936445185,-0.04998336543744076
-0.04366950389817237,0.08985862015173486,-0.039514238795619015,-0.11826696128113606,-0.01818806642034778,-0.05958230977826531,-0.04311214219645325,-0.02754784300611016
0.02423502961730954,0.1443669726716106,0.03769143864950025,-0.0016090425664597133,5.171116464204569E-4,-0.008823234507028427,0.0071424690049650815,0.008000308092302975
0.021742270606388565,0.1703170036776497,0.041899916092060334,0.024361483157691703,0.008997881723641363,0.022993405827713104,0.013906064483007088,-0.03683759149351212
0.014975020571380372,0.09412443264974654,0.028116648679065336,0.004754968997050108,-0.0019949899701204488,-0.0015022399484808438,-0.011605260881703392,-0.06494075190921525
-0.028662236696868362,0.08070796076787573,-0.02144539127412307,-0.06246899334829176,-0.026494543084769766,-0.0458684297046285,-0.037488648064922185,-0.05158474797611169
-0.02552815666653784,0.07915615766987565,-0.018673479306278246,-0.07443533466196565,-0.03228890819728645,-0.049820263776967494,-0.047407565227221726,-0.05515916285977965
0.021342253977708475,0.1290580598683566,0.06406428885021949,0.034431067213959124,0.011256900562872757,0.014462233613514267,0.023365315307810105,-0.03695881053897049
0.009212203688007379,0.08697947520285634,0.028835044068318594,0.0021544230555716882,0.006534123823536468,0.012761442811663502,0.0019380601649064977,-0.019409754319784377
-0.009403725087267428,0.06954678524509118,0.008009095306949085,-0.02538348246865567,-0.0024038687257075726,-0.014735374348236074,-0.02959000157967107,-0.03171419412164112
-0.03997333881517552,0.04775939065598279,-0.03955707750077187,-0.09079769045896507,-0.023702342154920886,-0.04543164056153498,-0.06986423536432694,-0.059386404514090385
0.022608056279908948,0.07598254550514034,0.04664113370552149,0.019541591178577948,0.007967402093825503,0.021631035014751072,0.014328316549178315,0.018367111249885545
-0.021701208997572736,0.07220993275238895,0.024024167743995836,-0.006778135794516181,-0.005261045569999948,0.006331645805098353,0.0016377927587000922,-0.05421971322014113
-0.017330595631882054,0.03890944623847982,0.009854129624172658,-0.03673341166801866,0.0036686513162007867,0.001191733194818995,-0.003060668245806934,-0.03282811695847753
-0.05106212269395427,0.02309210961785436,-0.03394413377908053,-0.10055307192079509,-0.02059918135444846,-0.03906694584277394,-0.0482669368912392,-0.044029091363788936
-0.0124290285058788,0.07479664077522773,0.010808251854292591,-0.004404069462987505,0.008967875704250125,0.016304739774308675,0.00780486663063885,-0.01325360742351727
0.0153927214523483,0.07114645127648793,0.040783097704408466,0.02682712133507658,0.026712319158691027,0.04031314254569627,0.020080957029511546,-0.011625364525493986
-0.009075911254239476,0.08057904607270827,0.03984293488851836,0.004601163448335001,0.021149117257420025,0.032505468154484185,0.010956339265233782,-0.011447719908080908
-0.03628930489102813,0.0613221753056276,-0.007706130351192639,-0.05640760413625247,-0.0038268998368285977,-0.017541623314018387,-0.020667999874798684,-0.029353783216716684
-0.031030127287793457,0.07263773104744566,0.024292945261684483,-0.02575795847381135,0.00606928652126188,0.013430860874973461,-0.0032297589509437375,-0.0024642048527465953
0.029477063606526986,0.08915159035985694,0.08751270332363575,0.07341697908855556,0.05860046938939161,0.0709422487786765,0.09311168601235369,-0.011622049584698028
0.05185654495172728,0.14374853467800008,0.11624073690133879,0.0782336158850445,0.09694053741840485,0.08929655941040478,0.10402746930335893,0.0399640575958
0.04744860943455036,0.1022759624902886,0.10432009071609065,0.041869161319016066,0.09243180305144787,0.07915433324314203,0.08936585797624591,0.07830858347763602
0.004133478437558119,0.04396388440093256,0.02045992455540118,-0.04300572442925663,0.0466753845334097,0.030273635222454007,0.030095611812391284,0.06512885913980877
0.03511907484913914,0.05947267700499679,0.10621489280128839,0.07383367809401636,0.08143837196912158,0.10171918305329165,0.10626348750010023,0.10569885792568698
0.0038823782098508074,0.09381556287157965,0.08035345690134821,0.04748256680112864,0.06309961176987716,0.07515302307349284,0.07830830735061894,0.14552064901298034
-0.016067623319988136,0.1711630590544672,0.05326017562399963,0.008088719214760781,0.06623342226639463,0.061140068256914086,0.0611890533202837,0.15249233329862358
-0.09635964394159602,0.05974532400157342,-0.004429150991785783,-0.09375717871370706,0.05097657958564956,0.03445690457463269,0.03232080872313527,0.2564624197089348
-0.07535557299265126,0.12419835975608375,0.06074286677496527,6.642179125880147E-4,0.12034084574688256,0.1218825216178589,0.12487593034942336,0.33778214800535183
-0.038939613142500516,0.25793871796545687,0.027640050626003474,0.010033758980238184,0.14094819504917802,0.1373962908718165,0.1573158686233328,0.5032361942906708
-0.05409575597682637,0.2272569085281592,0.006375466990942964,-0.014820357071452968,0.1097544831208797,0.1091068681478752,0.12184877309692066,0.42878294604502115
-0.033142856603499006,0.03035337604144614,-2.471759685234273E-4,-0.005459559832523012,0.08711152399358424,0.1116978217319984,0.13981747736578512,0.3570320207468286
0.11173676061930102,-0.020593917403605964,0.25128269395650055,0.36523080804350805,0.28401212501865103,0.36539881118927126,0.3926976002576591,0.34249059044980695
0.1933747954116118,0.08035060451935633,0.3515686384415193,0.43550589336671214,0.36144153528165357,0.4205120928806948,0.42842589658276864,0.3277138520380105
0.14019500038559857,0.10760073033336626,0.28116106221468706,0.2747538978862131,0.24415787696353944,0.27960754841283286,0.2748024557352042,0.3666514776026372
0.06451115279644229,0.1684300023783797,0.12965084145726813,0.07345246380464013,0.16784194923957516,0.13202623383856815,0.12187046803014176,0.3103223031703161
0.12902379546328022,0.2777689525996961,0.2072767093076614,0.20236116667933943,0.18402231703940441,0.1870497153195586,0.19776167107001139,0.3514137227111961
0.12874490929147311,0.3668565027653035,0.16934335766238523,0.16180799630877046,0.19018496468384757,0.17031561151621374,0.16747595188109657,0.40761887703117494
0.12401624510556034,0.3395289028644221,0.16544622988472216,0.1314625694290807,0.2051906380033589,0.17022577426929314,0.18559188721669873,0.4178034277076444
0.08183002611762721,0.1487047294775639,0.0881738911208815,0.04877276740847673,0.1972207949390717,0.15563036509604722,0.1396865286786124,0.5161290164647545
0.12200553477141542,0.016149601005456433,0.1812103681265435,0.18685402883016441,0.2731058269878193,0.2244113161576994,0.23236100832151538,0.5657031823188028
0.11791087888751993,-0.027938521356587122,0.16348322724231307,0.15482327941864948,0.23793323141049985,0.2176124198355263,0.21689868415129498,0.5323406467863759
0.11548930243107645,0.007828064956940094,0.14344142020940567,0.11601406310919063,0.2170735283186792,0.18736775747169418,0.17489941837754902,0.47751903165904364
0.0837347287357029,0.025310137757086053,0.12222678821170839,0.09305888588760239,0.20849806414358718,0.15919134068325003,0.17212116180066547,0.4846423681473693
0.1416884708157924,0.04092631505769018,0.18361103193518,0.22304520215320417,0.24005903167197565,0.24116315966216564,0.2207525164821827,0.44368837424953317
0.12914223968193947,0.01237166888102723,0.15542079185538515,0.1684437940095634,0.19900527710551533,0.1984054822551498,0.17960495917817348,0.4552601441616035
0.08768728276360596,-9.734391639764827E-4,0.11892092674120183,0.09632477478654893,0.1969937066825595,0.15741618802952415,0.15426655676185871,0.47761643284740873
0.07317581525348348,0.011623581096466903,0.10999094463440641,0.10611281102320955,0.18571873814397338,0.1465201908618963,0.16037568857185144,0.4744438582444727
0.11831393048904576,0.0617708293427118,0.15232033941240247,0.17316199366581306,0.21672354978303138,0.2053672640800191,0.20173321728338015,0.45335083478025995
0.08418338214779232,0.056289606432047244,0.12745239567459526,0.11770325288580115,0.19475241225738427,0.16255365217795298,0.17000543265165693,0.45130600303351454
0.057402856657203793,0.01742287129664362,0.054558545670327446,0.02461103130672589,0.1450387901056296,0.13087785127045595,0.10457015093907249,0.4316560256517569
0.05215119800757322,0.02634304487539076,0.0751002948915659,0.08631449049209255,0.1543775095725622,0.12213238201573261,0.12929942975173847,0.3820509793669463
0.07555581953539743,0.07313020098624344,0.10502224339248445,0.1043486358930777,0.16090608770829284,0.1629669703266435,0.15398415601163212,0.3797721372640455
0.05747221810829679,0.04334761421181062,0.057501492470635754,0.08403184545430767,0.13603362335520452,0.12906489485453534,0.13471443321006313,0.4208700489690295
0.007976471573859494,0.028431682374524175,0.005957494246394303,-0.014621096363849773,0.11696593774571636,0.10066627786589982,0.0840064251697752,0.3496573816551374
0.040663416192080165,0.015908950918748346,0.04394839218993899,0.07209848442838573,0.12416633843783832,0.11184299699044772,0.12113746210917198,0.3564782187932398
0.04426523895470785,0.011849428100732284,0.027693692902585776,0.054428276484268734,0.114903096773475,0.11866675015309762,0.11124766091184397,0.36712929087948226
0.017778758363037248,0.012646401397223549,0.002993579009449446,0.02035930040455172,0.1028078370656326,0.08488649910277922,0.08548664874503785,0.33988137315193906
-0.02123519453960288,-0.014847667392556446,-0.04930614210483329,-0.05287202832579567,0.06321273048834823,0.047388179235497804,0.04557237077513382,0.3048492167524955
0.008885078994262814,0.02471008969564754,0.02018860190318025,0.059370100349672786,0.09910540951212227,0.11304820237568314,0.1018785806400862,0.3077853384612629
-0.010421742302602188,-0.006701465594435925,-0.0044274993328315615,0.017183630234051957,0.08087198300873445,0.08371447547544322,0.08400892165532173,0.3334285235810741
-0.015401221126247158,0.00251146225226506,-0.02483710285531005,-0.009211001417824058,0.06997764675659343,0.05919242813393152,0.06195616098649401,0.28815494561553223
-0.053527049609928865,-0.02863644980054194,-0.08511496506912143,-0.08698342977816617,0.05186285957545797,0.03294343364896286,0.026512756389520553,0.3187175067802061
-0.014595524451114473,-0.01516167804952414,-0.025526466738259857,0.02662600883787245,0.07449845338298543,0.08326160204342907,0.08977785999995938,0.2956455713277274
-0.01873194142795606,-0.017548804726490386,-0.056942130292841876,-0.012820997064341097,0.03939015489260562,0.061872676466816955,0.06987675013972336,0.2722771096636557
-0.041021651654176795,0.007295461455360459,-0.05772049407860478,-0.035941000993896875,0.049568930429408915,0.038837424171637665,0.05139634484258654,0.2682487636419591
-0.0630933819064592,-0.022912557325378887,-0.1055740566251253,-0.11704262121626624,0.029510403170323374,0.0117077179881795,0.010779801138173145,0.30530134876631054
-0.023086609690788594,-0.010715554504956006,-0.04265650839349528,-0.006007926254863878,0.05253781401523323,0.06216646092302708,0.06547851732681807,0.26341851705721503
-0.031668500313047396,-0.029798286002980626,-0.05136114582681519,-0.023089389206890666,0.0234460721710069,0.04446754808594413,0.06524180131326092,0.2615181177122412
-0.04341718198479993,-0.02389555546412143,-0.07516818923631227,-0.05265280580400456,0.034244853315603015,0.028569354505224426,0.023050613630688624,0.2534508383901108
-0.07233736354706267,-0.05148765319899837,-0.12750766582326484,-0.14029025483541613,0.006838325198928508,-0.009482979832974964,-0.007500345875345953,0.23625932491576462
-0.04738552716534908,-0.03417517425166547,-0.08732540189759286,-0.07304380135427675,0.017167522834675777,0.01879925282274177,0.019347687864503724,0.2639613685122632
-0.01932099519623739,-0.009543262022028983,-0.07848499651506263,-0.04440239856374672,0.019813409054325732,0.043246682197253944,0.056309608280338846,0.2326432422717549
-0.038380920673328794,-0.04582087904858316,-0.08547868829183211,-0.06789836400249183,0.012123133981846043,0.02719120445975775,0.014713656591172443,0.2559382048541053
-0.07466028864201182,-0.046450390521672144,-0.13173086894218353,-0.12705064708269587,0.007177062651592849,-0.006267406592443581,-0.022817554527542146,0.23448119127663986
-0.07816726665119014,-0.03340624232750833,-0.13402506398111652,-0.13292650824691374,0.0012922081145841792,-0.0134754847402704,-0.015444903670146233,0.2596636465416672
-0.04812060488490067,-0.006624903405104841,-0.07373081654163666,-0.037806280107353124,0.01755250447145498,0.04174697109571804,0.03689010132326749,0.22294833896973532
-0.048309467480861394,-7.954921644380076E-4,-0.10799806627940985,-0.07178047424043947,0.014703592301681168,0.012685538724675515,0.004200794111105248,0.23163858960803183
-0.058628836434677964,-0.05030931682416293,-0.12888092384819436,-0.11138240177531232,0.009120634510234687,-0.002670111976502074,-0.006599581427778605,0.23177173463929973
-0.08162725453366888,-0.03146861685468427,-0.16101203577811274,-0.17377515300536203,-0.02497473403900227,-0.0324790373743689,-0.03274188948003951,0.209179971632651
-0.02917911930223283,-0.005395818824641796,-0.07627671748845266,-0.04837664666351498,0.007504335999526224,0.027004779043214407,0.02539372952424222,0.21232237171194146
-0.03918324426418786,-0.012187448102598671,-0.09523953265763004,-0.08384107402856467,0.0033586823671918195,0.0012563644532247273,0.015175930065298276,0.24140296701967484
-0.06289085072838255,0.002175317686153469,-0.11986241197825244,-0.1159727769816349,0.012894383803483012,-0.009548102706592353,-0.008486900278149145,0.21676656350226137
-0.08558580372871324,-0.034523969408570374,-0.1583056502073919,-0.18835882297742967,-0.02185759452269114,-0.03213204214011284,-0.04800845629173199,0.17319572312316822
-0.05693497930523616,-0.008281763518487759,-0.11935047941589934,-0.10347136257343184,-5.658021605103643E-4,-0.002677343602485175,-0.010335841602349703,0.2055091338557601
-0.03706982720147482,-0.00327968382944198,-0.07503729892169142,-0.06521957612620426,0.008776718466337393,0.025410118531705005,0.019288704800780234,0.1952995678900547
-0.041555160667155824,-0.01120478611314467,-0.07370431606708018,-0.08737390926599871,0.02443781410981298,0.006848842684714905,-0.00936212463416709,0.20073462303437475
-0.060519275059041575,-0.02099868176774799,-0.11803615324296278,-0.14867469435209651,-0.0073341284011808885,-0.013499686837532951,-0.018372588020325945,0.1941264168172585
-0.07497752396937968,-0.04702296449274951,-0.1305757647509235,-0.15420309141168173,-0.01426706816231191,-0.03145506191327901,-0.051310673655866,0.1878756930198846
-0.03204977644827875,-0.015233595804285,-0.04986635050283161,-0.026203355822343004,0.012524755834556664,0.04424759220577721,0.049676249561639976,0.20268009636260528
-0.035300532480319384,-0.00495581306484099,-0.05984461579790871,-0.05490800097062557,0.015856672202983556,0.019668389726267912,0.02333078196458654,0.1814901889175579
-0.037609815479061795,0.026099803822388197,-0.07914904789991777,-0.08480144604838662,0.02116699137272652,0.0243780646874221,0.016924277585400438,0.17106146014661366
-0.057393772764330726,-0.013064285232967151,-0.13309319640517903,-0.14431779133835232,-0.01710034667880587,-0.023217015912364195,-0.03263165425536077,0.19033025429370187
-0.044434311207821875,-0.01760327301192836,-0.06696980687622624,-0.06411337248049517,0.015701757926924253,0.017833578799370857,0.01139338955492807,0.21049168288681702
-0.02033823380410618,0.02324939436157694,-0.03741343720114598,-0.020954137929542996,0.026799505145947138,0.04683497340805411,0.029831332216046592,0.21887243273132612
-0.030842986283671773,0.014754450114045178,-0.0451615861569296,-0.038573522866446344,0.04232208963220919,0.046695059829438584,0.0216996121262321,0.19027565615938882
-0.04771553638269001,0.0035191523509770016,-0.081479132432174,-0.08285652766620447,0.024719235438561037,0.015120415177405148,-0.008057026344584889,0.1850572421014556
-0.07062508602189198,0.011146841577500302,-0.09277768720487278,-0.12839233596711172,0.00668853100691552,-0.02286114514755956,-0.02358466416911801,0.21107022686667182
-0.02888307630863331,0.04607077275645512,-0.02013992552049853,-0.00913022603415319,0.036623630343800596,0.05414631234726204,0.03836035666924136,0.19399095214994505
-0.020067036309525617,0.039504722506369085,-0.03660838758100204,-0.03311787838583163,0.03266820376792947,0.04195194456425408,0.03803110135936806,0.2240033911209038
-0.03336870663752287,0.015627764453238862,-0.05157523791218245,-0.03457874483350494,0.04573366248520756,0.03451239900426953,0.025784193793090195,0.22675137228411152
-0.0547446575597255,0.003438261325189668,-0.07880193968642318,-0.09371785823570068,0.025308536115807623,-0.009866229580620953,-0.022631482545734133,0.22172604031239618
-0.04231601775076024,0.007171236211649414,-0.048168286729242005,-0.052508604109907986,0.02430178295545664,0.014900210070341533,0.008138677298746093,0.1974325083515215
-0.00675075764595157,0.03134398394739281,-0.023540394893902798,0.006800777045476539,0.0473361350992347,0.0515272103824806,0.0525745498787983,0.18681592926840554
-0.016889431861840425,0.050014668244613626,-0.029200299017294797,-0.011249305809767329,0.03377407392190283,0.056336763022177556,0.05048690742717751,0.18580192624919467
-0.03394994284885766,0.021283920989293922,-0.049322840823839434,-0.05157602669951354,0.026597423975260624,0.025082635365137933,1.2461055911861175E-4,0.18540104867934892
-0.047640210305290434,-0.026625045548299302,-0.07140008224915043,-0.1039744478714978,0.014719518718572619,-0.0024297205893691423,-0.012487998502945744,0.1705950427115422
0.0029041080191249914,0.03614303005531438,0.013302392752572587,0.03263315085942745,0.04950566275132673,0.07198768216624109,0.06708536686230336,0.19220060688376892
-5.709466962205121E-4,0.015497565272387817,0.020776115270052402,0.02936668458163205,0.050015464610529706,0.06527100195997737,0.055242186178775826,0.194857951101693
-0.008528440554064352,0.02589058379147202,-0.003255800806500685,0.012548417596275561,0.044712346489535836,0.06951640035867053,0.05004087690903219,0.22286808073807066
-0.02296445888904177,0.029094380277910666,-0.03654605986747081,-0.04613369341521941,0.02721191106523649,0.031047701267302285,0.019341084127962226,0.21343475854682709
-0.03112007370936823,0.014593852694191023,-0.021228973274094162,-0.026195911960885238,0.036675870263357155,0.03677075145032435,0.04132273440516955,0.1905969530388236
0.02849053799759066,0.01526085876182187,0.047963233035940654,0.09028672077489336,0.07649590742221099,0.10475849664135295,0.10265022981435219,0.20774450895623828
0.027563336913137153,0.10759715606716183,0.044692915563929604,0.07542065406156598,0.08720565396329692,0.10610698262245305,0.0968933600934547,0.19665772891210592
0.007721138024875255,0.04826729718833219,0.025111702870501778,0.03079458632940007,0.053464453478182745,0.08673771184532425,0.07161562741729156,0.21376973773371408
-0.026355459113448273,0.028116738154277746,-0.007768675032448579,-0.024139764331861494,0.029877552134291507,0.04227520655497555,0.023905333505188107,0.22716259712913883
0.014472245756953045,0.026599391535587342,0.035754172423501436,0.06750097782472762,0.0687946454103543,0.09747683857219379,0.06718581913183075,0.19575231820769115
0.030562917470182804,0.05581628060207751,0.06246229249739867,0.08907535019056878,0.07684958529346976,0.1080644378051456,0.11053982613383657,0.16241499728594472
0.031209931558107144,0.056952917350356354,0.05350165795008295,0.09029246361215856,0.07100283821636647,0.11840902962255696,0.09414258997825742,0.20704591174039208
0.005295517183927084,0.01846323741345873,0.025676542586227757,0.029733836774244397,0.05488985380063478,0.0818359465363991,0.05607453468791803,0.21094797841637247
-0.020789253923157645,-0.0066940229538267485,-0.030323960763549287,-0.04045857888904248,0.04647034505291778,0.039434558715596695,0.00481102390884876,0.1879864777225127
0.018618458429991127,0.03360171135489876,0.049034107394539186,0.09548640234257859,0.0748377118567035,0.106347103543043,0.11391763741215571,0.1926773071995963
0.023747962192441317,0.04149375857186758,0.047218330433496866,0.07779068227102696,0.07089298830154177,0.09680562734025848,0.09265678663378307,0.17089448507478572
0.006966402797755739,0.06168530210266036,0.04677574995757045,0.06785320048127719,0.0757082940599941,0.08925120423119258,0.08646257597339944,0.20105927343619182
-0.015375088582886685,0.025798657861897775,0.008519916995873823,-0.009974876084292893,0.0459810755718547,0.0467939939914619,0.03391830607077066,0.1968708109328285
-0.021590795167353165,0.027828263397007832,-0.018096704952773816,-0.019614919465254836,0.026065898838480785,0.03619308589119041,0.027091924555137176,0.17731901277542617
0.026486271654094718,0.04980587141732229,0.07648353161676015,0.10361460496643593,0.07074936877266064,0.12127935880669626,0.12304944684016862,0.20851174970262268
0.007364829835312841,0.04355120251677705,0.06354066536081968,0.0922004813872033,0.07968027685634278,0.09793191866030083,0.08543533611530879,0.1999711732293887
0.013476635190143553,0.050668260957700946,0.05070421762738707,0.06851395682107257,0.06470785241924092,0.09057825648216875,0.0848317388540114,0.2341737112284542
-0.01965734765423145,0.0332991942786451,-0.012058287893276409,-0.01507867619121093,0.04331301737590078,0.05183230054324629,0.031920509399291495,0.19553593539184183
-0.022261267293022913,0.06861333009049372,0.0024023687232455336,0.018646290977730184,0.03805106974606361,0.05868300760526336,0.038587955257284486,0.16293235371554976
0.037201564168723604,0.06586985892111476,0.08111395795678458,0.12336637248778463,0.0813083687493677,0.13396424100735052,0.12145773244543269,0.1795061787486883
0.03937070532133384,0.06551024080015096,0.08556958184169636,0.10701648518935884,0.06501494614361376,0.11124105966919762,0.08085560381535564,0.19353206457372235
0.009302975939943468,0.07092233343348774,0.04452453753107295,0.08091588589857499,0.051590700651782305,0.10080230554562201,0.08515156324084204,0.2237512239687916
-0.007875256982970502,0.049016354035742844,-0.006513071175478135,-3.138461493780167E-5,0.047552932820185204,0.058363024345350005,0.04014222419704501,0.1653765071018632
-0.005604264079870559,0.033752614962724976,0.01516254989845967,0.041023038384652266,0.06196311328535329,0.06816885258790169,0.0800749736556907,0.21576386184532995
0.04594514896581623,0.04258672464699028,0.08514717495722533,0.13363921313601146,0.092679215060451,0.13490341620603263,0.14090213268362822,0.1907047468213255
0.028917473705900608,0.05954584677125442,0.07307561259988901,0.09789985103582878,0.0888771443998711,0.11977588674729724,0.11405804296039926,0.17303600893706658
0.01392407442152437,0.030668560512027366,0.04360083411592514,0.05719300868861779,0.06175987915712969,0.08611313055507672,0.08711135510634554,0.16111422479786522
-0.03860255974750144,-0.006950106400962322,-0.014641390744836455,-0.009224194681559637,0.03874962892910012,0.04881461837135866,0.05315114835579607,0.16745902797671297
-0.00672217481711403,0.013223989955636097,0.022244908714515416,0.04644592615621613,0.04565628479802511,0.08035794333344469,0.06223839313465039,0.1748909843065249
0.025154011644165156,0.06220797083594943,0.0752404488884694,0.11625046195751954,0.058047263162139526,0.1155430871371474,0.1134106548295472,0.16407063615476908
0.027885866276492075,0.0790861711201892,0.050344400054844377,0.0880686099409629,0.0700932484689783,0.10091195479197558,0.08459436539624524,0.19463275039505037
-0.019370065917734026,0.033660218192265105,0.01169668428836669,0.022679117221341052,0.04848816489922296,0.06482255715934385,0.07892797143148825,0.20722326417324444
-0.04693386175824997,0.037221466405029165,-0.04462821825449727,-0.04184613103260915,0.02668298384867249,0.023720284361287074,0.01597340131667457,0.1845264713748462
-0.02643143174627943,0.04405464838233888,0.0022725630226550367,0.023144099038238324,0.034813717598569605,0.0637033405272429,0.06660819195843315,0.18619342114679968
0.002189694934214766,0.05731200830735031,0.041844776966539335,0.06773940480349172,0.06421965035461913,0.09219345377402505,0.10882143490332537,0.18391540918783505
0.0018366149279906855,0.038880238564352444,0.031146098519216393,0.0496867777110827,0.05816775797602144,0.08817634959144958,0.0773484587471149,0.1915860032039476
-0.026390597494349025,0.04639553288760063,-0.016549078903825377,-0.010117717538073173,0.03963119890928125,0.05644942513554748,0.04350472149421533,0.19081497432380123
-0.05404020213139245,-0.027939477049797958,-0.07169410417283732,-0.06858147642396768,0.010374029124713309,0.026423656241914093,0.020268246849870424,0.15494587945042393
-0.010909121423548015,0.04373381464080577,0.02716274923048812,0.05671397792456203,0.046364335472165376,0.10537313096683132,0.10092540703387314,0.18296621913975217
-0.004273979081624,0.04676185130872682,0.01474951223799737,0.0374183328278734,0.04773688285904955,0.07400173111004708,0.05835974548137771,0.19818757068330858
-0.009596317975672397,0.03322429643163616,-0.0017829910496687598,0.015062862467800208,0.05108709209980735,0.07064716164781225,0.06743916846396608,0.1689639455256752
-0.04758073376840358,0.004864690602746222,-0.05651885984281058,-0.05743770936962538,0.0189528326746395,0.022378867237844758,0.020497574352737608,0.15279816716702238
-0.03948769348150317,0.027464792085845558,-0.032612207520989304,-0.02060940860920765,0.022873502297142932,0.042224653764747065,0.038055802220156115,0.16397482842357586
0.011890768253847413,0.0438367975572157,0.041992104218421214,0.07213489882665804,0.06311833280689945,0.10552202820944183,0.12267206628010727,0.17470030071978535
-0.005875843540458571,0.04705737092561958,0.038703219235650226,0.0646293733083972,0.067233529957234,0.10292370812985556,0.10846916476701601,0.1648436962809576
0.002207823842690982,0.014795533593468297,0.021580237563271248,0.034763281615009474,0.047499916401191535,0.07775406374836209,0.08775263555528001,0.19465594496578345
-0.029392570893509218,-0.007457895281494709,-0.05072621325993962,-0.036317855364328314,0.028721067551631743,0.056537175316148505,0.061835878050207974,0.1746372051824325
0.01036253213655074,0.03485264105933505,0.059315067113219266,0.11016357248433188,0.07473937792609839,0.12767474656109906,0.13412818775258487,0.19874179965683622
0.04380044657105239,0.07619917536683807,0.0722549419685939,0.10939845793672516,0.10423614819266368,0.14069384084283726,0.15407403944956702,0.22280267168906398
0.02262947823099901,0.05257571362817533,0.06424960201943904,0.10926690115165703,0.06760563848486126,0.13403588981025685,0.15681839884864213,0.23358443807395227
0.015202747139913956,0.03937539676757074,0.033022802213016386,0.04137480013329731,0.05636492426998787,0.10120369115745324,0.12261624819591185,0.17944062636134403
-0.007480222225420593,0.03440263133273621,0.012512152611944827,0.04074817576955629,0.05636860704654584,0.08377780722574107,0.0965739030732347,0.16572044811134767
0.03746140819317881,0.06534058701820464,0.08816492642149985,0.14806054623591172,0.1038043468017902,0.16093625191201608,0.18093086892037427,0.18233417588859577
0.025962829536879485,0.04646074284449993,0.08243548805606674,0.1357438713174108,0.08995191073381252,0.14418836220944298,0.16178914337401318,0.1993235498865906
0.02462966801209176,0.0693187872222371,0.06936430072456774,0.11007936405457762,0.09130904472674874,0.13589260143541768,0.1363879387070221,0.22351675283804995
-0.009051731055744736,0.012460151335189707,0.03377589803311742,0.03285336499850484,0.0670178149856125,0.09576097553330246,0.10216690225328404,0.19957571677606128
0.02108425720780987,0.05007389722022756,0.07369733661861798,0.10172795353706135,0.08324194404750436,0.13833147483488142,0.14680173650083775,0.18768082306725517
0.03851214361890894,0.10187297549022357,0.08251145681718772,0.15610280839460264,0.08574653415105953,0.13397071906495536,0.16117385184459734,0.1525291262180659
0.036850258176208815,0.0665007536705253,0.09342987926791375,0.13841905442608232,0.07870086593561286,0.1433218975843026,0.14151772584703046,0.15436221515977278
0.014017932721690277,0.10171043959110602,0.02895451897643944,0.07532565092917694,0.0643059742776289,0.10562732984400691,0.09511907011631655,0.08585703099440128
-0.006734640371924535,0.08604005209244801,0.0317400074542272,0.055136373497348984,0.05875053306107153,0.08702944343320478,0.07600933316526794,0.10617045909211258
0.048475631255639404,0.10542950298800925,0.11113870303828452,0.17683089003235167,0.09922391737623976,0.15654674735414642,0.17512108698872642,0.0835988717495721
0.04978992848103618,0.07786600504711143,0.11869930978505012,0.17403469948770683,0.08667124147671891,0.15466147801995433,0.17348658896379177,0.1559466722854821
0.03791777939853729,0.019715914932366397,0.09174704272641873,0.14627619751471574,0.08509856176489676,0.1528788826437878,0.13402168195388928,0.16824588285179623
-9.671657205795768E-4,0.037773271331913015,0.02699046145710869,0.06680183983555313,0.09228472706457788,0.10144436295184679,0.10973552511732905,0.19856420052490256
0.028710223516409415,0.05533336017798696,0.0786130876084789,0.15592177307452645,0.10211270138847248,0.1593172194303089,0.17376370319848217,0.17341964417858502
0.044152256885536346,0.050528660326596725,0.11606408595089704,0.18278692318882556,0.10774190494377586,0.19137241166493915,0.1919922026716423,0.1610030373930718
0.04061597920103115,0.06680478799414125,0.11378665806157208,0.1600401696226559,0.11295245134091232,0.15764402932838179,0.17981620383616692,0.20387467200620393
0.0113706119913508,-0.00549154280450054,0.05026337012940748,0.09487891485148776,0.06640389792593536,0.1307851753827089,0.1227709257593998,0.1716081140750515
-0.01031659608864054,0.012969003421260197,0.03367180577473182,0.08168970174870811,0.0489013217232423,0.09089901143070309,0.08717883321851455,0.10537149589235774
0.0607393607973323,0.02925784495384954,0.1389489092237211,0.1928188304902565,0.08721828496397425,0.17682579513133043,0.18083671979582827,0.13361274335989234
0.052044998842866876,-0.048125191899904676,0.11777632160944719,0.1834473851739872,0.09406356806736878,0.1602989995507935,0.1788746863303125,0.11070631058306458
0.02875062186625282,-0.09341796330862594,0.06915135828511891,0.13264317296484268,0.08872915014954286,0.15277737711877384,0.158462459937895,0.14759858464995823
-0.01927311203679538,-0.13424816976019285,0.026361591440197427,0.05895207504400275,0.07420130183876474,0.11774341205789479,0.13399352853516325,0.17021913529911148
0.00296862415083188,-0.1441257524667545,0.06637289185386519,0.12071998653962049,0.09707064288800125,0.13747028001359723,0.1414290405479044,0.2188727981267698
0.02232759671775888,-0.16855599233682134,0.10587566949244584,0.17093363950263463,0.10623896762864632,0.1739238727555903,0.18810824967250625,0.18318474722315006
0.017445982713516515,-0.1109657339209705,0.10097413094827003,0.15489403855641393,0.08590577179111966,0.15869039103548843,0.17416875000313078,0.158434004382812
-0.005823971249451863,-0.11612767146749761,0.05879507996104908,0.07775941407283463,0.08231206455797054,0.12352298146985273,0.10890718440105093,0.1424752821770831
-0.03495012863698659,-0.07676548991299639,0.016195659523607544,0.03772967729392189,0.05508318671020447,0.08159409855548545,0.06873993504653904,0.1321534142486939
0.049091074217679796,-0.06559168869069082,0.11888804037520607,0.18496822933073875,0.09613778752025437,0.16042237047928942,0.16150529031692615,0.13459724700213468
0.04165689039449478,-0.07283751776866264,0.11699328995666247,0.17405137939189283,0.07890972774767967,0.1690325329237266,0.18000417260764676,0.15884347491889272
0.01408611020231131,-0.07325339867178134,0.07837076464561195,0.1266460551843803,0.09444907578980434,0.14973049473779243,0.1416040370730405,0.12972706234536738
-0.019023201820606465,-0.09256576251751632,0.03386405409168806,0.05744904956420533,0.05536078729166472,0.10457482091142672,0.07940936777149307,0.12244849573851174
-0.03207945806809214,-0.10596113659203944,0.02343755140010291,0.025437387306627646,0.06453070390285912,0.08640006868778051,0.06937729763189023,0.1242100286396629
0.03514424516516674,-0.10389278392677091,0.11712699287358731,0.18678643741629022,0.09861433392544593,0.15642171513342124,0.16488394672321527,0.12543463281266745
0.02644999847591181,-0.08590239584678373,0.10067019796737067,0.16617904496691013,0.08562139128089331,0.15780145800355183,0.14346772551867246,0.09505808659156909
0.003952077550316481,-0.09459865581861329,0.07530247463326617,0.1233627882608375,0.05749546101937821,0.12736468668496548,0.14409516164189184,0.08803687829858985
-0.03944800589440726,-0.11858104226060104,0.03176882520738983,0.019839375681546995,0.06133611581737264,0.0726500101171426,0.07250652322698631,0.10373634491679928
-0.04504190520789724,-0.15715431388105558,-0.0030026761957142084,0.00330909342198843,0.02721043775884227,0.05226931381198865,0.0538213849037258,0.1188977128446212
0.01831679488294629,-0.09100845528762598,0.0905382646857892,0.16284386298062148,0.07104429253116143,0.14619685664802629,0.15802020678341494,0.13771865564635302
0.006325726045121086,-0.10742223934473209,0.0971491995643811,0.13363639218335785,0.06493109175273037,0.12456863596803446,0.13610398596266798,0.11028246385579696
-0.022304635989274114,-0.11797399933283054,0.04389495148264869,0.08375835560835188,0.050341463260301686,0.11602107400241894,0.0991778677888119,0.1102359912174151
-0.054524630671245876,-0.13323873418644488,-0.011318514809837388,0.001516468252465269,0.03618322343283904,0.057189559346073164,0.03557058085708364,0.10090584576109311
-0.07595727967239407,-0.1638235230381993,-0.04275122496465617,-0.049484029206447205,0.01932779030834379,0.01092762426709836,0.020326397633437226,0.06737490017240265
-0.028408769286775725,-0.11597879063380787,0.05103568854965117,0.08696436158181438,0.05909430186555032,0.11338961826238445,0.1110083321465468,0.11445617378489442
-0.027796233950121894,-0.11528335145096655,0.05553525292692658,0.08016497487971895,0.04236248397035828,0.09498611448656738,0.09989194511646653,0.103177002360867
-0.014183849250673439,-0.1381220259856632,0.015629440508011225,0.05266509430745026,0.06210953073051701,0.08259089121352177,0.06545574745327994,0.11717716587812153
-0.05305953568885741,-0.13129316102727917,-0.03684856510194512,-0.030879073906285578,0.0031594491451001918,0.02093657680821844,0.020252566747772267,0.10055159621906641
-0.08480529723468588,-0.148565948512321,-0.07321850587832307,-0.08305058811024252,-0.0026978502097719905,-0.007579401518085089,-0.01931571451330853,0.06264589479189635
-0.02731186516290076,-0.12534856130102606,0.00816632843093207,0.05915263054757184,0.02832858516237287,0.0761891096021145,0.06989863337693479,0.10466155307996206
-0.04235831347007315,-0.12384702734401656,0.009379731338551535,0.04410139424021582,0.02131846752082149,0.06316898112166916,0.05399471920103486,0.10474769338532716
-0.05281981682165709,-0.11944554531871647,-0.006709322033359362,0.01629574049901465,0.006644549072809183,0.05405667591972331,0.028664077990079934,0.08562609163184753
-0.09181804671366858,-0.1573813975145178,-0.06102267109204823,-0.08304857957964754,0.005601310393678456,-0.009414597476471514,-0.025826699579440976,0.07054377644579883
-0.10468694151624387,-0.17108808022618133,-0.07798292928988634,-0.10540231112820084,-0.03154102695939404,-0.01861274038937556,-0.046031879183028895,0.047110220130327105
-0.051092195083523514,-0.13389026024703718,0.005636107037273579,0.04438105585981362,0.015396731730900686,0.0704898547767632,0.035869519675419737,0.08931569476611856
-0.04495001529975998,-0.13524875630615193,-0.002640046974334922,0.015665794357392664,0.009937159029626675,0.04831344285658085,0.024211718020338054,0.04656827205187574
-0.06096619597284167,-0.15060942496070778,-0.016382890556684633,-0.023201949047124328,0.011644079123867003,0.036017991475586666,0.007552764483759948,0.07024496797657545
-0.10922298988240141,-0.17884812574011585,-0.09288101225666082,-0.11255414104870377,-0.013868229337255903,-0.014087434310897018,-0.03235628177910028,0.0414230759996031
-0.09441644418896358,-0.1701154588825036,-0.09703891273570893,-0.08778403097524819,-0.024553041571625207,-0.00887937815698655,-0.01926218329676601,0.009607495933265065
-0.03873322375231664,-0.13880899915615594,0.002374590166412375,0.03057748164503699,0.008334510081554745,0.051193514219857565,0.05454907563608684,0.07144587759536566
-0.05792012683396974,-0.16015151174435385,-0.022705789542864837,-0.0035535021761959125,0.011573288777567184,0.04163122858391201,0.04557721958207217,0.08126794904314623
-0.07607456096520897,-0.14687200889051116,-0.055583844196291074,-0.04324353643361211,0.003600959301728459,0.024746716746431453,-0.0055424696441936155,0.06383721560625936
-0.11159762314791268,-0.19353960131091996,-0.11002838001266757,-0.12851173200539406,-0.03933090389232065,-0.0198862456675634,-0.04282933005383121,0.033952396237183005
-0.08533150766123536,-0.1532616028554717,-0.06691080638908554,-0.059441802996883765,-4.259341906169159E-4,0.02232240967603514,0.007197580713315122,0.051388613296779656
-0.07088913230807847,-0.13053311491968128,-0.022868459878843006,0.003062158456074722,0.016324913236940717,0.04406781341809964,0.0478286940964805,0.07573002924017053
-0.07402345314643378,-0.15078414889221378,-0.019974228215647066,-0.015843311304610214,0.013049525866802691,0.04692259948199055,0.036327787027978606,0.10147729086900971
-0.0989264000485501,-0.19314017655385757,-0.08623501789391286,-0.08915062635835726,-0.010364658188967297,0.0075498635032566815,0.0010376952151879939,0.05038738164305665
-0.12423580102168504,-0.18377313182830635,-0.10826923820122795,-0.12698454089277045,-0.017503214404389292,-0.026399242725721674,-0.04520536799051496,0.07634874056178478
-0.058698971716972755,-0.12179094601766105,-0.022544814204672834,0.022833486584198183,0.03248727221339177,0.06515073053279284,0.054633364618945045,0.09767713822672462
-0.05528645435691574,-0.12711451144982724,-0.003141355470385921,0.010373323454163152,0.018577125330116705,0.06720339589424175,0.047769469993114495,0.07111255369403796
-0.05923966784818488,-0.14278762704027426,-0.0362860480740819,-0.01671974190280355,0.011073315462829357,0.05190448460215708,0.040334563868812595,0.08272089141289322
-0.09426233807569281,-0.14908756274094184,-0.09582686496862991,-0.09760667771893353,-0.012631543156856417,0.010378980964974164,-0.010896651376095941,0.04900716977287776
-0.08609881686638758,-0.11716023516478806,-0.05662126943233905,-0.03952106627850711,0.008981378085511364,0.019500102894994542,0.0222662337070325,0.05567489893307411
-0.031952726106076766,-0.12579638835278764,0.005881918384627279,0.0498222190054042,0.023958983228919605,0.0938875571551176,0.08508915995090809,0.08841775076093372
-0.048358196055509554,-0.12422988198076138,-9.753539620631885E-4,0.019858240612272274,0.0129790296808934,0.07633626268051896,0.06405915257648997,0.08095787076630022
-0.06645980206837943,-0.17015282314795832,-0.03633068927089564,-0.029963379716030865,0.02124975467400103,0.055201257803383925,0.048556758502184785,0.07907415057185396
-0.10462983831128238,-0.16754105372955952,-0.09085200304602896,-0.08016785771566184,-0.0021167382767507716,0.015684099524493563,0.012319711212592196,0.05775868603211825
-0.039181250975419656,-0.11542138501243895,0.018229359103632204,0.055740620827407036,0.03057430753542909,0.08657499251781318,0.0909102981844213,0.054914452278903014
-0.033752683111587856,-0.14482525449633804,0.02112189934007998,0.060900529019141794,0.022395768729058557,0.09475284556802378,0.0817340958511103,0.10038361704968266
-0.04855664204915779,-0.15955100877921138,0.014830362001580893,0.03232019919668281,0.026641357077271974,0.08350417911340591,0.09003806809303241,0.10579417714893699
-0.07968402485713905,-0.17929133368904268,-0.048405749016428835,-0.03482331165661835,0.02514276159891822,0.055892931060278456,0.03777965633221357,0.1639308573272791
-0.06307969671130208,-0.07099717924015883,-0.022523176443456156,0.007864590713737707,0.04234607151828532,0.06833036155555414,0.05637786972845762,0.21515965676191573
-0.008577676985052983,0.011748383680609762,0.05499535016892154,0.09934765333386683,0.07354228666974107,0.12999560988721387,0.13319837302599663,0.2002132305293334
-0.00514840344250115,0.00814048094208495,0.04313498283086255,0.08577777452699736,0.08637494760141035,0.13272117546392206,0.13178154992602203,0.25154484764527957
-0.029431949501898244,-0.03539097886275191,0.00317586554650366,0.02606280702901656,0.06528751587241188,0.1059715092447607,0.08831985266890385,0.23053703418019306
-0.05946698050626185,0.02666476643861824,-0.030871108089269635,-0.03096914288329772,0.04221650314000091,0.06673522577127035,0.06943498690965356,0.24082541344477393
0.017033337712751787,0.12993029656366176,0.07188977854909395,0.12937663279638878,0.07593365224494893,0.14151207960865164,0.14806004257112113,0.21796838357306364
0.009722166141444697,0.07658513624435669,0.05016666850541692,0.11068900280172629,0.055410382903312974,0.14000162715437695,0.12800848729420997,0.2058498616693789
-0.02058717271081102,-0.007674797078449893,0.034780886791340275,0.07147825969281385,0.07544673012496299,0.12772640288924028,0.14784022947533895,0.20245785440218014
-0.05676739612217778,-0.00921717895209055,-0.011680943399477119,-0.022871365510894408,0.03215158375999178,0.07630848784819172,0.07605331949144913,0.1607561734866285
-0.017568678467891462,-0.007058733013743565,0.022477245291808962,0.08840886253821359,0.06599776434480221,0.1273578511600366,0.114889858212691,0.20141401442566467
0.008653079540425497,-0.07054699777444054,0.07819598066730941,0.138669804092901,0.09304515596157546,0.1745522545190173,0.1795101826602688,0.2477219069064433
-0.02916394299826571,-0.20874752527564938,0.045970802289632066,0.10364151038758203,0.11487222059059157,0.17932061434195967,0.192469705368831,0.41705313674646916
-0.05811444430829607,-0.27846876123063785,0.006046396785681769,0.03158605894397664,0.10239026737560045,0.16875220326252266,0.16722708941486808,0.4689615834438006
-0.06013234165889329,-0.3454242127291575,0.009183755803904533,0.023813021135083195,0.13064209374752567,0.1578019531937011,0.16770279201489174,0.6267485895725189
-0.019216291161173203,-0.4298915185180945,0.07389765905549449,0.1418930855987545,0.20727172039686126,0.25233542245758833,0.26398706016245027,0.782123923803199
-0.03440342726974127,-0.4912239052047527,0.05102752677653955,0.10674981102871349,0.19986971457321948,0.23429269510777184,0.25177758846338566,0.8215922643720039
-0.055684260135183676,-0.5192586836896205,0.014330305251775819,0.06330861051045517,0.19913125643887877,0.2149005463653823,0.2337989762222549,0.857795517360468
-0.08445333694010786,-0.48811753024467003,-0.04213654122901144,-0.021131151320064774,0.16038414854259453,0.16930108371890434,0.1505608330777422,0.7826207184624692
-0.045557608725320206,-0.4090876255902666,0.057516186260422764,0.09333405806710918,0.17281423479107483,0.2224804882917539,0.21784967150808157,0.6707108832028016
-0.035589635284324,-0.26663503101266883,0.04886773158482519,0.09635897919020182,0.12982568520927532,0.19817225412032596,0.19610727496167335,0.5149471369017868
-0.028393004098764413,-0.20213343456455846,0.021022122696148206,0.07334977340555811,0.1260696250501058,0.1748198225842834,0.1600711888805007,0.39906606722118637
-0.05118146410460051,-0.11419507330674153,-0.01622156213084267,0.0015849930170998992,0.06601277375092092,0.1045435543760295,0.10707444359944099,0.28285538132627863
-0.042500732139996805,-0.0542553116046211,0.026131466176454704,0.056409090206255105,0.06303879830072544,0.1131228405020054,0.11622247926520075,0.2617031972224801
-0.012692268758446661,-0.009279896751383673,0.04838925667167787,0.08983406254131286,0.07912398113463104,0.1382593400361108,0.15924278566401961,0.21323252307026772
-0.018878323253496098,-0.0290751119078415,0.02821494682839174,0.07423552745924294,0.07127533380880066,0.11541555239657568,0.14145524584400315,0.1814446118152358
-0.046994303140743765,-0.05769340050492549,-0.001926099539515609,0.007560994147875263,0.05927043045280661,0.10863649890056336,0.10912313199202522,0.2376247645170934
-0.05063179688620666,-0.04584152159547214,0.005158710550192993,0.027916320011260036,0.06692449865778581,0.10893399770564624,0.1167771108488433,0.21379943144404873
0.00978240183789255,0.021152258310222757,0.10317299320021447,0.15067334217711567,0.11471972902315794,0.19453599593475232,0.1994671588123843,0.21675916710939694
0.014606082522332113,0.028175374340282302,0.07349098764169318,0.10967810809668765,0.11102531278114455,0.17624464848746618,0.1823200296517537,0.21569346580177082
-0.006512164780797391,-0.02538995814566195,0.03545203498467746,0.05314973025516956,0.07697395958223838,0.15697342943420708,0.1494485307098353,0.20223555763559947
-0.04127003394427673,-0.024936960447439604,0.032180632256527064,0.03380135343768667,0.07703165190795036,0.14030845014321805,0.13652644974906464,0.24886931562156528
0.015510442742947132,-0.03258510545764557,0.09971545908392046,0.14437335369755475,0.12174231339279404,0.19914369899804857,0.2166815947224516,0.24479016376956897
-0.0064657502094464265,-0.030592251303230615,0.08829993463149115,0.11377484638005385,0.09709265785813347,0.18012334393018187,0.18776791165744688,0.24156650179453668
-0.02674130252997979,-0.046306577220029774,0.05007264784853141,0.07328472040568766,0.09118304936609076,0.15561008294511375,0.16771137199299335,0.22280212989324352
-0.03216479542795185,-0.06275563184667793,0.018843198521246187,0.03290371364336996,0.09092209392040213,0.1256363191787909,0.13313640460633488,0.25256441139246383
0.026865675440968434,-0.016800550071801916,0.10584557730094483,0.17336361552712298,0.11132455222357591,0.21915077388307277,0.20486656513409318,0.22037682194035743
0.005791278701949929,-0.007292891523200107,0.08362900484693529,0.13879025755606014,0.10566348975968268,0.20340279928739632,0.21032258692624345,0.27137747154565367
-0.011005428063917631,0.01972952108299619,0.08492035547719382,0.09942234086677915,0.10460033090180386,0.17533383009177894,0.18933730923185974,0.2949947945003715
-0.02228933485616486,0.00222710876574077,0.051011113138699854,0.06563353858805343,0.10261252338858398,0.1457719619519791,0.14296713128045532,0.2512233056048462
0.024548770453421617,0.05154273506521064,0.14959245766950327,0.19262806965610513,0.1414470456909855,0.2211880288765546,0.23703528002255053,0.29177954528738403
0.028130925538399357,0.024402089629696314,0.1292672074169542,0.16509178518853565,0.1375803143673874,0.2136679800431128,0.2226385265185428,0.27877901733130855
0.0016062341933709018,0.05278346456736348,0.08180705914386932,0.11208834462346155,0.11422245580887462,0.18803146443603727,0.19058053738077702,0.2717561463602799
-0.0013901999815156623,0.0258740022310536,0.04991596538771219,0.08564086423260979,0.08633505460165458,0.15354888107780873,0.17431108150014415,0.2607265911426682
0.033518069997429005,0.05065781865677811,0.14293991007913737,0.1786231506748986,0.1296312656449672,0.22336929033766634,0.2465927833796924,0.25483342667881104
0.024804719540283217,0.02871868946528874,0.12099121692193897,0.17025861880223755,0.1328164399911394,0.1987354697745347,0.2251676581287492,0.2403616182432915
7.65621411556575E-4,0.04186802113143244,0.08097739588713426,0.09798534874734403,0.09915795552417368,0.16960467632190074,0.1742222369401052,0.2634910127342765
-0.010840868646887398,0.035113519479207815,0.04508636300495972,0.06419622576153738,0.09231414939457164,0.12118832495657049,0.1575851635128215,0.276274747659568
0.02546665431263345,0.029750523137848286,0.12320337119460226,0.16823977116144245,0.11636808174693766,0.20177419473876235,0.2251854642710271,0.275296600890401
0.011886553188389175,0.01807139076846749,0.1088174811499251,0.14063530386704937,0.10611647272529018,0.18885478720079452,0.19773959538171157,0.22837654043218025
-0.00891992887762218,0.012767927999326228,0.06066206270854449,0.08447418139515117,0.09217649037998933,0.1514098031656847,0.15973347534565102,0.264642188714075
-0.04473600275341118,0.03284782987273278,0.025247757737637752,0.025471279588975954,0.08095704175969155,0.12073294518225397,0.1146800739388117,0.2567399439326083
0.027945913186362168,0.06426981637514771,0.13179647533570912,0.16422812557174724,0.1135948574024783,0.20235186548552986,0.21915158035104607,0.2607357248757134
0.01783001930078981,0.04536018506460712,0.1105464465715229,0.1375447620663108,0.09720834010836178,0.16083033340963243,0.20012899204773624,0.2103326936737125
0.0061557582623408096,0.023102359549037704,0.07085186433927734,0.10256479697266135,0.10277120953434571,0.14631408915435182,0.17994270472244056,0.2501383471011732
-0.034066719511434834,0.006305522788705239,-0.007761620746655637,0.003253180253618016,0.08110263009274803,0.11264736754582465,0.12506671949880424,0.21156267309228477
-0.021074226218570382,0.020722650211279687,0.045259369790722495,0.05162760300700841,0.0801246730470361,0.13662916069405276,0.15538728517238012,0.22526823153207864
0.021530861149529564,0.06761051137430606,0.11064711293514261,0.13610050018612396,0.10900835063150287,0.17853728373186661,0.18994359002995923,0.21863192768728196
0.013795468997585736,0.032469391108487414,0.08629290436936105,0.11352286398521813,0.08368017793868719,0.15177750036705823,0.17416939737522155,0.19525661401139074
-0.02974145553111934,0.01772064114037298,0.03234073357484688,0.02221099146926439,0.04953943748289296,0.09924278713962158,0.12290031856642454,0.19298290721972827
-0.05377999048589004,-0.007501264406040875,-0.022508553496843685,-0.07062768930638987,0.032622602746897565,0.04207336784925016,0.06172659800324813,0.17719071933207747
-0.035705408238139384,0.05789412873025868,0.04752964557214712,0.05961908462526141,0.043068080736584115,0.09749831437412007,0.12707255650955082,0.1534451627843372
-0.004229787946122975,0.024578063095966076,0.06674462821210075,0.08218937919638199,0.07923620008980731,0.11896113934667343,0.13136496701740483,0.1609325623638324
-0.01816183415748318,0.038232499082144815,0.022520531634107697,0.04844177316474571,0.055842251448896006,0.11036187622363713,0.09003986045051417,0.17443000608649084
-0.04988907681405858,-0.013292658115024933,-0.029130074754401325,-0.03865298855340852,0.021154073661559695,0.06065527132819496,0.07717293691747029,0.19706918596250975
-0.08504888613377386,-0.021072070782563224,-0.06314573410674973,-0.10800555483525907,0.007049899079561805,0.018669200293882637,0.02390086055906179,0.1479921892855603
-0.049916409567515085,0.016980849952156884,0.0039170763152998715,0.015305914156138242,0.042198609759843624,0.08017426004655943,0.08814012426840237,0.1429769324970043
-0.049262201717506796,0.008281594027665483,0.0201793373323689,0.013319704422428826,0.0471474145611479,0.06987129489678828,0.08000550878214284,0.12398065441164444
-0.047638753203746186,-0.015859165643624554,-0.007611507270757467,-0.03150372933429837,0.02406580593635974,0.058952240616018524,0.05489769508270427,0.14483661010116206
-0.08434238033111453,-0.04437433048633674,-0.0807382609375968,-0.11592702489283072,7.037456570410962E-4,0.00788032999683506,0.010585267056268133,0.13680106764294597
-0.11400052051354093,-0.03758932770044074,-0.12068879118683971,-0.16193176750611402,-0.005532693948204039,-0.03746896304964947,-0.024583830753842024,0.07312855514302814
-0.06321876754376875,-0.03239822889347359,-0.025919868968366754,-0.017010028862302535,0.009777900579989446,0.031031386043284363,0.05057938587840732,0.10836665991435247
-0.07827438055474588,-0.00980592492354759,-0.03026389032004553,-0.04212564916936338,0.001160166177337315,0.013495645006601695,0.027195418351894127,0.10330922265057264
-0.07282653036856587,-0.053171335321919366,-0.054085258484784016,-0.07945781565296577,-0.0037810659453678336,0.004217249379570106,0.020606769543112524,0.11039250260942679
-0.11933840411557563,-0.03377988697153431,-0.12412391016061243,-0.1635062887136359,-0.02150144239064909,-0.04217867660711407,-0.040296861683729396,0.12058737935970959
-0.12674891040283573,-0.04032772855921546,-0.12014758701460486,-0.16609626635185135,-0.03964366312000903,-0.04476604283215176,-0.044270022243312904,0.07914696783718725
-0.07597892130763141,0.023384551591753955,-0.03247374516223488,-0.03827410001273572,0.0026391642844409823,0.02287330480787893,0.022827796282932127,0.09707408878455906
-0.07753473898697098,-0.0216656331427576,-0.04422752134190832,-0.05846502157213735,-0.0013996821736984497,0.009057807697068706,0.01644972394143173,0.11607727124524868
-0.09124971301391493,-0.02524586434299592,-0.08168305432210536,-0.10480053452973162,-0.009317625327284933,-0.017231691892406278,-0.03401480561394678,0.11912103105282913
-0.12416227648663923,-0.04801329910119863,-0.14472815741542078,-0.19486640654261855,-0.043939523143570344,-0.0596770054175579,-0.07105671526331302,0.08502765522313269
-0.1078940362938316,-0.031116696582348318,-0.10411375029601598,-0.13657061413770896,-0.013676892666667169,-0.04087479773552425,-0.03961017312776756,0.10357494629739322
-0.07515582618163882,-0.011358414108963247,-0.052334621778907846,-0.05950454843007693,-0.015055712307517828,0.004699861385756989,-0.0021904161603216684,0.0907167617025837
-0.07854324599616758,-0.047399145117870675,-0.06410152580287605,-0.07846779937647662,-0.016210718280370247,-0.017614020124586564,-0.007677442658277394,0.11961117058871919
-0.10040653099405328,-0.05025271359358685,-0.10313889944867484,-0.1326884488459648,-0.022694615499793996,-0.03946455434035894,-0.04728402295162348,0.0949302306606085
-0.12948544606034348,-0.06806884886718832,-0.14452855220580296,-0.21366895706593753,-0.04997094908764388,-0.0878666444196734,-0.08955726855951929,0.05356990337140707
-0.08910584684986772,-0.025782655698310335,-0.08421611557871193,-0.09633078095808442,-0.026292594372987935,-0.02148365299353953,-0.020271294124468427,0.08895157837309092
-0.07658051243679832,-0.04463019417019877,-0.07087535250231093,-0.09526139318742827,-0.01908683521094066,-0.02478671796591943,-0.022649714911303163,0.0779705802952726
-0.10712826995082027,-0.040313331521948756,-0.08223763674240368,-0.10850684637879876,-0.016131073982930993,-0.032568326621933374,-0.040607638735282385,0.08719801775602695
-0.1359114834616903,-0.045154465816934206,-0.14061616480559389,-0.2006285170302786,-0.04011657146982462,-0.08112586848633407,-0.10347817170201162,0.1174572018921525
-0.14394934543437696,-0.043415362346525606,-0.1583447208503037,-0.22138848628842397,-0.05659168888958471,-0.09471202502597131,-0.1100938554388825,0.06814958096507763
-0.08597053657158203,-0.02730336527232659,-0.06583887399356343,-0.07645037209175709,-0.01398152718858786,-0.006648402549772534,-0.020768658074294157,0.09644399325156447
-0.09492097010529842,-0.018027181951075215,-0.06631512853715524,-0.08333325376067977,-0.020762157452155795,-0.007949157433036603,-0.0340480222885929,0.1008777659597857
-0.09570131829149195,-0.020322526515890647,-0.0829555258812608,-0.12420569359323841,-0.0205996173246718,-0.027616936028947065,-0.04817446872452523,0.10422978769240933
-0.13364015321627545,-0.06820834294099656,-0.14211033547843346,-0.1916604394220026,-0.04727750825685032,-0.07240696036139195,-0.09795149980712674,0.08111466191250201
-0.13397498310705686,-0.09183238826365024,-0.1257231903140107,-0.18300980621475682,-0.03488199283118215,-0.06050486112508483,-0.09091465622816551,0.08970792635642731
-0.06892966307665292,-0.008317379952091048,-0.038285378341458294,-0.062102142013230346,-0.017038547765358132,-0.0023802713331187186,-0.024095442859182345,0.1014511131446476
-0.0685035582446396,-0.0203628813792224,-0.05053410912345025,-0.08998275146201294,-0.011658299083395274,-0.014391564816410872,-0.0428945936551128,0.09843435243990116
-0.09466958104535332,-0.045978905822063376,-0.08078957977420435,-0.11585424569271849,-0.019464509027829258,-0.026841264997978242,-0.03750857310251809,0.08410384603135564
-0.1289475219817576,-0.07729637336132773,-0.13578924513174698,-0.20122554366984485,-0.04562766625402708,-0.07554934046821962,-0.08340334766959111,0.08279017359061085
-0.12535468575077544,-0.07219906343313312,-0.084898216093459,-0.12605114057787764,-0.036030523248937074,-0.05592639816777282,-0.05945934135222014,0.05887168116545377
-0.08749323881194634,-0.05848836229773322,-0.04675119724166825,-0.07720710565154332,-0.01057375273569489,-0.004595989897622273,-0.0029483554897028405,0.0795195665651499
-0.07263189197609504,-0.03930418417465558,-0.0633355177790407,-0.0964131936118901,-0.003823167596812529,-0.016902996384685506,-0.023789531591267673,0.11650036260414942
-0.09643574089061713,-0.06146591891580361,-0.08516313213629775,-0.13983830433895697,-0.026612643730098435,-0.03643552275555543,-0.0627513075495888,0.10540396885338132
-0.12146046365849661,-0.0776962404868958,-0.12615402559081695,-0.19077665234674274,-0.03334546544669117,-0.06487379530931002,-0.08789043764923908,0.12734189597065668
-0.07045069625438333,-0.05343549762451411,-0.029522227641961062,-0.048093060100471235,0.008182052780121834,0.009210717869305034,-0.017598921684575417,0.08999870074080396
-0.08064408749456688,-0.05595779456740128,-0.04126254331059005,-0.07893083413905846,0.0028427383979205876,-0.005977926206566677,-0.02446109137007732,0.14245400184402685
-0.08807920750700525,-0.05399758048285765,-0.05359271731624603,-0.09059337366090725,-0.01178814372133975,-0.013300934919034505,-0.03415768294218164,0.10486880350947295
-0.11139137639819806,-0.0753394486163532,-0.1119801498856828,-0.17777235435817007,-0.03200050357089603,-0.0491972925472658,-0.07243984200321278,0.10420452482855272
-0.09325810631950376,-0.049203067820950144,-0.076078006670073,-0.10017101981628869,0.0027750637133920073,-0.03111416097333492,-0.05229335136211806,0.10175220087480419
-0.07043643188538783,-0.05164997780795535,-0.008739167044885707,-0.017581956191556312,0.016524792578640868,0.023769688990972482,-0.00449312419349334,0.09734149508712175
-0.05615875327656436,-0.03552587602485779,0.0013228360123634978,-0.03269860368386411,0.005215778548444812,0.024364441209546457,-0.0038797893037569565,0.10742149702497795
-0.07697664587870198,-0.056438003037986365,-0.060088530988135054,-0.08084089922184995,-0.015318343690052652,-0.004516242358162325,-0.05588277717023315,0.11822983602366403
-0.11006589834460644,-0.09184576975874412,-0.0978392391005347,-0.1325629378760317,-0.02613413513447214,-0.038188793582247055,-0.07575686882675088,0.10214096323749246
-0.047676759382161295,-0.03583185528778352,-0.011409431157311653,-0.011949908487477108,0.009562446895577465,0.0185883848058523,-0.006790499217727053,0.08834124608269249
-0.04849502620643433,-0.021986583553216907,0.02097944605663704,0.01092197442459581,0.017056727889821075,0.02873946430161553,0.007998184431567874,0.07393445828144458
-0.038300749146438495,-0.05718959116731307,0.015151906294252266,-0.0012420967039889757,0.02153776205892496,0.02462089533022713,-0.0032403801621453177,0.05814708561640751
-0.07437993247002013,-0.040937283228758205,-0.03417164775530125,-0.07883899570876429,-9.37749088908895E-4,-0.005896146882648047,-0.05022109024703479,0.10980955823682703
-0.0785864862813229,-0.047685123553180345,-0.04318341174678282,-0.07799075129677722,6.231425499740685E-4,-0.021650277051887486,-0.041055652135507006,0.10430588555353462
-0.022585344467089343,0.014622386855483045,0.04686749067306965,0.04029638093468409,0.0268777860352214,0.042983540413177604,0.03426685949631449,0.10628038381572605
-0.02942069083712458,-0.028946054746295306,0.025217063358021666,0.012146701768150246,0.012586604872858276,0.04337861994043486,0.023678774558169337,0.12950317959958868
-0.05667113516188042,-0.039078798163305534,-0.007395978366402797,-0.024568701003782112,0.02725165331746492,0.017861859745952238,0.008243302102737464,0.11996531669426372
-0.08075355953985294,-0.062136052169793045,-0.06187283943618763,-0.09409648281423177,-0.002633452166501418,-0.0267269969643646,-0.037541348811097074,0.14272012939858655
-0.05089071569699994,-0.03380790845375449,0.021501202830138053,-0.0017996940502375347,0.040120754263889724,0.030546036663723776,0.00913161838779756,0.1476187210626707
-0.029882624975356098,-0.04930528679853111,0.047007793993126414,0.06031376556391531,0.04550150545861549,0.05876989578084614,0.041720595466614635,0.11395462778319135
-0.02806817419314716,-0.0510423400988759,0.04832719219179347,0.050654295018218436,0.05458837208743844,0.052056437400982675,0.03614852783580813,0.16575141169156407
-0.04479236149412682,-0.08464595185893255,0.004958405379196231,-0.03275354221277147,0.022909590101031278,0.019547026883610413,0.01399087200665074,0.1361742502920282
-0.08013378544412306,-0.05794728146389806,-0.0377441991899394,-0.08354745303735177,0.006245403172864925,-0.015148146316924443,-0.03865526008296092,0.10635532368191128
-0.025551065318653178,-0.03959370227720473,0.050576667093655124,0.07333294145780396,0.06874717911890145,0.07423674293909635,0.07806437722617722,0.15328830006734262
-0.0241088318714159,-0.015746012803052507,0.049495502382661906,0.0633966757577336,0.07130487261463332,0.08184937576671016,0.0656882164328157,0.16491539839336355
-0.014683256327612491,-0.05543368845047867,0.07202289158330179,0.05130223595339726,0.07227275174103408,0.07187962425481409,0.04547662905393018,0.15893018667598552
-0.062439470531923204,-0.07858269903547965,-0.011101926637204839,-0.03212117620649982,0.03905944325017591,0.01909718042986848,-0.0032442021792084192,0.15370998682698692
-0.06998550208956507,-0.06791112091737897,-0.03683820480192296,-0.05158442317945503,0.027115216831120146,-0.004102838593443751,-0.02661989888016886,0.16459480980249722
-0.009581140155894664,0.0014529530715004953,0.06398381969925362,0.07914528015363827,0.07269230059017606,0.08095013317368291,0.0685455189562354,0.16587203799304792
-0.020180624000012023,-0.017535411547128996,0.05522984438538475,0.06365823171961935,0.07785982317787678,0.06921389605125684,0.07544631782066318,0.1703162264625336
-0.03252861770204734,-0.04917457110686886,0.04421868494931333,0.02409810217103931,0.06436187166048425,0.057810471866712586,0.036109020602804937,0.1537448640474059
-0.0685982526028454,-0.046313768058423466,-0.012255591461891337,-0.042211431208273954,0.043423713561992136,0.01485005343672167,-0.01595701235358698,0.16418340989027652
-0.05858293468064388,-0.04707952180696689,-0.013901526848537639,-0.01795084713028562,0.017754461554392587,0.016047120161097498,0.006313308728712165,0.1996081355114027
-0.004727680058841125,-0.021897941382667478,0.041900147751904426,0.0747904327442549,0.0801378271307232,0.07553846595119029,0.07674966808043202,0.17800520077896032
-0.033637949060350704,-0.018287634096433525,0.037382023878086576,0.04444622069018849,0.05091090721140712,0.0584871134674673,0.04508142394360828,0.19547964900252215
-0.040855654974281355,-0.0911747535942219,0.014370049165064397,-0.011664784333572986,0.04902872340176349,0.042751762618881195,0.022830578814359643,0.16762824407772262
-0.09079258349931671,-0.10360026668686548,-0.0417263077245154,-0.0823866259591691,0.024524528862064996,-0.009909264499086341,-0.0399081635553195,0.13962006547417244
-0.04354573015880016,-0.08645479340059495,0.01641794256804642,0.004384859145394509,0.03980605988528139,0.040930480552791505,0.027385228193331113,0.18940211447255687
-0.016202786225238842,-0.017024187653761964,0.0935456844380231,0.07170202925204576,0.07035024812566729,0.07823465231436133,0.07803669443722329,0.18244925043892818
-0.024299277187107983,-0.07992613680496337,0.05508003635215565,0.0694382185496543,0.06259142131605785,0.06472925172811016,0.055903731825752326,0.16960927555864314
-0.054577552762702375,-0.06805043462954803,0.006030084080602861,-0.003443749368439909,0.04148973458608504,0.028258687977523005,0.026970537573988675,0.11031891336825556
-0.09802664396288953,-0.11583285009662549,-0.024799545703007464,-0.06541672079472488,0.015555931877905826,7.960624849445454E-4,-0.028702419538414764,0.11069306714124186
-0.02704568823125652,-0.06932731450480917,0.06702909722225467,0.06838552941150768,0.05076209570004038,0.07368468583580952,0.05120841063309338,0.10888263617854765
-0.020393901118948655,-0.008143915898548647,0.06096161345265816,0.07250797271419072,0.059245499919159464,0.08182503972883474,0.04753146870514735,0.1541190500820639
-0.03149344621055342,-0.05277562247721406,0.05621141822957797,0.05285347214810066,0.07413062608236058,0.06978123308510666,0.03362434612611418,0.14801153140447726
-0.06640679416880686,-0.06341023920478389,-0.014868132721304645,-0.01950394410379746,0.03021083427552599,0.032039278152448294,-0.007420107354212391,0.13295573693837154
-0.08686648418017424,-0.08755365516526017,-0.029281206501030138,-0.048501632672851125,0.02430468700078728,0.012526284706188584,-0.029224632695155565,0.1631042687616992
-0.02178620689556342,-0.0074262911851012085,0.06456026801122099,0.08050844459094338,0.06429204991340459,0.07853069052697577,0.05750827794534642,0.16751598381890828
-0.036083436437219854,-0.02508524531857308,0.0662740440588365,0.04454010712411172,0.05077178225353608,0.05278962895076709,0.04824632016341821,0.16526301365607904
-0.053598170643947535,-0.046976640882543115,0.03055797620402499,0.03383880360324356,0.04919082489398074,0.052685361433731676,0.023290205794413064,0.15126956863302227
-0.09075637124722198,-0.06759098858329017,-0.019872546037433127,-0.06549444174025047,0.02228415591708453,0.012446212564795753,-0.03070386355830708,0.10757350856745235
-0.04870989912256068,-0.043790600328458544,0.04672783872931046,0.04359894214700643,0.05244245540753515,0.054980158497610586,0.01883944373233716,0.11518726305280373
-0.023949560037987136,-0.029269050431381987,0.06357822500624465,0.08884629569892372,0.059266446850512446,0.08381193357640797,0.07492703158609341,0.17135108249311376
-0.032032754542680564,-0.03820869726121288,0.06891298703508142,0.0783028289025099,0.05466114880978255,0.08943860247797572,0.04382557038517894,0.17319591448754124
-0.05826735314370463,-0.03418291834824669,0.019939221810986545,0.015293838091732417,0.04552262660140471,0.038992397127414084,0.003913722069674068,0.13672639139271806
-0.0862813161169346,-0.06141898457883589,-0.024014515226419866,-0.04463450662055623,0.0330864306574701,0.018600091822017703,-0.028387098273932647,0.13611789985469208
-0.022638397034577228,-0.03761545546916652,0.08700729260177494,0.09733300741673526,0.06698234462705006,0.10087511086671347,0.0867580038419443,0.15894283350539679
-0.01289149542375118,-0.025439586168833152,0.0794869624192453,0.09814805157490832,0.08033898788708903,0.10065198442941374,0.09081347019852509,0.14713193133409927
-0.03356057719785968,-0.003678392869793919,0.06613655852400241,0.08658052920976013,0.06714019465582761,0.0903109829967973,0.05978256058556821,0.16933769436545015
-0.05975545849850824,-0.023132523061836618,0.004956887820020593,0.003554387697556811,0.04074621984259402,0.03966611321963687,0.015497682637713025,0.18295538781728038
-0.05929738594485374,-0.039028262973547084,0.018270726805930858,-0.01229011230151687,0.04945554013181305,0.046493554511198534,0.01242187078836151,0.14398072794751407
-0.006516668360374183,0.0014582269740600147,0.09648382563016218,0.1184993671321407,0.07749731952812398,0.10126028627417819,0.11057349543004918,0.1510927658018866
-0.012174588118124934,0.0041784150524182976,0.07422387133942467,0.10160781427921081,0.0706097309315321,0.09530601764435702,0.0900213128174993,0.17063181050498397
-0.02511189474287122,-0.020003194352311418,0.06262426713108565,0.05369655118225559,0.05175064406697301,0.0969204853786231,0.07046734267683234,0.17112119054799765
-0.08173526000074129,-0.029948772012641674,0.006649041557506781,-0.016808068918404768,0.044200834406660124,0.03417767910759245,0.016141907992291482,0.140677088411126
-0.03524440337223257,-0.02545395818519782,0.05218497698629583,0.07833577821938277,0.058887464805788305,0.08124924596866887,0.08319440341378696,0.1290009896409259
-0.018188495645375696,-0.03993712808204274,0.06504183751198603,0.09580851848782718,0.050446312715868205,0.11814546693343192,0.10390321416095874,0.16468681595085036
-0.028539378632069463,-0.024122261598785104,0.05345545963749531,0.07269227293148263,0.06583227091190706,0.09312481986772897,0.08702168695079796,0.11504003298965737
-0.05655982588878012,-0.040206662539867113,0.013663759873741108,0.011901290226509318,0.04888914264001019,0.05479733748030136,0.036544161296843354,0.17750567761537547
-0.07699355890868935,-0.04520628935068554,-0.002493572481475451,-0.03531083738830278,0.029952745824960107,0.030531091413919687,0.012715289443416366,0.17918655971797107
-0.023680239027586036,-0.016642796795845884,0.06306973101422766,0.10056605613651627,0.0794126364181716,0.1074808067713299,0.1043776162794104,0.17449944679279641
-0.018819412504482293,-0.023719636222073997,0.07709794377396244,0.11549502905357766,0.06607136692100299,0.11241789587762234,0.11101176726336376,0.1775278742078064
-0.01871399790033085,-0.008253577050200894,0.07028494345910027,0.09718059499454704,0.054333830489973346,0.10078898069462225,0.08176095153498374,0.17204711619010638
-0.05904854153543973,0.037153821930750015,0.009283503244773275,-4.473928255943306E-4,0.04836709997931696,0.05936295272904516,0.053130832308395604,0.24130702040075552
-0.06692562178185503,0.11637685220603732,-7.874498688353372E-4,-0.007815340783874749,0.05594210092896849,0.049194531763590565,0.029020030646639407,0.24196562645504874
0.01860586521448411,0.1782128854188655,0.09762809093435355,0.13835091140622846,0.09447159775725003,0.12838062958750976,0.13046251363975653,0.2601679614326391
0.0073108308562572335,0.1917601024907323,0.09413504910051765,0.12302928713843289,0.06921280216949574,0.10758887179724315,0.09415989901905183,0.16640969441877623
-0.01017587266600222,0.175809164375599,0.07135817222176324,0.08009251306799331,0.05235509163085086,0.08526787046199504,0.07699982357890271,0.1558545370256508
-0.05242767938056888,0.14131085513331837,0.008326230010643677,0.006082166161676011,0.03628212389751608,0.04773867250733819,0.03601145011709958,0.17036454527166
-0.04785591005045607,0.16976864938619288,0.034845965043396744,0.03402463940403885,0.03005210811037189,0.05221722986386553,0.03459368479669112,0.18371593195154567
-0.009709430769894535,0.12303577406320662,0.060825500352311324,0.09715329873747411,0.07424020282062979,0.09257557578520521,0.09517817388080836,0.1852039265528159
-0.014795355640700569,0.11527567221848627,0.06306536826895408,0.07945626140931976,0.06585012712689703,0.07819869120867946,0.06265551856523546,0.15864239713410777
-0.035462429143207214,0.10520951362150605,0.01975311556733547,0.027350974611692683,0.044101734747348915,0.05662286802114182,0.04537690453399387,0.16393414683273386
-0.0788201853729322,0.1289139114934978,-0.04401761802355801,-0.057512978260719085,0.020128381259040134,0.016892355512155056,-0.001774104213351067,0.1943174407434769
-0.033551104257502254,0.12657639868335954,0.021646001775280102,0.03935965346864946,0.0290951607434252,0.05044744594096805,0.05368843411190389,0.20132181286718528
-0.021531538491235326,0.110162730974229,0.035027748075998844,0.050069977092067744,0.05327022491630328,0.060838301336487446,0.04384600237897626,0.17652782089165495
-0.023734008560730605,0.08289564853848365,0.03741308046431526,0.031402596415125175,0.052415708202166504,0.04516402993291713,0.05250762901837182,0.14980600949133469
-0.06902507160383409,0.10257643532072755,-0.028368007588351122,-0.045542244067409,0.02864111974967023,0.0016903394024174545,0.011454453719757493,0.15777766842090118
-0.09055807409178838,0.0979441643785703,-0.06377514579768878,-0.10081545204962204,-0.0047826151122835345,-0.024572498365789334,-0.042790550635788106,0.15227798719413402
-0.04256924129813942,0.060516997880582214,0.010134249259397434,0.032870300749337625,0.04466495516524909,0.04530214510577085,0.018468467815199372,0.14033260137037928
-0.038639790451374195,0.004385318801036833,0.025481823354941303,0.022052009270556176,0.03480839808566547,0.05645817656260427,0.02560051299963311,0.1778891167259346
-0.057511748777684654,-0.049609470208478786,-0.008532706515405445,0.007619451318327666,0.028161541315550227,0.04219454794031841,0.026180966763330128,0.13219971809070047
-0.09403688391382763,-0.0829448618201583,-0.07219040294258179,-0.08334062534181844,0.014731249138949912,0.006802032795278053,0.006238095287555176,0.1660328516363623
-0.10696276346464995,-0.11991151113807609,-0.08685924106042393,-0.12672617759347973,0.01743377596495707,-0.02916915293773505,-0.03983932655637557,0.2095753293281735
-0.060518782623250576,-0.08141273465986097,-0.010903538135034072,-0.018433075189534017,0.053887902657883444,0.04911766694045488,0.016144286705709884,0.2354363916517563
-0.0755447048851338,-0.10560219509887969,-0.03303695554812544,-0.051430274231405795,0.037577907214066265,0.024758960298649386,0.0071593526218976305,0.21528556953023098
-0.07397113286854759,-0.10237821328625166,-0.05465961283504659,-0.0738007793722088,0.03176750985038035,0.013464554822188274,-0.004043427289828121,0.19358935380202416
-0.123641721077398,-0.12227058710799257,-0.11386095034775812,-0.15923144027996766,-7.843557920451615E-4,-0.03338345746901841,-0.05379997740855264,0.21456857239165947
-0.10743878715968798,-0.12765225347679007,-0.0891060882247573,-0.13965701865955196,-0.0015173430508776343,-0.03774256389664208,-0.07249201172152903,0.22754920225264327
-0.07511627986561108,-0.05870878333216306,-0.04156841924290653,-0.06392311724847449,0.016887355955649632,-5.253275569408118E-4,-0.020118416082688932,0.2169058149608516
-0.09342246860201897,-0.08935421661246347,-0.05623673946265631,-0.09769125498538053,-0.008276057804622754,-0.02561389372377405,-0.04630900830887495,0.22067870493166578
-0.10679529814463551,-0.07519873048094594,-0.10482364292957946,-0.13811624359110802,-0.006622688123748822,-0.03356601451828385,-0.0616616960355284,0.1913186142801294
-0.16084343861178602,-0.1290076155316046,-0.14975028319291184,-0.21050334249752822,-0.04615722995747763,-0.08484265161110396,-0.10148500743701612,0.17126405165975064
-0.10842620863783668,-0.05965029556768489,-0.07534326394682903,-0.09698507655735797,-0.005890321976475399,-0.033590208366364886,-0.06310890105623737,0.20274115883405947
-0.09862568290993505,-0.04605376360007064,-0.05953089996612634,-0.10473032782631284,-0.012800509386662636,-0.03479384787145585,-0.053885730632741755,0.1599127521416818
-0.10930091134725951,-0.08764980467253006,-0.07816977727803844,-0.1285540243439586,-0.0015107486503780198,-0.04692033821245822,-0.0581248044576236,0.15587368705221982
-0.1479201592239065,-0.09609228440989687,-0.1274263433083557,-0.197293212429087,-0.021195689376763815,-0.06922488944932344,-0.0933845873297175,0.14913418884537524
-0.13365417598546497,-0.0929436949770624,-0.11913984728403224,-0.1652587354808664,-0.006020028349037096,-0.05972566412484717,-0.07850627661456351,0.17020562522796245
-0.07981793732840849,-0.03351885683849089,-0.05253585150979731,-0.05818118545850537,0.004058627659497828,-0.007603201370944715,-0.01959849284160237,0.15676280924673444
-0.08966867870629955,-0.06453232518186663,-0.05024191607570127,-0.07198822259625881,0.00423899206747027,-0.024798610284712242,-0.026509672676236443,0.14581586470770058
-0.09449208508400339,-0.10280166749294171,-0.0828571113510926,-0.10869985940268077,-0.014371630076923401,-0.03858289592916766,-0.051099499466132514,0.10196630662787191
-0.13430258317576943,-0.09271463110838331,-0.1156613136386362,-0.15950885554098027,-0.021382852265099228,-0.0545074903155176,-0.08860961924782886,0.11683864695806512
-0.06343771683996442,-0.04106400478170129,-0.019522428780119238,-0.024653873766549206,0.023196017816031575,0.02281798298204118,0.0019328081619225308,0.14165454856594237
-0.06711093197778399,-0.049347030050125945,-0.00419855908465968,-0.029839400759602595,0.028931171140786277,0.02336601270864586,0.005947969793589742,0.15420208887252942
-0.06386506681398342,-0.05727229265898047,-0.015591175042569762,-0.03601545873282776,0.014448070087785038,0.022826459164781182,0.0029485965829903374,0.17212097528779216
-0.10058060521757206,-0.05184335861490446,-0.0758766710864787,-0.10328369642436336,-0.001391095487525742,-0.01623685414664008,-0.0459036820836341,0.17417007447209215
-0.0890701924512532,-0.050032062612385075,-0.04183315095716639,-0.054521732514959016,0.005612371491375974,-0.012191347614920169,-0.02683227564508711,0.15515211973686865
-0.04534641215941833,0.0034424506157274223,0.01447346722589949,0.02902772163518043,0.03383798719605158,0.037438465983177044,0.03461222055406633,0.18655817592918372
-0.049025354778412,-0.021192762060384233,0.018773730624085293,-0.0027619420346399353,0.038440110684801916,0.05459314113028859,0.02074263955626451,0.1794896281183453
-0.05370828197514915,-0.019882065327386008,-0.014844619576173957,-0.036752626904734534,0.03880443572850623,0.01420650957107695,3.031265247168858E-4,0.2154500382856996
-0.08135292656101963,-0.03919142610833035,-0.056843019291851746,-0.10126961380350306,0.011753278783058414,-0.028357936689992747,-0.038696782650730725,0.16119337449117765
-0.04401053438020147,-0.0018585525205577125,0.021224391586970738,0.023860112170645254,0.04981924252667535,0.04311573214571123,0.039186960968570876,0.1950803839268049
-0.029744294162802037,-2.0129553452181103E-4,0.01906052378757746,0.016807474888200943,0.033776745435800164,0.0605820953074304,0.03689541186006471,0.1974528612139744
-0.0481510171594869,-0.005759066726388746,0.010976324647417823,0.003917180187982572,0.0455472519347791,0.04341380192165507,0.033067607065825566,0.17708125925996768
-0.07489441761729042,-0.052128031650693435,-0.03924217899095644,-0.07907930282518917,0.02844092279161191,0.01778702116587397,-0.013033637772285937,0.17511201293101605
-0.09058891260828165,-0.06187723765337655,-0.05780846991449145,-0.11038299004845956,0.015141160593436091,-0.01879515891944553,-0.03517919885675287,0.19405838459679384
-0.019716113824266766,-0.020854619049286708,0.0377991765897363,0.03264306160425652,0.058097459085858415,0.06683226859265051,0.07202247395157621,0.19760552976329557
-0.0208017143410052,-0.04385567135728619,0.036029872904037495,0.038542465078011935,0.07087498259943283,0.06974183389799332,0.053982010581463,0.1862869371330143
-0.02117137314990748,-0.031957943812732766,0.02935655915231516,0.022758820565702213,0.059841417323873124,0.06266228132398614,0.048786631091389435,0.2003008443861237
-0.060837026730733844,-0.035518336422157425,-0.015623548817617927,-0.045606037141557317,0.03289375141417994,0.004572484113637403,0.0074153593685540075,0.1859291241075042
-0.0713627758781944,-0.040667013666658494,-0.0339484456387114,-0.08410537757007272,0.019857791411831943,-0.004469820923306993,-0.01629197754822601,0.16466094438093948
-0.01774338527010692,-0.02201769558453928,0.04710019489802932,0.0640332695980854,0.07984431273828715,0.08587000467302658,0.09045059962678112,0.2087652431821761
-0.015022285328142612,0.027758118365076617,0.07109819843953884,0.06996404389224674,0.08179312659060076,0.08415767962657507,0.09226276056739866,0.23357013511566724
-0.0065419589494228195,8.830664702181258E-4,0.06403982069156972,0.05349343288866149,0.06697128780521282,0.09488315240419525,0.08616217937161054,0.24482535581884313
-0.04187283610654288,-0.024411057911351324,0.0109270595751315,-0.029753451052614094,0.037755749098787456,0.05326578016534293,0.038925411143831135,0.23293307493789836
-0.07693225724647479,-0.02076208740128548,-0.031773624360418834,-0.07495680124712338,0.025844041285435316,0.02452552439750366,0.0023481437482755774,0.20099725273632302
-0.020432683999207175,0.02880743323746259,0.060676832014609945,0.043140697294600926,0.06457231189630944,0.08105491311261821,0.07241121883123672,0.21312754210667328
-0.007447264833472647,0.028220227497649165,0.06665205301282758,0.07571328296581199,0.07780426786622073,0.10112120787625396,0.08971552612603152,0.2144483336159259
-0.01885386104313062,-0.017885023481735974,0.06572037214526409,0.062100326476168095,0.08297021774685995,0.09457943397045226,0.10045612162676713,0.21419341063671585
-0.040719663817001754,-0.05889500495976731,0.005969413956212545,0.004766829865561529,0.05100222850056158,0.06334782649045541,0.03849041468812436,0.1857224145160155
-0.07115066345463075,-0.08133923952568166,-0.02935441586976442,-0.08104261003481397,0.03977269873484063,0.008259647146234646,0.0035589015781415205,0.20038784615789149
-0.044379198195382136,-0.031955921842668766,0.05121213334919177,0.02546543571062701,0.052345396650355674,0.06051202396379434,0.061514768036545986,0.19916456920125583
-0.017483776448303904,-0.02600972171574105,0.05968695246957817,0.057697014145591356,0.07656482341873799,0.08475920410864181,0.079167081053148,0.20095746578576584
-0.015245179998346235,-0.04614719309839775,0.06428854660926082,0.040776370852308064,0.05965528928447218,0.07954244274528052,0.07191559428784074,0.1783172600793352
-0.04570422958554656,-0.0630920950698119,0.008683000098122817,-0.03171775083541829,0.04647597210171264,0.04015399243538295,0.06354070180307267,0.17978252329402133
-0.06488137439481917,-0.06061489243397585,-0.04928531364016725,-0.09081683267040982,0.0250997566312905,0.010911696108385585,0.029960832665224656,0.18707128295147096
-0.027674316875410096,0.0121986347229318,0.06531598585266016,0.05514460533462697,0.084401373457373,0.08415808145832247,0.09197571081144877,0.24129158577775323
-9.98003910224221E-4,-0.030829505191730958,0.08396078601839144,0.06156687084885252,0.08350824489715744,0.09781358487028002,0.095778585737574,0.22956163105753669
-0.0013867089003979328,-0.02998594383356817,0.07322019022100312,0.07001703970955733,0.07950018180045698,0.0843204040898895,0.10307386550452527,0.22504762597693412
-0.047275209884757606,-0.018999603407729194,0.025991977528729587,-0.014962461069228453,0.062199166346392235,0.059470613867276874,0.05764807203450586,0.23145970756101586
-0.05051346822875962,0.0035305000779792734,-0.0016829748237585842,-0.043400725224838316,0.06283374339346175,0.040175299947808774,0.03406379855894082,0.26037978523280453
0.010127430389168461,-0.004424163987441835,0.10654638431781999,0.09024015948667116,0.12043898587143971,0.13493544728857415,0.11237411701116709,0.28562307315450447
-0.0022972708607162775,0.02176853309807917,0.0931546976136924,0.0819326067120627,0.10484675594233649,0.13422318617856463,0.12182552543767065,0.3030282206033836
-0.009532651681509241,0.009678481471672466,0.07567350477412271,0.052710671753106966,0.11601454429508486,0.1139516541230905,0.09428903174624861,0.31057207322955765
-0.03626880047262832,0.06366231160058847,0.02189140571205478,-0.01961658296226606,0.072166529268223,0.06800452889157767,0.06258786152727602,0.22169815295189368
-0.02300837821441297,0.11946795476968394,0.06416179179185504,0.036104591674464705,0.09959664321529185,0.09132845263357627,0.08160458069828443,0.24182432937369386
0.03964496838326058,0.13504125644671963,0.11796464313888566,0.12164969483734006,0.09724055036491296,0.12839166201998428,0.11263146025950017,0.29830979012388886
0.020145595890624545,0.031905276567298954,0.12588079361609206,0.10034046397787016,0.09552792493899066,0.11373483420547119,0.10191369003352448,0.2775253034200818
-0.006992443613793136,-0.07680863485876274,0.0769364539076181,0.041361128489811896,0.08358301629486582,0.07545914691703623,0.08179315185180244,0.20545328947501876
-0.04478407256326497,-0.1564784714776226,0.024377343592348607,-0.010394524276529253,0.06660376612251054,0.06767149132206719,0.045500588807057006,0.19016065572031773
0.019586959150872392,-0.1266309620459684,0.12222173940315856,0.1291056887334479,0.12285346958989396,0.1320694703173398,0.13507072715028673,0.20207165097271307
0.021364095187342728,-0.14168907232702038,0.12942107760700872,0.11504484359075848,0.10527519967326095,0.13291546454837558,0.14087421870652767,0.22799776286075232
0.010955052996273699,-0.15369085965355866,0.1192948868893312,0.10077515194434886,0.10783678366034316,0.12476459069044893,0.1256854513417012,0.20913412595844608
-0.019983159526095286,-0.16220344081648644,0.05175706821350708,0.011262165641635792,0.08427892103985436,0.09000628894337494,0.07505145182920571,0.17564259228393703
0.008381255997998528,-0.09930508655010259,0.10545960602817751,0.07588441245798687,0.10389138017657838,0.1130589354511523,0.10867928191107376,0.2050262991527738
0.05592241218603615,-0.05902653639514723,0.16935760276458547,0.16406844681696528,0.1317856498036711,0.15577874200203193,0.15838696867291013,0.25856410212543673
0.04592308390343964,-0.059581878753158166,0.1695715669111413,0.14072780755523684,0.1371548585208914,0.15864231957285668,0.16126172619343415,0.21626298743821024
0.023877192040357483,-0.07223310622317416,0.12363385232186437,0.09174092321095521,0.10904188091500505,0.13091255238342353,0.1148559203970937,0.19378906987169883
-0.0061094417381197435,-0.0677280961670556,0.06824243403472947,0.03662169863138523,0.09786892315225977,0.10158308329039088,0.05296395173493002,0.18506193801785586
0.05883945966838675,0.0015309721568364583,0.18275356372876436,0.15655624500637993,0.12171266315796696,0.16507547902494682,0.15180085676753985,0.20918411964093916
0.05938048457006242,-0.017657970879535776,0.18985106176043876,0.1718692211232613,0.12689734710072986,0.16795757961529997,0.149241331749688,0.180160215683971
0.04950120284107023,-0.033369579052707425,0.16809180085919456,0.14298058479300077,0.1258148237539366,0.14858062095820165,0.11069407449122352,0.1992991552020095
0.01667456734610883,-0.06534311459248912,0.12110897886700932,0.08754350921582256,0.08627437019448717,0.10770094629087053,0.07988133480677875,0.17964815856620625
0.003667525894910106,-0.08579641549448477,0.10424943057755301,0.05426953556169467,0.09787361046814055,0.0784996013624411,0.07850909422023153,0.184023513981361
0.07960965124603452,0.021247235710932955,0.17816663237434915,0.1622409111910683,0.13874142722333924,0.15451239585440663,0.16181253509373061,0.19806428867313422
0.06616540248438534,-0.01298515671360064,0.15848468547253405,0.1541135693105421,0.12807816475177985,0.128569309661273,0.13126152962370058,0.16834103400579023
0.05756691400470683,-0.030515404144958798,0.1618573130474958,0.12071631223308016,0.11631706340034913,0.12415018483803421,0.12013694204445793,0.1516751746811662
0.008250975802761388,-0.14695266662999945,0.07561842659422272,0.03279088546532672,0.09833048857378401,0.10380842877104594,0.09526981020404919,0.2427403760793389
0.007342115379433225,-0.1767873349664538,0.1197099485762327,0.06414935911489736,0.14916766371791942,0.11758615991786085,0.1079012397054164,0.3430293902088159
0.04642066053996472,-0.21252727706230015,0.172690961521472,0.144045932262421,0.17360004394370163,0.1766460673651948,0.17320903713653055,0.4329141236773985
0.03476848775613088,-0.25836838880253615,0.17055842687207776,0.12496046157077759,0.17429083130827144,0.18302071648147208,0.15767923866450267,0.43681654695191185
-0.0031103551977671724,-0.2785279311183757,0.12629791725103146,0.06291727226530175,0.18417160163118337,0.13728516305592273,0.14524332698896836,0.47769783822538364
-0.02596746251230237,-0.2939677800673083,0.05412360108172874,-5.178578681601202E-4,0.14552979443825032,0.10982413439176318,0.07790148790772632,0.44341372646420574
0.023174540570441368,-0.24027492670032183,0.15636317448624515,0.12425943301699983,0.18772792475254257,0.16891715861802178,0.15384079122361988,0.4579791073402929
0.03481547564971508,-0.24485243535423296,0.18287697658458404,0.15916490432997255,0.19830183294496076,0.19293879452556204,0.1783532831003831,0.43109494712040186
0.027765816243918152,-0.24992180104685247,0.15774257133825903,0.13434275907957666,0.18417842313136878,0.17456285489536047,0.16571356235386028,0.44568111892333523
-0.015469788377945465,-0.28788529020503323,0.10274924644444573,0.04066782175817488,0.1578207081108358,0.13417777125462382,0.11044434843237053,0.418162984560329
-0.024241891424124678,-0.23738347254474323,0.07045105804361111,-0.011397789117601172,0.1333992378650558,0.08774013547603636,0.08233994073610013,0.3628400031397869
0.04630717722971797,-0.15456952716213676,0.18225339993030562,0.15579140801186722,0.16286332891796257,0.17716755238134138,0.13974309690953676,0.315784697025135
0.04166139846364712,-0.07449444045432431,0.1503370633980417,0.12491209224279011,0.14297156855588405,0.1554998752255414,0.09953224839203487,0.2665883048020631
0.037584232355746025,-0.10501455068738387,0.14587020264376405,0.09711389366326885,0.11708371847232679,0.11852250573227294,0.08764064821145985,0.19990802487134338
-0.023972908052997125,-0.12234283093123442,0.04752622627733235,4.927435645516991E-4,0.08994467487596604,0.07121290261720141,0.04648889846292938,0.18874277068203618
-0.003570439059952585,-0.10663836094265411,0.05877390446837659,0.03144553062932373,0.1170843746227044,0.06668182218710433,0.05955535632431269,0.19036330879633764
0.03242947396568524,-0.07196086020857022,0.13899614345946426,0.10640475562876474,0.12245677237453388,0.1280419636628724,0.109445980239364,0.21588469276475436
0.005092692965929431,-0.08050527068430685,0.12795298707880742,0.08832652793640589,0.11991293837315115,0.09893561188984674,0.09764536510234427,0.222919521522641
-0.01280043353986319,-0.10082909811218321,0.07732611093151126,0.04076617744623953,0.09716360068253183,0.08117474321276677,0.03307390044251524,0.19021308149193347
-0.036862202392330345,-0.06929376291786876,0.032516885910183084,-0.04065790051114355,0.06633888495245306,0.02358249433649849,0.0016668551243074771,0.18188203271907183
0.019765569687712477,-0.0769524881426987,0.1264228639146205,0.09066531705602858,0.0911707034664632,0.09151259204081699,0.0788470195847353,0.14731564313190873
0.029319678318235978,-0.05628807486634101,0.11366544919070193,0.08411954740863249,0.10133090273523755,0.09144894313270546,0.07561468749554702,0.17403274750012895
0.0044678712595591355,-0.05680577906381062,0.09828184341050175,0.034758560693386044,0.0863844407655921,0.07807213896439913,0.06378351649907137,0.17483624739480305
-0.029725328036442802,-0.1167640065135826,0.023217341188815348,-0.03816867692228311,0.06138353309076914,0.02359594862370493,-0.0019524254312531996,0.15352582570797377
-0.03848421987801205,-0.08153020282941358,0.05181061429678689,0.005508969889424196,0.0733260576302868,0.04054882569581867,0.03019010850475636,0.12060249181736873
0.019266167550254513,-0.07704633492624653,0.14454220714605193,0.11539840464762809,0.11246627608889097,0.10953285849561878,0.0728002606488017,0.14494559417429353
0.013789052747217449,-0.06851624126445435,0.11411443655020823,0.10126629730045957,0.08983073495788924,0.08663542104955006,0.04649781274357586,0.15239634866062107
-0.007741581295083646,-0.08749966269621123,0.08909111895046223,0.03668169600714203,0.06254564503441486,0.06263025679778901,0.021024909153369825,0.1525380792347455
-0.029520968595817237,-0.11102786327033343,0.03095771610540809,-0.034987712344497685,0.04583836138586436,0.021923458150560012,0.0018940034426380642,0.0986061972578805
0.020687902672492237,-0.07954761177728885,0.14088033942156503,0.11524849138310866,0.10235639416910232,0.09512224052806012,0.08185626732653342,0.15060185300021553
0.02696290602215146,-0.06297398876765797,0.14247925694222005,0.10945731190538581,0.07964208472844624,0.09760652361065554,0.06754865979509542,0.15091539790217623
0.018286136610945806,-0.09044527269206434,0.1241602135895459,0.08305234102953778,0.07691561660294387,0.09009452677044147,0.07649856166520223,0.13281781252213953
-0.014532683117640818,-0.1193922144561787,0.06028909710754985,0.012523543515185745,0.057822654563330335,0.04394254034017518,0.008764912224075919,0.10359974710663061
-0.01971258669839052,-0.10816073409190259,0.06649975527029653,0.019058340435093413,0.061318254674890806,0.04112149391913936,0.02415320235587474,0.10753157053457782
0.039356127655353186,-0.07479483410740274,0.13293558694244154,0.10887793390180947,0.09982384426471258,0.10597099654541267,0.09921152857846131,0.11724293388781064
0.03511408120961527,-0.08849298953675871,0.11531127063440105,0.10096367485297439,0.07253738986538959,0.10868014285143739,0.07865015925676512,0.13142501569180443
0.0022075641392128955,-0.09025330640117682,0.09816914447959067,0.062210353785149636,0.063024266604912,0.07478258738658715,0.053969637814997,0.1423380713734116
-0.026603943901736517,-0.09667161506925738,0.048233148332327336,-0.017170850938469068,0.050351291716622816,0.031137305351021008,0.00777823142638931,0.14009337448654022
0.013677094305199275,-0.06256398985725022,0.12824655574472796,0.08122161121388512,0.08702996292070654,0.0843252084355278,0.07303199920577642,0.13033851181197692
0.02842618881017672,-0.07295169612711647,0.1218351851628692,0.07506067642909299,0.08239314749902409,0.0805535542837345,0.056284053032587836,0.11950896020181391
0.007268319854267809,-0.05167577586471729,0.10113284037298065,0.06986706272919167,0.06899788712144152,0.07450960089035245,0.056966592765977424,0.11358270070515351
-0.02004900377506795,-0.10744190111732867,0.04459790275600825,-0.003532990506775989,0.054228812062451205,0.034047187627663233,0.020861996512906104,0.11383790793531383
-0.022580563917216027,-0.07286157371386731,0.05621928600042811,0.02373979726262382,0.062444769241627535,0.05877129338224519,0.03701161626135773,0.11341365703707225
0.035826086518726395,-0.04409665551863004,0.13600893535749942,0.13305359731733798,0.1109634941838324,0.13472684720409314,0.09031531845869045,0.14076051852440005
0.02493087669818263,-0.06202602371889694,0.11936566198030574,0.10538558242093181,0.08029453032964692,0.11718016657147161,0.07010613315128524,0.10360065853159678
0.001265516178664591,-0.09676210006779916,0.09190261830792504,0.05957180399107664,0.06616694234181998,0.0927277662657438,0.04265682952395171,0.08426512226199956
-0.03683877893646914,-0.10494116400345024,0.041947369176205236,-0.006660386521258088,0.0409119287087565,0.03661412965486191,0.0049248719636368525,0.06939872041994564
0.030000374703542523,-0.04193422785230169,0.13215928742723168,0.11128626239926291,0.07864346090376521,0.10920252698574,0.08118779077346017,0.07551876641135241
0.026913631921900726,-0.03418228806739921,0.15428773430510453,0.11299171861100112,0.07858074181104226,0.11606054511986601,0.07418069139566132,0.09541589019908986
0.02660208234896179,-0.08280567980947168,0.12217483417804256,0.11497632870700894,0.07857988947705097,0.11858028282774714,0.08019438884836132,0.10073712980579445
-0.003972187621709912,-0.06247554442635393,0.08255438862193551,0.03363558259065393,0.06261070055477819,0.06431288553310027,0.0380965245062151,0.10254122306177926
-0.018515315342357085,-0.096724564307004,0.07049123997577418,0.017866787067921504,0.059636977117309656,0.06899453850891349,0.02063029364816258,0.10604642252243932
0.035960192771267996,-0.05978494992565519,0.13525281247391907,0.14531224911073562,0.08697446502275202,0.12987336606048772,0.11799287318717064,0.11471175317446641
0.023749257842396686,-0.04372883641137626,0.12522474820508567,0.1241634412421218,0.0892174098783116,0.11326843162583795,0.0899144827853164,0.09773939501142848
0.017333066354172626,-0.057701634001839364,0.10720290240774447,0.07764016892830143,0.059247622771014356,0.10669069537336001,0.07708534027692655,0.12913364584177
-0.025890243901777757,-0.08599748444966247,0.05631356768579416,0.006795549090411545,0.04791857139349292,0.05534920651625618,0.025965185352341075,0.11933678420250374
0.0026919409489471577,-0.02654878349485917,0.12713970177292844,0.0967152222360191,0.08440324621635721,0.09628354202343378,0.08559873888755626,0.1184334683389701
0.03098807362248682,-0.04643524652366363,0.14331958617741722,0.1253368769846538,0.0936966125536525,0.13332982552558478,0.10203981101172964,0.08548551516754913
0.024493719370734943,-0.07694268806623648,0.14589691258031207,0.10191776666381452,0.09044825946872993,0.11446229727178193,0.07221287621505061,0.09407210747641764
8.419313840365279E-4,-0.053884332927256265,0.07447095063631552,0.03589660464023682,0.057947952333590895,0.08252388311353527,0.03717198733092461,0.07996082632296304
-0.02613273560554506,-0.06971100722222535,0.05857028280374915,0.010831923618213451,0.051752495004551424,0.053576716532467435,0.01450347432682811,0.07458804500408259
0.04406917125989198,-0.028754826172340348,0.16883292015703666,0.1552772130746298,0.0957183054718521,0.12701070242600795,0.1100910419644736,0.09933098390555739
0.02537647638158636,-0.038169682185755276,0.14775122693301238,0.14575604264794506,0.07931789994998988,0.1315789111984145,0.10211708958637734,0.10706154610171423
0.023460637835586905,-0.004987474553510925,0.13480920395586224,0.10774768312232776,0.0829152753932352,0.10269645355130369,0.0691820729977339,0.08250828308471102
-0.004316002698315389,-0.06164359862067602,0.05400929719197303,0.0287368763175172,0.045463137199813645,0.07226807198045786,0.03608860426895321,0.10818902200545773
0.001724278461878467,-0.07992392046349876,0.11507371908834786,0.10862595763655987,0.07367357240769827,0.09073137721303227,0.08456321971482877,0.06478233548915154
0.04899924953249367,-0.05718331213635633,0.1662175858468317,0.1708394017333537,0.0946484204041502,0.1409362054323604,0.11246919580924555,0.09373850921304118
0.031678592361060194,-0.025003062614707618,0.1652270558835444,0.1432140840380749,0.0858483423330678,0.14300662793010357,0.0952399002819501,0.10604079339885676
0.0030959006051691517,-0.02815470137166844,0.11124937677639167,0.09352050233183108,0.07525840402713142,0.1034110294108019,0.057938994046072945,0.1114170859668545
-0.019531143858666635,-0.051995154785952465,0.04974866394424712,0.017451908656540123,0.04700258011810005,0.049663123323000234,0.0153943292719282,0.09001671880534075
0.02045775821514737,-0.05855881638925824,0.1383188268496336,0.12484633704644747,0.07808323074497021,0.1095483890685018,0.0664878950223058,0.10236336387597077
0.025722857580198037,-0.045799411730002154,0.15304688420958465,0.14469822344163194,0.06732785713213958,0.12776161071601366,0.08912464024838318,0.08898311547344687
0.020703250526639242,-0.05162216479965056,0.14067687236888002,0.12440622138624186,0.07339649671051633,0.12439585180228947,0.07670803012624174,0.11261364730972102
-0.00442175516170513,-0.051854910401972626,0.08040155646719488,0.05535779468932898,0.05131043656704874,0.06994787949732498,0.04386015494166581,0.15078389524573496
-0.023274606615313644,-0.04659570712359261,0.08919566354516414,0.031995280756016486,0.04756851010952173,0.06824540253764998,0.020848813908435678,0.11062010286372581
0.03763881539945097,-0.017249883652291662,0.14518954204801332,0.15399856186083666,0.07133258925548731,0.11834931532760395,0.09346631229820788,0.07626394074116429
0.017741871092942472,-0.040274343269121646,0.12144409492910185,0.11785985418530183,0.052323417447901616,0.10828645855692223,0.05454518827585355,0.07234736265457818
0.011450748612741111,-0.08105377306911223,0.11695988276588039,0.08426019589225503,0.04389591784697223,0.07778843843047736,0.04781760088335884,0.05391529008683583
-0.03669238867758466,-0.07579176204170479,0.02929770584753741,-0.0035083269371493624,0.037054816378918845,0.037399132881019155,-0.00428641701063453,0.09150949622412889
-0.005950797820461874,-0.04331735757633775,0.1376059716696393,0.11714422960944543,0.06797260816771898,0.0878426896719878,0.05604647118792991,0.0912650830733903
0.04102837841402422,-0.07827120341161156,0.15700585039721487,0.14961154077922242,0.08046797058100728,0.12077213178895277,0.08728274999751041,0.07339888457416956
0.018366599872545634,-0.0754820381150402,0.14086042120737088,0.1307255940829328,0.06617358703920247,0.1106655590316718,0.05408293218072108,0.08480139987994233
-0.014953953642106875,-0.08187693945526983,0.0893019242142076,0.06261656389339314,0.05517838643353733,0.07646598405190114,0.0382175912981197,0.061689031639149405
-0.021604459720450674,-0.05186097806395103,0.06431742939291052,0.03604902184093696,0.03957800287123236,0.051563607533889985,0.016963144445004148,0.0797666313404837
0.032241968656099664,-0.022381762139775517,0.15574450960003755,0.18407337401193294,0.08682423571811244,0.13403659824889685,0.09867901269320398,0.07006618181679802
0.03229507866369465,-0.012081356775098284,0.1537170030659773,0.14966083483045678,0.06578920181480907,0.10908978198005952,0.08307797300569542,0.06440825245730816
0.011653932652786522,-0.07530605359839307,0.13223700670176025,0.11957424837764725,0.054986224043223855,0.08170069546359546,0.06001000167324017,0.07993567901610472
-0.032558041140897706,-0.05874696022780808,0.062014761011056484,0.037232882929568216,0.04650804296333416,0.049957115858749776,0.005271970153919128,0.0855882959124677
0.002835897053346553,-0.04222744248358086,0.11255751104802057,0.11705972445136761,0.057904092302249285,0.08997136203390821,0.0698655685422572,0.11235259090292961
0.033899273518661406,-0.01346123683307475,0.14255953850435288,0.15662717601513246,0.07235418553985895,0.10635477750702493,0.07925272426117518,0.1271140600846265
0.025087317051446855,-0.048775875380863955,0.14311250191609076,0.14254926973875373,0.07058719450540679,0.09922934369694465,0.09389006247953266,0.09968146513284798
-0.007323683225528106,-0.06582509965168812,0.08576824446132061,0.07136154999176537,0.04991548831580366,0.06381468903500462,0.04835919938204111,0.10749048400497904
-0.007722705107287181,-0.02713234673079636,0.08900347303913345,0.06681356542937825,0.05171854118588257,0.06123191075520901,0.02868682854072386,0.116542786964107
0.04076042071683109,-0.0228465618208675,0.1772374977229233,0.18295877636235966,0.11106182324495699,0.11880860665212002,0.0974156567316097,0.12351780358836
0.02475999171844731,-0.005636174248511649,0.15015305002123094,0.14669896176151326,0.0600734243689449,0.09650833847097506,0.07559295737833219,0.09903795602073166
0.020533024990109304,-0.06260815854938263,0.12365770801306042,0.11285185029275659,0.055590870380636107,0.08290918063098933,0.0721613157946736,0.09951098513164355
-0.03830811761175356,-0.05172337977404958,0.07191508116262825,0.045372848825090364,0.03239272818470056,0.05437238181925281,0.028248812797142364,0.09442146334672953
0.02851194119455563,-0.03507029141928495,0.16669385872639098,0.16934784760414712,0.09685310968196867,0.12788935366920648,0.11052007686724319,0.06390243835251158
0.018440653668476328,-0.038684933398191866,0.1660973710139349,0.17446991887825616,0.08340788817109178,0.12245994349640084,0.0995225638022855,0.10577313503139042
0.024543072843752033,-0.056371979931362455,0.15677383374356832,0.15078655982124606,0.0570919738854185,0.11970414600426395,0.09068837167042672,0.07507716856248543
-0.01559675864781473,-0.06334573008705412,0.09723437217685155,0.07684535763814054,0.054815070659405114,0.06817965134795721,0.04091042610152709,0.044590659479943215
-0.008886696316500728,-0.04845067461995318,0.10920776586323885,0.10869403707611718,0.05624272669441679,0.08544288816773943,0.06457989422888534,0.08969689252982407
0.04360463378099545,-0.017837133574440243,0.16896060807033292,0.17795757006907378,0.06907775620784962,0.12559251925422352,0.10799622436797485,0.09146400948117746
0.02863324094982371,-0.03375530887029773,0.1684529896514733,0.16024560278905484,0.07193835623497577,0.11560598536601994,0.08730375990669405,0.11969656001767688
0.01211191732275106,-0.06469403167705956,0.1285682093833354,0.11115594294802238,0.06282486791247562,0.10392877438647075,0.051865989405335274,0.06575512546309534
-0.0193250935274529,-0.0582558850052685,0.09447817682832418,0.054094417373636905,0.05659545169199847,0.06284924805149959,0.03619858143189983,0.09832216469147832
0.030635535988186507,-0.017164845244142735,0.1620226608271597,0.16726480055331858,0.08560363525786416,0.13022706697321565,0.10860409431354333,0.10434226089512544
0.032376189831370986,-5.141291503569088E-4,0.15130735706362175,0.15249540070893586,0.07409247458882273,0.1214127801603181,0.09085171309681161,0.06359965723210077
0.015257363191607847,-0.05891358839402679,0.13160278893826682,0.12137906113414196,0.0560862504495422,0.10640863136746087,0.07430218464394503,0.07697587947019109
-0.029337495872582515,-0.06567149901622514,0.06748817364103195,0.04246025647338389,0.03528019054380033,0.06311269742609027,0.03160257369985195,0.07154150436321757
0.0011110261737810921,0.02912830554168341,0.1291336698906807,0.12856445714764234,0.061368843960748376,0.09712216926970887,0.07658213128696376,0.09339061532680727
0.03061159409693617,-0.023288765700588653,0.15715619873566597,0.14955996906777452,0.07924673110864784,0.13196814520796415,0.11525384705752703,0.0982129556377777
0.031240291458947324,-0.040666790945235134,0.13709129242039825,0.13580354195097194,0.07837127132765886,0.12582752762302857,0.08667989649596122,0.09786816472814107
-0.016158534797892983,-0.07417400089243295,0.1087365066196914,0.07084661616460526,0.04425524654389246,0.07501139363882776,0.03846579315943809,0.08299061963353957
-0.029577253878306394,-0.04918183029508342,0.0929258716302988,0.04880241656714183,0.05232816091617691,0.06151875464668688,0.05002587984212002,0.07420653939361625
0.033608955135098914,-0.033691525196208785,0.1656062225861769,0.16619353377307608,0.08323840991856223,0.14999792997792588,0.15317059309556463,0.08070774304779668
0.03267579141856647,-0.07274858085997778,0.15032375320652244,0.14294453748524674,0.07168211123495682,0.13637267070723988,0.11333961970246174,0.0736991265381623
0.01469917775542087,-0.06485555976030082,0.10781308350983553,0.0987070672469476,0.06760618733096427,0.0935338934959859,0.09167741152153618,0.030207374051683222
-0.03371897950204151,-0.10724631645816853,0.07433600168868873,0.01601896278291884,0.049714101296437,0.05787193558695901,0.047131902729995824,0.01820867909444135
0.022571916969478408,-0.08530577591410636,0.141174983708041,0.13050471290902813,0.08634749586907227,0.11779146243668133,0.10896777079277344,0.09174312469089177
0.02319126658396696,-0.039064143437793186,0.1552783229065093,0.13381764849761413,0.09512890698900577,0.13419804403420577,0.1400863854037998,0.10634603777185325
0.00732861188155856,-0.09912856027704564,0.12421842181366885,0.12107653916429753,0.0631779292043494,0.129745893877007,0.10500498812934964,0.08885291295718056
-0.016547439294079463,-0.14071623926532723,0.09213879646465863,0.05811031405386248,0.059995662160832464,0.08098923935940604,0.08902739923382187,0.06474793121784145
-0.011289631604656356,-0.16043356599199946,0.10703535265143813,0.06769589702003231,0.06545718268242619,0.1082309387032469,0.10715005899463088,0.1090005615687319
0.03511388898299811,-0.14611841760715913,0.1613935098765297,0.14277143559492675,0.10159816510516213,0.16182257067404007,0.1655925272853961,0.1686144334428256
0.011487539646114119,-0.21875982178186604,0.1572806630121975,0.1246111099037804,0.10152556631623243,0.1792268822708641,0.14283885712635022,0.1977407434063918
-0.014593777975564541,-0.2790698982703823,0.10487427949962026,0.09408434370424668,0.0882936926462167,0.13839671824518626,0.13292721261539844,0.1802291399028067
-0.0453302835709912,-0.3052144062657243,0.084799594009922,0.036781218595294304,0.08771405473632922,0.11466951601099765,0.08664199023296863,0.1712494751358798
0.007563570641276938,-0.323098046724456,0.16681538814828933,0.1479103157065592,0.11088648178719367,0.17504695939785606,0.19311316375529278,0.1995271071202598
0.016903755700050573,-0.2795190248281356,0.18003197985799121,0.16528237704345214,0.1404985099657323,0.18656445976422653,0.21114689948361262,0.22287946465326067
0.012933950063652916,-0.2940700178408642,0.16802625954940828,0.14113526369947554,0.14189032090908216,0.18707303511858348,0.17715804218931186,0.28966347109376755
-0.03554620934581101,-0.41916869188634354,0.09031688534535787,0.049304215991346496,0.1092471539976594,0.14756093192424177,0.1481927613415109,0.24089169956847473
-0.022254973929619556,-0.3908551293181963,0.1236441769186635,0.07195067501478464,0.12026949910277838,0.16443479174467068,0.1422799019010337,0.26138243506658565
0.005959780953027615,-0.3772862904664253,0.18428655063984198,0.1563797667877403,0.1243653624080415,0.21063996344283478,0.199167117709039,0.24565717879003665
0.0015987239718789927,-0.3488625722235368,0.17716601713845542,0.16056539152493696,0.14198748258565844,0.20969437518990028,0.17950191071836735,0.23490587902024557
1.8284178767622787E-4,-0.3488022356956394,0.14861960898011942,0.10791896520988276,0.13314637647956426,0.17818958629684417,0.17787182425728268,0.27690651841136954
-0.046871458742142186,-0.35896873775050103,0.09584479204123045,0.07070034851121523,0.11322768706898063,0.14726424573551034,0.12264485746212048,0.2268438247593624
0.01512504561231618,-0.3226819449479483,0.1948912594302396,0.1824302264718293,0.14737233009204714,0.19940021375299807,0.2022147347317767,0.1600441359080844
0.02545246718546657,-0.2835706400792259,0.18232248525980543,0.17632051677715174,0.13662331202593725,0.2040074227086474,0.1913786122253772,0.18074241321776838
0.008328399381203116,-0.27308080006213975,0.1737478649364684,0.15170609585358577,0.12735804543703855,0.18730708883304428,0.1875272731128905,0.23637352207355275
-0.03639302637998552,-0.2690088747294414,0.1143042361919533,0.08625484372281444,0.11570704253496773,0.1365221970194542,0.14121767963782453,0.21908120409460793
-0.03394824146965822,-0.23622378512776854,0.14724017931543004,0.11437055624354339,0.10412343543283586,0.16849675347925375,0.17097567207091016,0.20612263349031582
0.0392368985552818,-0.21404509816028833,0.23639755991483885,0.2261035822905076,0.1456392443699606,0.2186578319697908,0.2209639326806683,0.2084796905941179
0.03230355778781309,-0.28115395168758484,0.22906817745146468,0.20070540906963105,0.1379106411554023,0.21060667202613803,0.21160816282152395,0.1708528579383556
0.004895704313222938,-0.2615753874331357,0.1616786955261629,0.14958908461676446,0.12809960110054316,0.19497668630272802,0.18595532734482395,0.17772289054361443
-0.02156767036572401,-0.24588523894309602,0.12019196010625136,0.07540744486809814,0.10084358060267838,0.1381411099577592,0.13278801900514062,0.19140434975457257
0.02451444388533396,-0.2266217110117381,0.18501884609215277,0.20535104907213983,0.12671105972630833,0.20131416970935073,0.21592790274255022,0.16378186312587606
0.04427361979570298,-0.21904305092017512,0.21797367583022056,0.22119739995677878,0.12066937247965885,0.2141872778083155,0.2240862869879793,0.13914406705901494
0.027510826485500878,-0.22790802967613227,0.19514858058918247,0.1953404094052929,0.11035397089162763,0.1852065480488388,0.19122673888966185,0.11719159410222292
-0.012260183316513367,-0.2737509119743484,0.13739521015882933,0.11098654503280062,0.10502785475227482,0.1449641830213907,0.13699090518374335,0.13183398334375446
-0.027429129536735226,-0.2681198569207803,0.08782130952795543,0.06716078731913937,0.08373363584392893,0.10683717252401254,0.113350082791448,0.13753971218722982
0.027366959348419553,-0.23492766496478282,0.20490959060041622,0.20386386206462417,0.12811543598900915,0.19466020988154156,0.21429427364660245,0.13602198962806664
0.020915930428930297,-0.25851611029231036,0.1965073721626737,0.20328721764000202,0.11743037647334381,0.18290334432224298,0.1993699730197825,0.09557800237670137
0.033268649229366336,-0.24886708982785874,0.17599518138652878,0.17689357464583372,0.11756176582504466,0.16946620671210114,0.17779307314880266,0.11873649390728379
-0.016305264438442386,-0.24024334630256458,0.1113035797358371,0.0874205584856353,0.08799429972732627,0.13010379947861017,0.10646072761352968,0.09973965766307334
-0.030813057399656237,-0.19051781869663015,0.1255261517401196,0.10665573579335985,0.07401424497410236,0.12115436382402911,0.10608147883489698,0.08423684496087798
0.042096722503234964,-0.12472454824090441,0.21587542176384766,0.22770201212344945,0.10879674206828076,0.19103819253550494,0.17295134622397607,0.10167217557120688
0.030734081285308693,-0.18690015589707462,0.18821017412612107,0.1954117508568262,0.08725499771130407,0.16396078175526868,0.16991530456893475,0.07099673990148574
0.008046292481752537,-0.19104292947948545,0.14732891656816408,0.1449885484320265,0.10508442885090433,0.13904521170123416,0.1339231678780907,0.12293761799658941
-0.028746628897289555,-0.2417721959816353,0.08546977758624558,0.051345946935493325,0.07063484939397136,0.0909487954104164,0.08009487733157611,0.10761379987032592
-0.0022409800773348317,-0.190757438052327,0.13359317997354855,0.15458974310084533,0.07698283941916412,0.14064741827556504,0.10879044207268983,0.10913106126850641
0.03325514435343582,-0.16257736584232946,0.19006688980091044,0.19075207445756265,0.10524650365929275,0.17500812811166946,0.15985039767556977,0.12646903978380766
0.022089385596178325,-0.21140519729582186,0.17072631738379526,0.17105890286877404,0.10612825805695356,0.15178393299515897,0.1289953553718271,0.09807355930123224
-0.014069356280626654,-0.22727160786190395,0.12497464382148556,0.07338244325502154,0.07907794135207871,0.1147704277925381,0.08920736229413466,0.07879292234852248
-0.04846701759729636,-0.27152847969855215,0.05210592295490441,0.02106308300783107,0.05657986057215525,0.0764022194352688,0.040669044545901964,0.05854682378171189
-0.005698318725904174,-0.1927837337144664,0.16304212897041834,0.14826742281760838,0.09154044611895343,0.14521802567133618,0.11605832300691557,0.08321680832303016
0.018433898191771513,-0.1923958551885167,0.14430530679802625,0.14482448099258183,0.09048433700251998,0.14685681397451064,0.11461314315921,0.08220723140899802
-0.006147857174161468,-0.19245656838738814,0.11902802288279223,0.11139734427110387,0.06883077406310581,0.11911575549057565,0.08739957508818663,0.046519728645347994
-0.056235484280716896,-0.26204062464899075,0.059783549041991124,0.05272260203982855,0.04853094656246245,0.06839499300814272,0.04736575298860958,0.05559597640905922
-0.05105767636048771,-0.2341074362007695,0.07284360588768657,0.04427694692507494,0.053378246110163424,0.08010619214650751,0.050231210954716055,0.08299420897616282
0.005921905622297771,-0.23464792975583112,0.15964564805280143,0.14296286828009094,0.08396311797517071,0.1439634103333416,0.1154543437496019,0.09863079534843798
-0.016550577932925095,-0.22659787092421194,0.11916660013594903,0.12306398382450298,0.07873070126733561,0.11947641759621773,0.10715001125177404,0.07187459051016375
-0.04147342865863254,-0.2438616783200526,0.08195199651332918,0.04925851018236856,0.05219170216698495,0.09063831280690869,0.07881230002565354,0.10449240621886578
-0.08135809865111623,-0.2605576541873022,0.02443914187690504,-0.023808985017155424,0.03213958826182196,0.024365693877207086,0.025619817370764363,0.08004943517027993
-0.01790369681063512,-0.21248128327359342,0.12874990933143995,0.11245842512002475,0.06285903021413618,0.11361515111311361,0.08577838809504644,0.05222974668291311
-0.01776079001708713,-0.19938130501870907,0.1325037307450512,0.12972224522673062,0.06542110264498067,0.12001923001376945,0.12582094864576215,0.04304254765095078
-0.00741029030266261,-0.1900531302017421,0.11737146936687853,0.10970879466927873,0.050952502642766004,0.12411142819501296,0.1001462965742506,0.06959576654695532
-0.05778355836219413,-0.21441095400839444,0.05016743179531247,0.012913167465105955,0.03929333101389716,0.07244076532588398,0.056867305550119054,0.05375509000414913
-0.05963601704642932,-0.23748322126685578,0.04825975592901173,0.00556549196592254,0.037669278563501524,0.06131314480737885,0.02560558790476007,0.07042778684789028
-0.003926912249506768,-0.19069230261602377,0.13829206674065073,0.13885587149313733,0.08533067894897889,0.14460440835734734,0.1140479344520871,0.07292861071746487
-0.002200982952685824,-0.2142232965826894,0.12485558595874406,0.11631277833219494,0.05276636567762812,0.11789629406000264,0.09251452345227633,0.14505665166392712
-0.04144055308347989,-0.24696768417451181,0.09677756959260343,0.059157071265363036,0.07422174329788334,0.10824246587652754,0.0743467060494138,0.15860222220465822
-0.09102023655708844,-0.27413265216314414,0.014654383285341598,-0.03901545095765853,0.06312429747020308,0.069659629722407,0.04845319979811641,0.266594444946234
-0.06194539780777455,-0.28445470401662687,0.06492513165702817,0.0193410178476967,0.12491774501384148,0.12168163964819172,0.10115450575774736,0.4051121619606078
-0.03206214856234613,-0.27942451476104885,0.08802083192573736,0.06273434959924963,0.10990992992365585,0.13878081035508463,0.12206887811922082,0.3679299448750007
-0.039424879739594694,-0.2291320624813485,0.07825654919006252,0.05184788728694858,0.09204815339529636,0.12319720253496155,0.11542758878520853,0.3075696914733899
-0.06122010681013128,-0.23104695656260807,0.013720214784609953,-0.03551776778833761,0.07286458141175423,0.08133008533011206,0.06861004683434406,0.2769893106751757
-0.0854110144378343,-0.2237390979227174,0.015619133300538207,-0.03484350407136356,0.06300868037269199,0.06086956800372496,0.045276075830628974,0.2731396663177688
