-0.052432451506796915,0.09660219361788186,-0.022480219101188963,-0.11769305301699595,-0.056062279179293004,-0.08655834586502484,-0.1042493911320391,-0.07658737716077951
-0.03525196904145545,0.11270897434330136,0.0035523504692042546,-0.06109921647318619,-0.029169252642596146,-0.0684972004560249,-0.07452934628822945,-0.07206404863866882
0.009040410450267213,0.14824205718120745,0.049839039998900964,0.00419941078595381,0.005667965147729692,-0.019856971708474655,-0.040574281120744675,-0.048269543832464464
-0.0032468120216059115,0.10895746449498034,0.03796569481418815,-0.018117290577570038,-0.004609806468436855,-0.0316804155421121,-0.07632713110712427,-0.0061391358222083366
-0.02965526819115062,0.10282043544269971,-0.0017329306844255793,-0.07916069897886283,-0.006553502500621637,-0.054042080783209025,-0.08581639082511067,0.005054147672463915
-0.053650268316537006,0.07879644623409843,-0.041071346138650766,-0.1378306781812861,-0.027499218921937837,-0.08443765421776853,-0.08884240223935176,-0.032019253245566995
0.006213361986211938,0.13221083111282161,0.05427352211922466,0.006250400300031916,0.020214680740541516,-0.004497171814627422,-0.026693118356331598,-0.0032489708456862505
0.0093761910072241,0.14926827943851312,0.07086479840485593,0.01412611551638366,0.025537221113691166,-0.00749385881435557,-0.0032551843407445293,-0.008127414149309908
0.028646719575167727,0.22871477028527218,0.07883687254840133,0.03412122358924606,-0.0040974571432099635,-0.02393977723894125,-0.028588274927301618,-0.062303595478801745
-0.0031758559327224323,0.2019087301603164,0.03275212298179277,-0.041687598306016684,-0.017128339474360807,-0.06064488121684501,-0.08035487755200038,-0.06300722835808342
-0.004238926673795017,0.1234920562186426,-0.00603773114608161,-0.06770966595978903,-0.014980009367618171,-0.06871142195451217,-0.06593454146934896,-0.050101059140345426
0.02741585340481486,0.12869817359226515,0.08813162864414115,0.04824087327294982,0.03627321523002664,0.02235463747490897,0.008703073314696812,0.005935823754632887
0.013865387992813177,0.1058145138377797,0.06300515633598104,0.015591338774374575,0.02305973265695096,2.7574280646411667E-4,-0.005066883311188854,0.025875185051869237
0.0138736516041207,0.08990762040758417,0.036019935409384085,-0.008782988032069464,0.011655534395570691,-0.017180245694551684,-0.019122911356349453,0.005990179531653539
-0.03740530633598091,0.057575328160807286,-0.035899680513013774,-0.0937656314834806,-0.007154700438224731,-0.05468546822076825,-0.06884820345753997,-0.00218870699435841
-0.006195226276457492,0.07446435038890861,0.03899380785909413,-0.003996077255914367,0.02323303055498936,0.006650300877726029,-0.009535196709996002,-3.198457104070275E-4
0.01153141721222312,0.07526829858484438,0.05505885510951332,0.014771379936091567,0.04061238412801498,0.014756140452948366,0.01313794718741779,0.02315661408874739
5.806776309664023E-4,0.07152733692784582,0.03606029324178654,-0.013466067446708203,0.018424504531728572,-0.001745996913663679,-0.012925578238385308,0.029254809029294705
-0.03251943820130376,0.06569406660362621,-0.008384641494631431,-0.07545722385953427,-0.0023111194276770573,-0.03228405145273035,-0.04979197396760787,0.0084830348590926
-0.025629232489522112,0.07659930703377225,-0.005149109293326147,-0.06514901046269217,0.009898276087765927,-0.05040704084026118,-0.036239716239641936,0.011626863466054344
0.03073435450836476,0.12117934253792681,0.07621174922179046,0.06294782617075428,0.03620882161368525,0.048330940682944024,0.048466760050424634,0.021363591364467256
0.015804951614971814,0.10820287413179777,0.0696721356784892,0.03866813376220464,0.03938777734808918,0.02339041870191389,0.001802171910582774,0.0069010482619236285
0.01007626837352556,0.12369118740298227,0.039789710823614655,5.883277190153677E-4,0.024717555909864734,-0.005078206768816734,6.384879914773933E-5,-0.014873495181350949
-0.02703303316393057,0.0851372072869054,-0.004570257319389162,-0.07527674359552147,7.692263892288831E-4,-0.04082178148806136,-0.03253811202648951,-0.004500260162110685
0.038752607872687056,0.14195180765134066,0.09044806271650063,0.04752838724305973,0.034532791260516074,0.015776956741125447,0.03040657893368765,0.03483790969755059
0.04085062729436052,0.1683740267003625,0.09181235707885632,0.07024189476709947,0.04179774467716766,0.039542338362582384,0.034435960951778546,-0.00430183033745786
0.033536836236336666,0.10539081086228007,0.0745010984459552,0.049025651791303304,0.02763585880165075,0.013288982693100368,0.0029755416860423028,-0.03298597697382389
-0.012142430052576599,0.08106306653301523,0.01700900735523193,-0.025701162259998973,0.0019042691652131523,-0.0336422635694109,-0.03184220046920083,-0.02790394405134013
-0.013715074233292334,0.07695196884687551,0.01959650270630975,-0.034945675433768884,-0.006910935961865906,-0.03778747635316525,-0.03733192763269358,-0.02939711259295002
0.0409534874127037,0.1321801374577906,0.09807006157766152,0.07493804367610479,0.03392552705755287,0.02742613356529195,0.03663902412677284,-0.009685485131120056
0.02223237530002979,0.0976635065955485,0.07372074800053162,0.03929914980725088,0.02549194022515829,0.02011454975195272,0.008732081343767939,-0.0032275850307215033
0.00353593037882057,0.07230135609410517,0.038219705528080974,0.004554104236782961,0.01484752649054726,-0.01449006315843499,-0.02238727888748343,-0.014584251579532043
-0.028876437891527364,0.046973184628737015,-0.0020416289937326138,-0.06601645134885582,-0.006155348923623422,-0.04544764390749002,-0.06935793374491857,-0.04149635615991962
0.030896665182535643,0.08203316308457087,0.0830800623734708,0.055568124444962494,0.03253649402544569,0.02988874223286514,0.01931716978051769,0.0387349647336646
-0.003448188267828403,0.0851394431445013,0.05492899611709317,0.026454854846473717,0.018525710902374027,0.010324762719637524,0.001833764551771466,-0.028966799292775545
-0.0030130272969831062,0.049280226875320535,0.036687246495110806,-0.007007510851450738,0.018730587437606583,0.005422452688593581,-0.007133628927384032,-0.01404589685451962
-0.04130074593831972,0.024660653314375378,-0.013184980353527963,-0.07668540350661955,-0.006597496339810698,-0.040571036017599225,-0.04813592062868779,-0.02606565162080221
0.004162817624299981,0.07921200076809799,0.04805171150394756,0.024956997419092186,0.029331405922219188,0.022967971722137024,0.01598028886238415,0.01673074635274805
0.03045783581881997,0.08520492177635133,0.07938528669505765,0.055446279023839334,0.04508076793306751,0.04819830671633742,0.026921421431704826,0.01132266449366721
0.004838642360416532,0.08573847372251783,0.07638952775661628,0.02840886799227843,0.037082249658269506,0.03806664780563563,0.017242599628199545,0.00987755168300963
-0.025153852387989353,0.06645455317276282,0.02672759440241858,-0.03072230842664211,0.015713420823118947,-0.010461776803690297,-0.014986654198335517,-0.005939041030198891
-0.00845260587534712,0.08043996742590255,0.05856643246222057,0.005305159526477126,0.028749459096040708,0.021544757629813588,0.00593265341965871,0.023198352891927444
0.05237776087350372,0.11169124240882171,0.13367350041937617,0.1131580502424831,0.08645179132811434,0.09098257552861216,0.1095230151212409,0.03504232183243006
0.08298589315851913,0.17445267022421546,0.17592578382035542,0.13229127365317175,0.1296874426144849,0.1157421743524217,0.12692372175284222,0.08880707869779843
0.08570382822857892,0.1456714662332878,0.15679527574516505,0.09371021639179533,0.12265958870216699,0.10610667470581714,0.11522431382970535,0.11512900737727902
0.02201564604956801,0.07163057853514519,0.06325126813660498,-0.004458770722824752,0.0725221254214127,0.046581124644520494,0.04368363958833378,0.08809000845657629
0.05991673908594908,0.08846670971824994,0.14509809407439725,0.10570862660698294,0.10440166386842567,0.11203646470278801,0.11640457667281644,0.12402372191775433
0.02678756005238697,0.11170373482691368,0.1264349805331337,0.07616621760183712,0.08385154712068962,0.08343882162776049,0.08896436097185421,0.15193086239440434
0.00871170025928068,0.16828536182553724,0.11026626780169756,0.036473972269266686,0.08608856105774662,0.07459371716380589,0.07179023193523969,0.15642010584116775
-0.08072192469547271,0.07239623505678885,0.03777885908583243,-0.06517636118047171,0.07289543685843192,0.05328690181704581,0.05154960727004497,0.24378441221988664
-0.0471004979596591,0.13743454223252238,0.12216586686808831,0.053369788335383014,0.1513541879487469,0.1604125527515271,0.17783518553961628,0.3424483457409518
-0.008718036942745585,0.2454329667722838,0.1131630889638513,0.06178575492414769,0.17026862904665696,0.1761248692638993,0.2090667740927376,0.47057575201912344
-0.02832331076847439,0.20439776344280858,0.06340210483308314,0.01989841452134336,0.12792991364774564,0.1419349238329347,0.16991835378499412,0.39857600453180814
-0.021689889325034812,0.024719258480146496,0.009626399254836958,0.01337653013831087,0.10683760179571027,0.14142465488970973,0.18548188187770726,0.3378184380657621
0.13036136459236985,0.03861208564247413,0.27418113283314954,0.43927664710976383,0.3485763545573031,0.45078654266009166,0.480109843745911,0.4482134703144348
0.20981197379657324,0.13088085725797974,0.37282284509115854,0.49151103979335464,0.4159954945751886,0.48060435099020044,0.473692275478457,0.4297275431999802
0.16043236290237223,0.14958114638743228,0.30583623133495796,0.3018135314772015,0.2709048243794068,0.29417624854861596,0.28086539306997527,0.3738402521865074
0.08475749165986347,0.1826582349200169,0.17456214619430366,0.09535416581170059,0.18794643149336515,0.14870439163281562,0.13567045416800935,0.2957407544165235
0.16205193364562437,0.28906393769620764,0.2699183069240767,0.23830321241335442,0.21452960129588441,0.22065383223245846,0.2215558216608597,0.3440564432403017
0.1652136761081072,0.3570546528569162,0.23445252187184418,0.1951292046462561,0.22471963958611463,0.20865183836675733,0.20143234656555914,0.3909202664408474
0.15922324252799713,0.3303049054832059,0.21892692787141566,0.1616974559677267,0.24227524961632022,0.21494845822867162,0.22442769114853084,0.4082806514730827
0.10580349965903976,0.16645197085367022,0.12733722297448138,0.07188633961593682,0.23927613737465667,0.19775378958847328,0.1866676065937056,0.48515770147830767
0.14654956953816095,0.07564979643355482,0.2078343098071081,0.2083398023946119,0.31106134618701564,0.2803959068897157,0.2904703929431683,0.5423342732076188
0.137977380628295,0.03520518301075199,0.1845840275126455,0.17586600414052056,0.28482534614611804,0.2661309918261664,0.26496880542490203,0.5067539343409634
0.1331178610723603,0.0625545243208947,0.1542729050833516,0.1367161782009713,0.2556572988778822,0.23463859886989022,0.23515708704953583,0.45544713483893007
0.11290929864761946,0.07126469699699282,0.14567640694327375,0.1169363009329973,0.24995865202643214,0.21537867260684515,0.2309943942196574,0.4629461199219823
0.17170649324104972,0.09147304914683221,0.20964350112449942,0.24477482459724076,0.28801647223998206,0.29327693635811836,0.2880913362858257,0.4425037494332931
0.15414844443289527,0.06353579116833233,0.17227844522113725,0.1871557895929178,0.2502809068178153,0.2561103942857992,0.2476044481241933,0.4457450573582245
0.11045147147438843,0.03359963253749833,0.11736812741936112,0.10918960759840941,0.24323321640193088,0.213432396123713,0.2168770787171656,0.45310746725364703
0.09279359261110634,0.0449890689733036,0.11307775354183452,0.12016494132693763,0.23531051872480352,0.20336350298310887,0.22007300339703115,0.4545076766464261
0.13654684364361586,0.09604579787870121,0.17403297557720146,0.18717000784752835,0.262507102997575,0.2600395462386328,0.26325314642291464,0.44295533803603165
0.10401123929451239,0.08645103171066515,0.13762320541178805,0.13107078703795777,0.237031239497806,0.2204663993821023,0.2286552351851111,0.43133454725182163
0.0676473012065434,0.03822828892464964,0.06526422656112316,0.036366209200610226,0.19267126839598614,0.17918304809736352,0.16699399523396893,0.4006510583661572
0.07148337343865582,0.04865615663252017,0.0865766155736305,0.096664489143552,0.20200766355657543,0.17935034618924312,0.19731003632338473,0.3634172373706146
0.0908258450703849,0.08588629209814247,0.10354542246861421,0.11826819183491621,0.21098472313074731,0.2171520515334181,0.21663686152397243,0.36356966070819996
0.07116189855043166,0.0545527733876668,0.06883949461374622,0.08397142061269482,0.1790980487681242,0.1802597218006914,0.19014235151987316,0.3927421922854934
0.018650184340974457,0.02656391333220204,0.004548017112496217,-0.012940901752361175,0.15841905385090005,0.1409626583977746,0.13491000054862007,0.3238746780054166
0.04445483817172991,0.025259430509219544,0.04488662530988447,0.07609203467560144,0.1670717505467815,0.16133398994299794,0.18056168567061145,0.3416919210086756
0.050538539054311785,0.017171535673898248,0.026683479470731387,0.05631934344281263,0.15959414576051095,0.16570538461342865,0.16996788873899674,0.34228367276646343
0.0269124265425411,0.01384583659198416,0.001001959713430125,0.01838822722085524,0.1420900452159782,0.13389868301762464,0.1453956395007802,0.3152132462811027
-0.01942292086430287,-0.02499612612813689,-0.05449935808190544,-0.05737062208758964,0.10455409570860272,0.09097163359657158,0.10428231312183968,0.28142456436564217
0.017995517989815003,0.01901222992728221,0.011751457198799062,0.0600887605990785,0.14114521011958328,0.1630366865753513,0.16320837409854744,0.29264328569267806
-0.0024316187973708724,-0.012997413906682617,-0.014153283737607214,0.011921874125124104,0.12268775186035237,0.1279093714913748,0.13665920666990655,0.3060328430375754
-0.0147883806043391,-0.010583434999480074,-0.043412969018350706,-0.01691895770777288,0.1084329037008418,0.10531829634823209,0.11621134809346931,0.26491785626660597
-0.050038552925343864,-0.0471311969695308,-0.09849041429627851,-0.09699765061051487,0.0886483257246712,0.0738113355178911,0.07799528136655992,0.2842884023426589
-0.004572065487625947,-0.0230711228362972,-0.030083398643800774,0.027023085299586594,0.1115238606328284,0.13305966227162877,0.14768522628980332,0.2722117069048938
-0.01559877614452117,-0.03177511717399665,-0.061379272626018694,-0.021173750205108324,0.07798107724997402,0.10442885716197531,0.12576892529700873,0.2485910700748273
-0.034463612378171,-0.013707827578744362,-0.07541761060587987,-0.04276608965803177,0.07774078660955719,0.08251536267730065,0.10179320317062199,0.23577290113140784
-0.06424269553847041,-0.048801060864905293,-0.12858895957097471,-0.12827885513952952,0.05550972320862302,0.04351511134718984,0.05349780007886458,0.25959234130359754
-0.022294579040415888,-0.02825622915509163,-0.05683392351803328,-0.011650157301502363,0.08413301419746247,0.10095311567583347,0.11851073771516378,0.23952709598348645
-0.030543074898376297,-0.047782429882862146,-0.07403766585695769,-0.035173437695946205,0.05681464538473533,0.08098204609660904,0.10590606626687124,0.23028669910176477
-0.04295199764347324,-0.04367443977323185,-0.09070515320201902,-0.05999148054886893,0.06181342780209664,0.06233683925319179,0.07296911344069103,0.22015701440840751
-0.07653934664090299,-0.07598916676696951,-0.14668149935393388,-0.15463790320247553,0.02959907697826596,0.025229191610113118,0.03223207916300279,0.19815266591331165
-0.0495452409223594,-0.05719246097786951,-0.10482581152108186,-0.07863912829276001,0.04527309245727587,0.05779248759901519,0.06435472670975462,0.2258694982745184
-0.026471562319685903,-0.034104144538368436,-0.09705265179802736,-0.05189965082687784,0.048416983647958836,0.07787108115422713,0.09104568820246224,0.20222750720963192
-0.03984063684051174,-0.06642214847215003,-0.10112660191846519,-0.07654502935515775,0.042513760799354525,0.05632252436544058,0.05893464532140057,0.215236406921465
-0.07600166599896448,-0.0735229109598425,-0.147853498046583,-0.14373900111077056,0.026157554719637523,0.024040354839355644,0.015460375921609586,0.19332677773813645
-0.0848722751522902,-0.06632795362440955,-0.15790051273030883,-0.14299029754592252,0.022387000168379953,0.013579515165344492,0.026453838767890085,0.21323600015482502
-0.04777280948160609,-0.03256030770063052,-0.08850104643117043,-0.0496939713450174,0.04683455960024685,0.07331898094723067,0.0777595598110083,0.1906248693611497
-0.05019914734350245,-0.03114681619769892,-0.11666877979417342,-0.08230084572446346,0.03874571639362265,0.040722181417296235,0.04237546580494434,0.1950417761051116
-0.05863950324678398,-0.07347197763678656,-0.1411295823909988,-0.12507457059708682,0.026805263970284286,0.022146906559788102,0.02853685410832435,0.18893330845681955
-0.0918084861833185,-0.06491006733853963,-0.17177361859239523,-0.1838698863669168,0.0036388369361316612,-0.009260845840509846,8.221922566438791E-4,0.1668592631357832
-0.03490429649871562,-0.032843838701716144,-0.09176042957644365,-0.05457459466897428,0.034036848827210815,0.05785927908493191,0.06618055453893001,0.179850297931708
-0.04393453629555387,-0.04138478872022727,-0.10707231467720549,-0.08984829984731149,0.028070348720650253,0.03073934296623513,0.047470853163998954,0.20057668374720453
-0.06166142230811698,-0.028867205375354893,-0.13036091655394094,-0.12111526541455656,0.036950454896547455,0.01832274179771394,0.03470827852371018,0.1778181590692493
-0.09231235147749851,-0.06889231475454033,-0.17188040724645448,-0.19705910909998953,0.0025424268060321997,-0.009877549218028043,-0.013095003778476125,0.13549684200552892
-0.06257780742925076,-0.0399705199501867,-0.1256929444561122,-0.10738139929383304,0.025781675809798003,0.02882868549960718,0.030708102052558854,0.16865219975369622
-0.04295572125840853,-0.02871049302618424,-0.08726892294394667,-0.06479998840919651,0.0357930717719825,0.052835119367349796,0.0561850553882184,0.17329360697621876
-0.04420879598030615,-0.035419541755083106,-0.09144627968442497,-0.08640610148803025,0.04170173497257876,0.03663377142247193,0.03479091385268454,0.16830684527668396
-0.06819600098578953,-0.05344858334161754,-0.1289527939354241,-0.14750958886498933,0.017792423705072558,0.007713960074697232,0.011062697783282442,0.1576103014015377
-0.07867989457354303,-0.07668421010523446,-0.14405384768307697,-0.15347406446118758,0.009225226615575186,-0.006009739392826726,-0.007394276789440636,0.15504312912577659
-0.030680747050973255,-0.03499037356933784,-0.06281626560237669,-0.029693831769078107,0.04228703023572752,0.06857908935719348,0.08236535781431142,0.17467649859468284
-0.03684672578588148,-0.028907490644975914,-0.0718068351625988,-0.05679586154786491,0.04198869177777983,0.05064816627704875,0.05910198071387929,0.15657130282404005
-0.04395212712664007,-0.006293982197573086,-0.09361256925144418,-0.08209101324835417,0.041941585482134586,0.04784562948091209,0.049374210625060706,0.14489499726271093
-0.07032164792609505,-0.04780311837455184,-0.14057368624771016,-0.14930880872555335,0.010566669913965532,0.0016890354542627266,-0.0010555806684152888,0.1567486892159752
-0.046711751827063025,-0.0411593475722276,-0.07950432331359222,-0.06332065873483447,0.044951837847456454,0.045327841563046596,0.051037955148074535,0.1834314454403048
-0.024755733849344614,-0.003081764480322876,-0.04682538510579226,-0.018879349783016454,0.05163586848025713,0.07623560673141822,0.06816831622445638,0.1914383393210978
-0.026594422049487608,-0.0081318588006341,-0.050631830305314714,-0.03453939049979102,0.06678823957013111,0.07038558317113755,0.05951126954326576,0.16875369897390463
-0.051897953186046286,-0.02478380511538029,-0.09310283019609802,-0.08074655420726636,0.04464152966702345,0.03646957986721114,0.0303781501729061,0.15819539697341334
-0.07456257556554852,-0.022966223480359677,-0.09957048476130258,-0.12315759480673193,0.031063342489385682,0.0028769997099300573,0.010788737744372473,0.17295918729818932
-0.023548606294186855,0.01490937939315011,-0.026707710734387408,-0.0034539142117331082,0.06417062933419128,0.08143153330709804,0.08022973564487752,0.1735313655595462
-0.025632857248478302,0.007950707927366511,-0.04152680918527698,-0.02918533266791002,0.058895216624995445,0.06765407977816561,0.07050362469866647,0.1993298976681482
-0.03686031413768155,-0.014577982992783026,-0.05688149562216249,-0.032944450597596486,0.06984977181881374,0.05874740405353259,0.06131893920427758,0.1983715673349821
-0.05808327670726766,-0.029144180681891844,-0.0858875287053148,-0.09732905869484253,0.05010254621270571,0.013076810863214926,0.01339848924534217,0.18503499845836585
-0.048549671046955685,-0.020908161610215026,-0.05646867478798881,-0.04870046989847982,0.05061014652075232,0.040764169699237005,0.04465695770922713,0.1710824459743675
-0.01127546951734966,0.004911195378199899,-0.028158006431451634,0.006879164016076214,0.0767279066148515,0.07865347258750127,0.08805575394349249,0.16330113759484607
-0.022202825751668216,0.019702258912164754,-0.029410936716669084,-0.010478550527759038,0.0640529214585362,0.07256613160176639,0.08087694010055026,0.16451025616437184
-0.03972956565527682,-0.01611955096069212,-0.05954059157819777,-0.05057912517280704,0.04865795197983373,0.042438294965610156,0.032654814941928255,0.1583651132904329
-0.05542547556210704,-0.055771162969357364,-0.09053845015976925,-0.10909120569376224,0.0339147995256521,0.014149225631944021,0.01908163635220365,0.14459636080161928
7.910028398572288E-5,0.0068200224685791115,6.430442119735955E-4,0.03407013285395349,0.07884427085214447,0.09417782113163004,0.10574005273114459,0.176886638587342
-0.0015994934640413375,-0.006011026889423702,0.006429764338172489,0.029975538452372295,0.08003860638888335,0.08946570401484535,0.08794805406430563,0.17568950157099514
-0.010604354866037745,0.0063127845958708545,-0.010552546562704306,0.01126882827510823,0.07341941047520409,0.09053612915285202,0.08491842273613534,0.1975123856475907
-0.03137691885283175,-0.003062992503602365,-0.05450292430356052,-0.05424400191565436,0.052246462691181716,0.05099717039876268,0.04900201246778735,0.1865188194362297
-0.0377700822845246,-0.01090795393054718,-0.03014146152435116,-0.026585784149119173,0.06543937377428748,0.06187784161852418,0.07258818667428776,0.17009726818130097
0.03087941414082844,0.0010657913681837682,0.039570482519387364,0.08750290993724641,0.10307714812982391,0.12401014447771741,0.14206613871965434,0.19328960027907452
0.025191858209611024,0.07634084721325836,0.03657484187866493,0.07392501350197073,0.1124229472294879,0.11963999009262558,0.12869056155703226,0.18428874603635045
0.0042120777331521204,0.024324044562211475,0.019110910878951375,0.025506761757976913,0.08467541548865358,0.09867444699266976,0.10429273825759301,0.19291826432899536
-0.030506503831353168,2.199038776882281E-4,-0.018449163099832112,-0.0342330054546737,0.05880339723306646,0.05446728206548917,0.05016436593714149,0.2011116698011567
0.014132178282220997,0.006659015226878329,0.029971204034351176,0.06361972105403257,0.09239310742520503,0.11734079564369325,0.10933094552674885,0.1773174384861668
0.03057160400919845,0.03781293810690511,0.05550530413729734,0.09198652533055807,0.10800904225998792,0.12756717128521838,0.14018472897307852,0.15497857208865964
0.026940632650753,0.03471087943778618,0.046753755761282205,0.08522056573556942,0.10093095748828547,0.1313744791303432,0.12458635680023364,0.1885347529413943
0.004367022287070515,-6.36726129524097E-4,0.011172786932419979,0.017824584047816536,0.08074460377696954,0.0940419234638788,0.08490310892126285,0.1869114363532825
-0.029171076028109113,-0.03357777313454739,-0.04066673255230758,-0.044830654563035574,0.06743996332898533,0.0539652197920927,0.03787531033656816,0.16613191630213375
0.017599497081165753,0.011608485943070294,0.039508736314989884,0.08749330974651934,0.10578240659299695,0.12422734496712151,0.14253481506368254,0.1796914374505884
0.021672544176419048,0.020581061912427107,0.044057214545921326,0.07496209102086343,0.09724478584442567,0.11525927932804544,0.1177208481209541,0.1633364788582676
0.009290968799378033,0.03885245296510887,0.038188505913592435,0.06178214965511563,0.10088854564922098,0.10776756877888223,0.1165038391038336,0.18446264299928933
-0.023353107964558868,-0.002521871578541352,-0.007278125883493816,-0.02124491629216456,0.0715024563611755,0.06367422404978038,0.05821985191108336,0.1745182301452823
-0.031469182599217486,-5.256697260965816E-4,-0.032377544973941595,-0.030824305013500045,0.05569856304612936,0.05100686503077833,0.05635391467740872,0.15910799572375706
0.02583275514937243,0.03065623537838613,0.06891443157806124,0.10097049333722939,0.10323606091871357,0.14386216949327957,0.1581744989746081,0.19679883108450075
0.01119954555068367,0.02567593446444896,0.05589106897798676,0.08981033326902224,0.10973295026148279,0.11991558855956916,0.11895011018670308,0.18765042226892834
0.009496916517395797,0.029624597164291853,0.03674651944049694,0.06281121448117132,0.0962469164354712,0.10790639968827383,0.12059113146925196,0.20860143222919242
-0.027043631057025008,0.005445944206200655,-0.018977611242531087,-0.019034172584826422,0.0716828047294632,0.06801904303256211,0.06756639675242529,0.1714234942264958
-0.01869571236261351,0.03673032216925862,-9.656530119545206E-4,0.01599709856039973,0.06801287918706998,0.08014284076130218,0.07167103866671105,0.14971448097466164
0.035244714780144695,0.04796908645835626,0.07976209078776797,0.12887441331676217,0.11404327502522368,0.1574252128774875,0.1573375191027494,0.1756109290250943
0.03629564140111955,0.04520817787979588,0.081519807452493,0.10642723589657326,0.10150183719021856,0.13168618210042893,0.12209480121040844,0.18664997176798648
0.014376814329027703,0.05045790730546747,0.039984413143790934,0.07677248573427936,0.0854879578645985,0.12223109936462677,0.11814168298131326,0.20805892228493708
-0.015291033391282105,0.01811032564145578,-0.009710096575508215,-0.002835935498108825,0.07191412158965582,0.07746613631081303,0.07026711987358532,0.153984764411597
-0.006938860150549642,0.011489733790723374,0.014446142514494865,0.0352112250756327,0.0888092709764306,0.09299317559879894,0.11285324255701809,0.19916606214886917
0.047475026655550666,0.032062525743171824,0.08687752210890863,0.13078156207440994,0.12006523013763512,0.15631758896014877,0.17828334574670598,0.18587563993791648
0.03230407795434179,0.045614161881274456,0.07051520648342073,0.10218325875350254,0.11667855659436492,0.14176366696799575,0.14468868377044167,0.16695883681295565
0.011279486041618469,0.009641467531459957,0.0360610875663588,0.05109990011204591,0.09261003750752102,0.11037445308118198,0.11999124769131907,0.15079980204782417
-0.031150149027249125,-0.02680666547114649,-0.021084604127146838,-0.016250604210810305,0.0672215547107548,0.06853275529588994,0.07576480679284713,0.15351978191426247
-0.006168045618911334,-0.004852972891844585,0.015032337101014804,0.045548714554646756,0.07807453653129887,0.10079134084868266,0.10077450703337736,0.16395838052462758
0.026935799053952166,0.043632425678863856,0.07074255123906571,0.11117026653403844,0.09186481143385769,0.14284398031010317,0.14928592471896893,0.15592295950527263
0.02069624662936597,0.05440809455760404,0.044441131490469396,0.08549268825174845,0.10073367800624497,0.1256978951669012,0.1195741358860469,0.1832945218393369
-0.018040392454680403,0.009359222455463556,0.005260948720177916,0.01972100566330305,0.07759051448790227,0.08599712000709325,0.10181332847573554,0.18781791520153335
-0.05149839566719841,-6.404898476277537E-5,-0.04933446002123738,-0.05352354856390495,0.059509628015062266,0.045684615391102495,0.046265947652165615,0.16625368333747378
-0.026778383805603864,0.015208327696550922,-0.006202042161818916,0.019348782626641275,0.07400685985617016,0.08653797208250935,0.1023725796380437,0.17205828696915243
0.002555649397351171,0.034303260860251525,0.0302854265025465,0.0666307744714802,0.09183194277957879,0.11682118172729437,0.14500094956040452,0.1757115896705726
0.0014476706463599526,0.015603033312000174,0.02284583631797754,0.04872513410106333,0.08601978031147045,0.1139499405271302,0.11215698890515485,0.1823522271846662
-0.028799279925411543,0.01276238161701241,-0.02287527164172605,-0.01793946387344612,0.06994538230036951,0.07742896546831739,0.07952519322842536,0.17132655823663845
-0.059971299151300145,-0.05072297096656145,-0.08318043713394106,-0.07137900229517216,0.03974871179086209,0.04585430462861456,0.04927469179168095,0.14178407780167046
-0.008214718882674086,0.017743277380795102,0.012130881746941193,0.05750193287414954,0.07962562661231995,0.12654396539042892,0.13489890080687003,0.17648135645425092
-0.006527210269646622,0.02516170717214384,0.0071226899376872505,0.03317738978468825,0.08092491511161867,0.09874402586237811,0.09821979290026125,0.1853107409639101
-0.013115522014388394,0.008639368651093712,-0.004554971223384899,0.011957149986051992,0.07776145215565564,0.0955485588920315,0.10236630437291427,0.1569091699880248
-0.05462702150706436,-0.02216261033635919,-0.06999170140119788,-0.0663412535621041,0.04915302123964362,0.044098274286063485,0.05162523315135362,0.13525749173079923
-0.03971535365116989,0.002544021103825695,-0.039080422120152995,-0.0195912823727688,0.05711024681037963,0.07020250678085385,0.08161479657828472,0.14906488484128683
0.015196774030766044,0.02457485791539365,0.032135519793532935,0.07512490409352093,0.09652102078724872,0.1350858170911562,0.15347089324627344,0.16968056800832926
0.0014643256263358962,0.02814082122415102,0.0369631628502467,0.06772471695342513,0.09953659460163486,0.12898033740500284,0.14147575456859038,0.15934542778009006
9.375764412891819E-4,-0.004476587742670549,0.007891552399423319,0.03288451009784992,0.0812321993392064,0.09859127854151292,0.12423981686397767,0.1810545833845679
-0.026878292593197864,-0.030003699442115107,-0.04809479369783986,-0.03636140318944897,0.054414517289356715,0.07218618922439025,0.08791989609681589,0.15677233463464568
0.013203286869291335,0.017228007215689907,0.056460003654340445,0.1110921266328849,0.10676513484193587,0.15194994495301292,0.17083768974729346,0.19264842188807776
0.04509989879797739,0.05725005075771068,0.0733381958607315,0.11598310477949561,0.1317394777444777,0.1596422652777696,0.19164475307748347,0.20860103458695264
0.025928965925045778,0.036834123109118724,0.061453047092398586,0.11322908126379737,0.10470365609666582,0.15492518727534466,0.18103880506414124,0.21623784210406402
0.012024652579822765,0.01889839851942822,0.0203333676630143,0.03552494009051701,0.0899358019724235,0.11713747620825252,0.1388035329754378,0.16519335618462924
-0.009465573861527096,0.012948891151431153,0.0075427362748604464,0.030416813006885115,0.09045104398986584,0.10291949878495968,0.1217300408701225,0.15528397669744032
0.04306676259477189,0.05221278343717581,0.08830084407733217,0.14380996168594842,0.13425554923348754,0.17782674773102392,0.20741535942307682,0.17666645997361843
0.034843459381107215,0.03818180347404956,0.07941602988314292,0.1379782970649132,0.12012120513694628,0.15958643089305732,0.18934278187549622,0.1869135908266407
0.029726128388610815,0.0507865057512754,0.06663252454506906,0.10196539453727527,0.11863446329628664,0.14871004195028484,0.15677704519091606,0.2047507707208171
-0.007959329930327178,-5.268271582889086E-4,0.018229911182808728,0.02531537690679646,0.09415113744055337,0.10486673851592429,0.1105234597901974,0.1817484562680744
0.023738964578629694,0.034411171668135586,0.07052753508914208,0.09974740433200434,0.1166832618176746,0.15515618808894746,0.17171177683756184,0.17765289561571154
0.046800312102774376,0.08380766768886327,0.08465837655700292,0.1541295318196174,0.12079279476783208,0.15041462630013525,0.18126745003180003,0.1485855238176804
0.045027121927577234,0.05799662306346809,0.09193068641071454,0.13362875985138045,0.11046586935400896,0.15383403394609246,0.15760516009969477,0.1495032669302789
0.02390042369661443,0.07509905625259101,0.041213233633524395,0.06044402654947398,0.08906583557780329,0.11237072261181502,0.1083897309952421,0.09238421183799135
-0.0013162958261230366,0.05848585275169525,0.03293898951463385,0.044724242622622735,0.08362520731776518,0.0944341029392332,0.09243414230005216,0.10308844588579594
0.05949756166872548,0.09187038932382403,0.11064818857931004,0.17785897220771024,0.12549082484813456,0.16586320143112543,0.19607919223505102,0.09296647048553014
0.05711999218436979,0.06932636235794859,0.10849428997065058,0.17130304494644027,0.11921703499520925,0.16567555553988822,0.19125344112095627,0.15649175352305503
0.042437425360621284,0.01667155028948463,0.08226615310949811,0.12992560262647088,0.11232494789642081,0.15633866189942636,0.1542965516441815,0.16027608696046255
-0.0011753638429692805,0.01926615597871996,0.022075751388253687,0.050425251687886447,0.11690294502493653,0.10899376270057702,0.11897558593159245,0.1796820190631888
0.03237840032786322,0.041145386463401185,0.07297299115727883,0.14074715307236693,0.13263328318082368,0.16346236206410358,0.18892933539185647,0.1684762974330018
0.05181934837438048,0.05215768995400935,0.11650878777421324,0.1698333090988561,0.1359097285053781,0.19729580415847775,0.20411041842522526,0.16176997119240055
0.05029032783465711,0.058864357233518794,0.10855724850235388,0.14751635847137035,0.13948033049466343,0.1676331407168433,0.19191262232730372,0.19226865913049399
0.012504663818001143,-0.009738910056250518,0.03732120961780943,0.07654329931412025,0.09535264897578781,0.1322343218336658,0.12955954608979636,0.1567249669244747
-0.008030717800766918,-6.477624169752508E-4,0.020590708182668813,0.06066036610767181,0.07141013518873886,0.09840728548193327,0.10206388973746712,0.0999977328818931
0.06250881401565006,0.0265757341909462,0.12134881616631057,0.1826794575367904,0.11572907028087503,0.18446901559145068,0.1973812346671734,0.13751324982880855
0.0508458750431684,-0.04023730814265296,0.09815586113508609,0.1662408044963476,0.12240773958051832,0.17123720553600258,0.18968577679373366,0.1137606282170661
0.025768218698883148,-0.08378523357753512,0.05315879991825071,0.11231950135365679,0.11883082794516303,0.1577643902870572,0.16829245326334574,0.14747353419126857
-0.02250696588829118,-0.12917704021698417,-0.005973208187701435,0.034764442203182123,0.09604313372111872,0.1216536941103574,0.14082175538261082,0.15815758486727077
3.9058990597443935E-4,-0.12639683526022086,0.03625787595747281,0.09887133322813907,0.12983140396181214,0.15372556895043926,0.16380865634070468,0.2037731931588907
0.021909235818823064,-0.14022592783386215,0.07164618839509246,0.1480713097565551,0.1379982587684329,0.18799828875558197,0.20358363310124514,0.17808170088455372
0.015621411613358676,-0.09820775562735506,0.06594822990912985,0.13395859970533294,0.11655233484780508,0.17128996531712787,0.18994878706172716,0.15234104344934565
-0.0143052861449077,-0.10879258985783316,0.028604179473550897,0.0649617208741777,0.11145822851301822,0.1329059677396182,0.12453454963098043,0.13502873882223737
-0.036660955599412126,-0.08323194783893392,-0.010051526320970665,0.019514458694608283,0.08341107865912546,0.09104621916655498,0.0880565128766066,0.12393381095810309
0.044409780087033654,-0.05244411217749442,0.09445220242400418,0.16923287988961405,0.12725718077445805,0.17512275340549607,0.18958871566624952,0.13666723262076072
0.03530945791383244,-0.057005842713499955,0.08949243974626798,0.15935293042582407,0.11220783607042731,0.18188304236748046,0.2025023054123547,0.15698652650156175
0.012624766409534386,-0.06704878621261401,0.056598844859563416,0.11050082933323602,0.12167725171540439,0.16138573684534377,0.16220398261666813,0.1281552337909701
-0.029510128089219802,-0.09260351901111877,2.9073220811653283E-4,0.03574570288426791,0.08217746761796321,0.1171129891807941,0.10056998292893696,0.11537560507934191
-0.040897201111262896,-0.10519300513288009,-0.0108090066869366,0.015771589318593605,0.08778816539634934,0.10022118359528026,0.09024989748062523,0.11685289681228746
0.033129872437434274,-0.08381894373265752,0.0967395187722081,0.17414591382170302,0.1241286196196282,0.17585610319699527,0.19799285323285523,0.13222032882530413
0.025608512692912064,-0.07012474568050678,0.07529111297579182,0.15610109314723666,0.11616430452162872,0.17256032556362885,0.17192219362615116,0.10355799990487706
0.006414156568640443,-0.08245765524094473,0.048427030524272836,0.11122541089394827,0.08673962087985528,0.14043199281684704,0.16240635550465965,0.0943134144887615
-0.04404684487128428,-0.11430264549753039,-0.004940951971966881,2.164112667802573E-4,0.08194783908885481,0.08583583792723531,0.092752018914856,0.0936960723103801
-0.05304794607229952,-0.15292908419845574,-0.03310276813361761,-0.007844515958051822,0.053140331753880485,0.07156154439684113,0.07780077079481458,0.1099924551791215
0.01146357633157188,-0.07590526220910451,0.06614909832859811,0.14800210725564933,0.10003249985825843,0.16393085805605423,0.18264028833297918,0.13183652008958738
0.007595418996261405,-0.09338756398435652,0.06857944680385693,0.12258072808021134,0.09449453337244124,0.14050150302781161,0.16300070643643141,0.10532315271311664
-0.025498599659640873,-0.10999418633947206,0.01713279442976366,0.06838684408315697,0.07492700542648803,0.12669776904443955,0.12371773172877523,0.10197199915274995
-0.0650227156668277,-0.13340519994239486,-0.03953237680474087,-0.019803897883030143,0.05761005768293806,0.0685309769651824,0.059667999851552585,0.08851524073118125
-0.08834097595637758,-0.16690565320527462,-0.07408847718898387,-0.06847613104597357,0.03908050026407627,0.027569465131068283,0.043189227015022244,0.05865961206551437
-0.030386167308480677,-0.10629987555312728,0.02378146827763197,0.07745430241313193,0.08134563425265112,0.12963951810868016,0.13908700159355805,0.11112336059568037
-0.03165664601617017,-0.1085232666595257,0.015690260504135634,0.0652588582341811,0.0707597676506417,0.11499530244890413,0.13135382314677888,0.10051256663071315
-0.03050857997468509,-0.13298103866232622,-0.009958929486782717,0.029522416986598337,0.07993988609359078,0.09753043168717779,0.09789009678465083,0.10831521685243868
-0.07094626598143813,-0.13858274989182018,-0.07182637595657164,-0.04918367854575188,0.02521691804495352,0.04323462912873986,0.051189210043465966,0.08695985258995406
-0.10455391054207049,-0.15811112142959902,-0.1099564324053944,-0.10165231859413669,0.023162403162712047,0.01063663946497885,0.008998043352029306,0.04936797714070948
-0.040749379215965054,-0.12248007734609405,-0.009680868080016997,0.04495354939036958,0.052493435814957606,0.0998158173706334,0.11279618464317427,0.0996766424026647
-0.04582701401069314,-0.11911262233330325,-0.013774086633424656,0.030299185173018453,0.044262349220200115,0.0840447933417075,0.09011083647515819,0.09500036449011183
-0.0625898435722655,-0.12495768844784795,-0.03722886622889191,-0.003924025834124861,0.03410652099694652,0.06826477729125864,0.06285927837830853,0.07348650750365503
-0.10679915294405483,-0.16587398265680872,-0.0981598418980851,-0.10538216859917338,0.02113237981566017,0.010581633785880036,0.010422618920130036,0.05593542866027451
-0.12195288545414054,-0.18284729708774347,-0.11740695333648232,-0.13020375824315716,-0.008604783858034731,-0.0031456409197034296,-0.011202623458689213,0.03750364033812716
-0.06085042641352872,-0.13321651953749436,-0.01857311554810518,0.03326393433156244,0.04011329484329921,0.09106399459856056,0.07968392622255624,0.08241335849958814
-0.05716989632976365,-0.13796148308222522,-0.034455234192406536,0.003013763271413644,0.03389847910595251,0.07206527201314325,0.06411105824924915,0.04417131933464897
-0.07562565718667474,-0.15507543945390834,-0.060011116066126725,-0.04213716931773452,0.03319137978186147,0.053906165240281065,0.04378475257033752,0.06004211946244476
-0.12387831246346664,-0.1897685753708021,-0.12622472492276696,-0.13396964779274667,-0.0018532327578366804,0.002913611155435909,-0.003967353140147255,0.029508649991479098
-0.11492416881744985,-0.18472689152170915,-0.1275128335389614,-0.11008482553901762,-0.003672561543187104,0.009038786849362693,0.013959760006528737,0.00844297175344929
-0.05723345556559403,-0.13970419121017832,-0.02977415981129836,0.009201774886893842,0.03247158711185681,0.07463670097620434,0.09122228867648038,0.07017776557386003
-0.06921555719516755,-0.1589020865332292,-0.0511271916900216,-0.02086787333816293,0.032638193013967504,0.06430192579975487,0.07825382509629125,0.07018282273001704
-0.09334761991497409,-0.16039990058497008,-0.09292753628169592,-0.06810175300504026,0.024601287435052903,0.040928066431623056,0.024890738421729293,0.05533587191404697
-0.13215338395951018,-0.20756310387207785,-0.14575775063383464,-0.1541065173975169,-0.020226889436871197,-0.007277137568367384,-0.014387385913816171,0.019429436634473288
-0.1041269239114179,-0.16444959917207438,-0.09424845419924549,-0.07553498810690466,0.019286452240893693,0.04026425933414918,0.0368418765759605,0.046539306841529376
-0.08023239322021065,-0.13984198422018232,-0.058029448418571626,-0.015412104293797798,0.034106999005427005,0.060211552852565346,0.08090512107116446,0.06846302612157215
-0.08520279538891617,-0.15634912904016954,-0.059520152386039936,-0.03674227960046364,0.034177661195348805,0.06020138869222552,0.06233381822729721,0.08651299807679344
-0.11477972865235343,-0.19892680449881436,-0.1214241268812111,-0.11451505069753233,0.009437325944506183,0.022546012429668916,0.02541262185838869,0.03455459766867855
-0.13914790979926409,-0.20105760738448616,-0.14847983356129427,-0.14850609602740936,-5.371261087584768E-4,-0.012667010233694386,-0.014589683292834742,0.05295412473498002
-0.06890443138367294,-0.1321096752992326,-0.04801561861861619,0.0075157327492536945,0.05112268897431761,0.0809669949001431,0.08577325145468781,0.08451915942433254
-0.06727805238223646,-0.1308519769412156,-0.03674124302222374,-0.014064789556727523,0.04290281426648751,0.08079479152081837,0.07555168277803316,0.06397004204929005
-0.07602723513199328,-0.14981252046371984,-0.06692328744173043,-0.043687090783910185,0.03036426140901509,0.06156750940821042,0.0648205061165411,0.07028079655046893
-0.11616359572259122,-0.1666157532805861,-0.1354359095626923,-0.12735063417053707,0.008564214528006675,0.01589678281228235,0.006828975122762324,0.03770067124566104
-0.10010301784877867,-0.13591120832653225,-0.09076359604401907,-0.06354468051801833,0.02504636171754108,0.03556901361048004,0.04433749898493404,0.048234290291530785
-0.04248829802000091,-0.1279649325425236,-0.025818455725389152,0.023594287980182233,0.04324421342535681,0.10723896484424346,0.10837384940685521,0.07776888314930588
-0.057262026218975096,-0.1333867070345703,-0.03552646404378826,7.898154093443042E-4,0.03481850838640465,0.08308136163833155,0.0850785488945025,0.07377549135799921
-0.08331924753763308,-0.1720924463721124,-0.07993333468086646,-0.056941623067459896,0.03703622564240473,0.05657654265143622,0.060370986732980136,0.06538993340083464
-0.12273576687007678,-0.18095865799238126,-0.12412353209630814,-0.11314200329393055,0.014011331325280825,0.019614321392641014,0.022314151634737683,0.04398707802528557
-0.054793577500887425,-0.12214969138285113,-0.02087343603482517,0.02817196905817429,0.05580123538088854,0.09283241376628014,0.10821977553236739,0.05432870793229742
-0.04445203146201811,-0.14467633860960805,-0.019230673929190752,0.03416886276752425,0.04288235672408135,0.09468334875920578,0.09822261785623632,0.0865362383585912
-0.06293520675038071,-0.1578495709579007,-0.025061298098270575,0.002255914321895848,0.04775010930760509,0.08873806399854292,0.09649175601101086,0.09414851427515519
-0.09549192284759572,-0.18665328379387888,-0.08306154373518042,-0.06496563032343802,0.044637789911239845,0.05490740457244411,0.04951652352346121,0.13678860667679935
-0.07082356288534215,-0.09315587313842126,-0.04866250389002612,-0.017829251732828608,0.0660245678979689,0.07231899777716357,0.07001075317033732,0.18068306550510624
-0.01087922672933371,-0.012440399739414557,0.035159374235297434,0.08325454571718546,0.09313723416107778,0.13615944510722836,0.1466093161731636,0.18071589286578682
-0.015072987654590307,-0.01933335332769004,0.022476533518225737,0.0582107470098645,0.11248544683182148,0.13710375683870568,0.14640007830024984,0.21786015854999982
-0.03734251161405128,-0.06234259811633379,-0.02192341203291541,-0.0038996740263884076,0.08784527646058728,0.10760015358092383,0.10286321098024857,0.20067128303108941
-0.06857378657362194,-0.013373235616688468,-0.048496586541033296,-0.05046323489578075,0.06607551595952868,0.06696247634855264,0.07935111904270101,0.2059168588745528
0.01462405823621073,0.08741081178538529,0.06383400667234512,0.1078153579090424,0.09252128017839248,0.1451288483426957,0.16015095675845806,0.19522517670108627
7.787396604046082E-4,0.041155131190573985,0.03823595201938369,0.07915972335850821,0.0835069382022334,0.13259929155335856,0.13965230763471786,0.17878791525315352
-0.02674989724999932,-0.032219429169529405,0.01606235155682766,0.04104421855223421,0.09237254278143461,0.1211422075291874,0.14590462885862068,0.17634071657815345
-0.06827336973222146,-0.04295927039406013,-0.04078319702277408,-0.05528912579482844,0.055637997902793467,0.07335062171281284,0.0776991282784158,0.1330093107040714
-0.02729815223734213,-0.032800234439895555,0.0019564921635559715,0.057852205257334824,0.09272258184249028,0.12391142963082646,0.12365978715989871,0.1736518389932895
-8.774903441592877E-4,-0.07330286892362615,0.045884397399998215,0.10621672053342511,0.1202895686650611,0.16917112516713412,0.1871608251788604,0.21914804876042945
-0.038982009899136714,-0.18976875240949576,0.0034648240949124096,0.06546232756684994,0.14475034457814834,0.1723296652199106,0.1936458697831782,0.3583900019540027
-0.07353028802727363,-0.260126030379279,-0.06052881653880314,-0.011239943538188635,0.13040810833228042,0.16104809691108202,0.1726605700308536,0.40033689586736865
-0.08233204200245195,-0.32083934662146313,-0.06984449154792774,-0.01990854178222123,0.15815844905504445,0.15849076579266405,0.17975414616922283,0.53091405952375
-0.03682153594889001,-0.3797597044992205,-0.013364659618508246,0.09198008252671097,0.23661089743224717,0.25475619453486864,0.2902245292630905,0.671260366854463
-0.05847346699074581,-0.43553693473904004,-0.047769647910744555,0.05112686602609724,0.2365216090687287,0.238164279593673,0.2747345587326131,0.7045687571702436
-0.0860952427539842,-0.46513709030305983,-0.09191657784166869,-8.869958616332108E-4,0.225072321886753,0.2196605560859706,0.25219936545886473,0.730795228063716
-0.1153534860599646,-0.44933336386219247,-0.14028073129358212,-0.08437802182099019,0.19013940135375784,0.16685372712674182,0.1749323518910018,0.6583505551866603
-0.06644409575885243,-0.36836852946116444,-0.03128650068828341,0.04236717855310725,0.20269023793539617,0.2183679226501954,0.23467133676929555,0.5744046576891494
-0.052529912417149854,-0.24913639795690612,-0.019704245516961864,0.04598109608077983,0.16072863071832766,0.1931493430185145,0.20134405231399433,0.4389938933439034
-0.043051245511534116,-0.19801625233906828,-0.01959069404518688,0.02958867705225038,0.14365896067503556,0.1621175722029407,0.1634997236688635,0.33804563128190634
-0.06902093679712024,-0.1336283813252816,-0.06462631207396109,-0.04747281788425057,0.08872980552652811,0.09592657560527786,0.10202449235365135,0.23685263306203358
-0.052336146862839335,-0.07575945385236052,-0.005451992214273761,0.013112792827794297,0.07886935800711457,0.10191097425849786,0.11125509181054943,0.21730265362489387
-0.01864302757326328,-0.03006207911953421,0.022034964344924263,0.05150575181899196,0.09783378749167282,0.12663021011713532,0.15431262101815824,0.1853840115973983
-0.025568405090926383,-0.04665951305559477,0.007918841184516058,0.033173388299939946,0.09084575671971552,0.10571461366207023,0.1308347825223014,0.15281637638796408
-0.06252723087691685,-0.07930705128112722,-0.033584007180656815,-0.03885424084523911,0.07529343029067986,0.0984063704436105,0.10354792927100888,0.20322634404519474
-0.05826133940241227,-0.06258878936238271,-0.019005338477379428,-0.0085334322240588,0.09119364853840425,0.1113665694447385,0.1210918556122949,0.19181852154874166
0.008248511251950866,0.007723123860531691,0.08271114824399842,0.11905826645719256,0.14341214671519054,0.20062893441380775,0.20795916240884837,0.207071260018385
0.008195947449593708,0.01113724183638845,0.0595682527156917,0.08506371558197998,0.13683575138061452,0.1721617652861646,0.19245293799005952,0.19906786436917556
-0.016955017503414202,-0.04038620314600843,0.015926551422811474,0.018397343852939278,0.10659234037396034,0.15594261706744236,0.1560657619456977,0.18154983668064462
-0.04638495828670606,-0.040660232232872816,0.007497135921115047,-0.0010238877272577065,0.1031812419918436,0.13531283483272127,0.1453689067498554,0.22390387319360944
0.011146921748409215,-0.03533465793242604,0.07200453483191593,0.11919293980274405,0.14541265063539055,0.2024261706570536,0.22604020525866564,0.2263458653556691
-0.005141828917793424,-0.03477531711863146,0.06182220163931418,0.0837313960845584,0.12749202786328734,0.17996472595278745,0.2007804265164766,0.2220118183152289
-0.03042465827856222,-0.05343663253535357,0.023893023114185615,0.03424428355351555,0.11819728185740845,0.15141736013893917,0.17047827202545532,0.20005472527553955
-0.04387639973657681,-0.07335316461193582,-0.009296469154493791,-5.991701233993563E-4,0.11234147430028943,0.12189568117761633,0.13493246156160918,0.22216475612119432
0.021182556178549396,-0.017358190588766895,0.08184781042525607,0.1417776449033747,0.1375731286752959,0.21517978991195313,0.21919457646375617,0.2079305877903891
0.00874958567123751,-0.015589672865363127,0.06570873629363613,0.10153965944203913,0.13198426890168483,0.19824102554133324,0.20902167906619684,0.24517027456969848
-0.01601107400306484,0.0012965435953701601,0.05286518191828319,0.06206002268705452,0.13129157633419405,0.1653407522816379,0.18811745031500351,0.25850597313267226
-0.03151310247232776,-0.01775991416476329,0.02745843070110553,0.028360570407257805,0.1181074372071902,0.13987483736802883,0.14497107111086005,0.22296062324153934
0.025243290945676445,0.039321910867224905,0.1285079466087642,0.15978261393694185,0.16253375701480624,0.2173103618964821,0.24282496917682486,0.26407599476654914
0.027426410118412115,0.017675907363000877,0.10661284269310532,0.13682946179060088,0.1591023963424057,0.2058072954209808,0.2216345956816951,0.24985315200541755
-0.003861618113370403,0.03360187111803116,0.06325816955168259,0.07818972074656484,0.13638855242954515,0.17735036090966205,0.18617632164301415,0.2427278563488925
-0.00852604745910375,0.006387357352558746,0.03417805231603391,0.048186581998223836,0.10862155708880405,0.1444598957271221,0.17075976039286453,0.22722989427587229
0.03381304552517048,0.04559042081684243,0.1288461596189905,0.15822442847114798,0.15312751478327996,0.21863800425952595,0.24782255552098748,0.23373810817345606
0.02453931763915902,0.021427941804473303,0.10779159475600217,0.13873188340753104,0.14937063173964207,0.19069697468817018,0.21842965041789575,0.2181741603117193
-0.004483040286394803,0.02094782528139627,0.0648575878646036,0.06703127622085073,0.11923199691420248,0.15902806301049519,0.17345398737202286,0.23451100013022103
-0.01704241591283106,0.009532188905063067,0.03400353549561131,0.030510224403657173,0.11037645849535674,0.11365130680514023,0.15264474027505692,0.23590549912400144
0.02453529600269283,0.022294225003642112,0.1140584766793752,0.1429084105756603,0.13545211104838936,0.19718816855780094,0.22373595190948728,0.24739494256541997
0.015161985301676097,0.009000090733945912,0.09511732477134255,0.11306066169655658,0.12844451999083478,0.17918924851570664,0.19483313639793812,0.20721436619506137
-0.011675730103506572,-0.006912457145648195,0.04703501582649223,0.053258866960677845,0.11271921401891519,0.14348277767457313,0.15526652609596095,0.2286753557760286
-0.0496663474253215,0.0047453688137643855,0.0028384265206156147,-0.005216426165491575,0.0994742238357408,0.11401212566567222,0.10984384871326398,0.2200126664437534
0.02295900237928472,0.050127760694142286,0.1185004730060603,0.13968962752061057,0.1386944027695083,0.19949551379088154,0.2264769973824834,0.23881540448509722
0.018439546994518823,0.02915333859134327,0.09349519254727677,0.11237594147335113,0.12076865322374954,0.1542234734212949,0.20000109353257792,0.19102568609954457
0.0019615261865726158,0.007091801867743323,0.05571243363568856,0.0729000604275601,0.12410905425550721,0.13978221148863285,0.17868697698312766,0.2194496896254384
-0.04335925473524809,-0.02621653542578383,-0.020422034923552865,-0.03078175547761019,0.09950066234023487,0.1026761857039,0.11994611357423252,0.18021941488844262
-0.026802405372587254,-4.976898012175636E-4,0.034672236044566436,0.035647704005871125,0.09956610584062045,0.13390302639421475,0.16095704788900708,0.20185605290215125
0.014914200694324087,0.04593408189556568,0.09634893580041906,0.11835898802181075,0.13045475295572917,0.1767659247902451,0.2015220599056211,0.199656845891879
0.00833880785537491,0.01907687896799313,0.07748335376615677,0.08969615544681248,0.10496977492302287,0.14678053906498822,0.1784844717032525,0.17502473750557915
-0.03471073106131267,-0.008429266425569137,0.018570863471691488,0.0026293136677796487,0.06775373805486917,0.08993597541612983,0.11537261685439115,0.16533407887061166
-0.06533269276837382,-0.037195999108180486,-0.041484367662135826,-0.09113001818237045,0.04792376303993838,0.036273622473084514,0.0557039044821174,0.14434358966875044
-0.0354865227806057,0.023635284789015047,0.03628916320122354,0.04152375393059586,0.06701480832317237,0.09525211759401504,0.12673994724455476,0.13592398368552064
-0.01412436242854186,0.004013148124439814,0.05914646449967504,0.07089139951880764,0.09328008838767249,0.12078904823694787,0.13588885199009523,0.14298474175365006
-0.021067059706890663,0.011184280880916553,0.012665221414779465,0.03294225259107261,0.07340979452108883,0.10662428539561854,0.10187860465195116,0.1501371819630678
-0.06292001428134913,-0.04174942691895846,-0.0374478204533553,-0.05630158744009858,0.04209495468108734,0.05676323974279803,0.08382695431449522,0.16320745316942514
-0.09716325666468457,-0.05824393484564466,-0.08631068557570168,-0.1265368922025129,0.022287214365810583,0.015424549824661701,0.03071159738396176,0.1150219982091153
-0.05443908578402576,-0.012924178620830108,-0.0018914619371929375,0.004952492387447346,0.06187296142908198,0.07824459441300746,0.09849842876338631,0.12516894868616715
-0.05244777981796655,-0.018943475863454733,-0.004481712010697039,-2.6929723137175156E-4,0.06061643164814863,0.07293146360533843,0.0924321751941628,0.1110684594417214
-0.05598391482934559,-0.04512841329167307,-0.021910214407560642,-0.040693540608711457,0.04198364576436518,0.061340714526413674,0.06119989389749759,0.12153857131516274
-0.09484795250975972,-0.07884430002454718,-0.09024438509775516,-0.13212548408779512,0.015851350773292118,0.0038914429281294675,0.014701528209770127,0.10637020061350128
-0.13002129662877998,-0.08084002528055553,-0.14000655293469388,-0.1759970917099398,0.0021424931447777415,-0.03903935226927526,-0.02149309776126048,0.047286844598849825
-0.07877014922572309,-0.0654761770690083,-0.04278404891425701,-0.03647591890415265,0.019144927805132793,0.02239777661457648,0.053766045802887845,0.08112943078386954
-0.09062290482858884,-0.04737065123786524,-0.052529847269781674,-0.05752446411988788,0.013631136324024924,0.014997876246626327,0.035731308295021275,0.07692999773502837
-0.09096857791136652,-0.08699915185962541,-0.07249487602934718,-0.10090486015303758,0.006799567355884102,0.0021696731385112,0.024696434929469168,0.08405656666833962
-0.13468843196572922,-0.08590110433327214,-0.13992539304441337,-0.18174566998349678,-0.014864182030571408,-0.04426663195788017,-0.034482774422203225,0.08282622914419695
-0.13760024344184182,-0.08568453490304201,-0.14048417617417558,-0.17802764915064076,-0.026838453387558952,-0.04553306331631599,-0.03088695778623129,0.05200491275442283
-0.08825847031633122,-0.024918727369953007,-0.054354085045106644,-0.05092609318087837,0.017239292454459033,0.023081782691207316,0.03833994093270308,0.07260281608482717
-0.08887658543599548,-0.060111835639452244,-0.06188884897794234,-0.07335714939530494,0.009892014151754,0.012894297513734426,0.02587421810551078,0.08992051442155273
-0.10787820466134218,-0.06623259770244619,-0.10228449181271743,-0.11837233572921227,-2.4342889034942826E-4,-0.01015114357585013,-0.008264343201784416,0.08953118345942204
-0.14229097455906903,-0.0993245425604366,-0.16334688236590114,-0.21295801313620227,-0.032024180870813254,-0.05632685767679439,-0.05172091044428308,0.05885984171461266
-0.11866467884786525,-0.07681650066600998,-0.1156678288968346,-0.1447099941630047,9.310300569563851E-4,-0.03013159479688373,-0.011588411453186027,0.08169192444274041
-0.08821190145816568,-0.05107755406056626,-0.06166112276536882,-0.06605836716833369,0.005137534300367777,0.01667211004692942,0.027110050842900527,0.07123544864539098
-0.09022351820567133,-0.08020378000592579,-0.07559737302466699,-0.08906171955583236,1.0001868553350529E-4,-0.0016577873641043725,0.016335185355756534,0.09450083975402492
-0.11187815667035406,-0.09011393729614255,-0.11809280979149783,-0.1474297908583413,-0.014533461985284593,-0.026788752960594027,-0.024099596148045896,0.07266249875833851
-0.14633499135322614,-0.1138682383000358,-0.17162295012281678,-0.22669399425036163,-0.038687832374179276,-0.07765600054801551,-0.059661782699209104,0.03466528036708677
-0.09873012035448976,-0.06457444480847357,-0.09191213987680469,-0.09997907888212826,-0.00760425677464361,-0.006215136239090872,0.011739941209193142,0.0739013984578344
-0.08958707691288485,-0.08432263869120268,-0.07915233185778403,-0.1002829366545882,-0.007508213077560737,-0.005927809188876861,0.011809536086961666,0.06609921895046526
-0.1190248686630172,-0.08084791611855016,-0.0973007137707152,-0.123883355593603,6.781170890907406E-4,-0.014752154485513803,-0.00746842942379989,0.06816049953635922
-0.15439802494426108,-0.09456621353210395,-0.1599339214850828,-0.21372992865939427,-0.030983406463363554,-0.06173322760231016,-0.066970136156289,0.08697534956777253
-0.1638842062608043,-0.09276823609396682,-0.17647763750686102,-0.22743125418775129,-0.04064023698911494,-0.07670316806999526,-0.06990305478830791,0.049833795644403434
-0.09593611813246386,-0.06343808734788448,-0.07125185008379134,-0.07774339195756266,0.005644945570328368,0.015817876417630692,0.022798230460563035,0.08345181920495819
-0.10299795614995011,-0.058452872709461756,-0.08385506636116347,-0.08814544706572029,-9.535032179102745E-4,0.015096541091208992,0.00728167605608563,0.08505974567086927
-0.10952905936796288,-0.06089104235733242,-0.10026661493501544,-0.12552604500176853,-0.007856275554052073,-0.011732799751083454,-0.011731141113148345,0.08280582818316816
-0.15316959900464647,-0.11364138453241732,-0.15995259386281088,-0.2014135865390515,-0.031866592486495066,-0.05590828505570666,-0.06465332416917766,0.06175927094454696
-0.14329567117275785,-0.1267557312960047,-0.13814890377075506,-0.18633978914107566,-0.017669211547585967,-0.044807591583454105,-0.04771127356830454,0.07309333172271709
-0.07916545383804657,-0.04574364080266825,-0.05193729571774604,-0.060397679418746374,0.0019881747537606673,0.0188832051269691,0.01596921341863368,0.09086296877763197
-0.07915707771632909,-0.05553060680376806,-0.06303228114699647,-0.08696285825367772,0.004329432193690558,0.006824464550279408,-0.0012257491474517296,0.0832026019208231
-0.10731556761572451,-0.08169887029333475,-0.0899247006266878,-0.12485226046075254,-0.011684396178858598,-0.013880943464944374,-0.008406375328391714,0.0682902913665884
-0.14611245339240378,-0.11609116761979349,-0.16391929398919208,-0.21055690279906009,-0.0359369068038104,-0.06561815591462544,-0.0560620857213637,0.0554364077455703
-0.13238966402195623,-0.1034956068246425,-0.10619849942081148,-0.13156652828904278,-0.021713934459976544,-0.03863305286017379,-0.023249391605056152,0.046234336691531035
-0.09540865577023547,-0.08318272313225414,-0.06211936217091716,-0.08247344915869378,0.0030389668923811227,0.013309309977991915,0.02462312197029172,0.06550438331336315
-0.08518958475515312,-0.06577660521602478,-0.07138298969024474,-0.09554308966997589,0.008913421924157441,-0.0012695411902982207,0.006198348066088866,0.09795725725174874
-0.11046316780123104,-0.09151048483995053,-0.10564011880581946,-0.14935283270470254,-0.010824096290701628,-0.02299260684951432,-0.03173558042478604,0.08041343630165886
-0.13377611041013712,-0.11004789673877202,-0.13618099155833804,-0.19481048770505888,-0.024699764123888426,-0.05287653834774855,-0.05805224326457632,0.09542730622542463
-0.08340675804929684,-0.08162697012796213,-0.048388048377881014,-0.052579170595343866,0.023164687885989806,0.021929654348286746,0.017215409260492347,0.08156574271325662
-0.08610302064821453,-0.0783945771776632,-0.0559133196365422,-0.08072117772465157,0.014294912345196803,0.004946493524959631,0.008626645489398961,0.11937009434060705
-0.10439745940215896,-0.08201733486177984,-0.06847123722734672,-0.09596381134530989,0.0028220141088322326,-5.194938863849873E-4,-0.002450263984696166,0.08571414138036045
-0.12773541135765581,-0.10845724476801877,-0.13007118163758247,-0.18389037924757193,-0.02011131346189745,-0.041049414489463254,-0.043702652989693336,0.0808825134028888
-0.1036706993707565,-0.08226047706175983,-0.09304222652962094,-0.10995202132802155,0.014594692384227077,-0.016595940441064723,-0.01736759857250148,0.08040964214809507
-0.07001931245331955,-0.07052722399189312,-0.024632496779554917,-0.01723712978022111,0.032435458983084656,0.03281490944165505,0.03188056060718469,0.08936542190868998
-0.06533725794168815,-0.05863252597252196,-0.014528108406660885,-0.0314439135167208,0.02552563918549923,0.032270443034123845,0.02370050564903613,0.09439053954103029
-0.08881888693481221,-0.07952943721164782,-0.06849241730841617,-0.08775139342618891,0.002288058542519355,0.004009598940334272,-0.021104137744606857,0.09700550991854079
-0.11244350138840728,-0.11366894272062547,-0.10913884982413326,-0.14261365504582021,-0.012234550158554852,-0.02975841731273158,-0.049413562074750145,0.08272115613276143
-0.05537019724121324,-0.05456160390967563,-0.021084771139738473,-0.014300503731045546,0.027820737470719524,0.032438416284569574,0.026300139135804246,0.08128018548943605
-0.054444020467717395,-0.04141287556523702,0.010378673001894982,0.005690945861164191,0.03438259095624974,0.04435800112040829,0.038601540883941604,0.06868953310330099
-0.046438664045284093,-0.0707372755478276,-0.008216865881996395,-0.01742678110720786,0.037942805382008664,0.03463390741788681,0.024140914945091546,0.05497832958709565
-0.08318841234525198,-0.06689955597063142,-0.054696955905789824,-0.09018617612354396,0.015223318429729904,-5.649159796985636E-4,-0.025432600898279513,0.09336518699367553
-0.08657458391315795,-0.07506396568756413,-0.059398792913249135,-0.08755920417257096,0.016428427348610827,-0.011437166423870219,-0.01740942786068241,0.08702327257284301
-0.0284187601715943,-0.011282464944090886,0.029740597625449998,0.02539741709025544,0.046518963634771704,0.06031526722428685,0.0648219634824538,0.10326752954794172
-0.033775033037571164,-0.047156801039597435,0.0069439378669539364,0.008836780842518991,0.03432615227321224,0.04935573402080654,0.05105821311682948,0.11933255120638368
-0.05857443125387832,-0.059165686994106875,-0.015878045486820164,-0.034945883878509776,0.04602874734404625,0.025721388416054713,0.031322702661268374,0.1054339458243424
-0.08995684009625185,-0.08562247402789266,-0.07705001222842695,-0.11126342819157702,0.015617415360309923,-0.01648160665022125,-0.013055529096805314,0.11516630181287178
-0.05509221185800669,-0.050111781465723135,0.006331771690063387,-0.009722277414109682,0.05938366938016238,0.04597013934341338,0.0471714344130464,0.13613279703335884
-0.03213634509046655,-0.05458125417781973,0.03685544737320987,0.048510365472583354,0.06905323992486569,0.06933002596938802,0.07611568294708054,0.10964778299134274
-0.032250764763201156,-0.05546909641102395,0.032130904143198996,0.03831380014096928,0.07081352774868672,0.06617844947996769,0.07057161935053351,0.15107783646883752
-0.05454008215683713,-0.09439470315883078,-0.016365777145897285,-0.049118695870856585,0.043870218515259476,0.026399566139067302,0.03985947395931137,0.12353695676524754
-0.08768542904650214,-0.08148537590869773,-0.05655848779597912,-0.09938782227171505,0.026852699878667032,-0.001923006792291352,-0.008986565947390387,0.09664372101473799
-0.02513833536734848,-0.045340356021362625,0.044234481832068025,0.057951455714173455,0.09210293615247409,0.08975997460797987,0.10842064022211914,0.14752101629903566
-0.02242037452143794,-0.023236223431510137,0.0430979613525132,0.05712637209185311,0.09178895355971992,0.0941652950183168,0.09556552208921486,0.15920106631517025
-0.02107034769332933,-0.057969777923948515,0.0477372088180145,0.03977945053071825,0.08741420549539157,0.08614435937523673,0.07327576077171145,0.14834373111116686
-0.0700001898246573,-0.0922062957386136,-0.03077101392542484,-0.04841670123989611,0.05639846065481008,0.02990972136858569,0.02259899408105085,0.1371759243843697
-0.08365106750522021,-0.08774955152019369,-0.05500490134950076,-0.07118976360174263,0.05095780160238726,0.010337132092512732,0.0019333871444355624,0.14457507491602278
-0.01392817352619659,-0.0125181849738825,0.053341350705530685,0.06827295428396218,0.09516833895688717,0.09322029258399189,0.10173498551060695,0.1608501743610294
-0.0209928811968934,-0.027515219845793665,0.04810124792539042,0.05393060896085323,0.09839120162929743,0.086425260953554,0.10452883782848464,0.16119451032427545
-0.040853036764012376,-0.054765470708064985,0.026476180135591835,0.012257598696113177,0.08035101358428368,0.07140053603813194,0.06551996625750292,0.1448081509452807
-0.07385493594496856,-0.06620413387404947,-0.03549515668677764,-0.061890232353058225,0.06085136238687325,0.026827033092461268,0.012849840671622724,0.1431893773978937
-0.0673067763781085,-0.06581690416184677,-0.01983965484183744,-0.03575252843551385,0.04717484161751316,0.03238904920097897,0.035774513868823604,0.17690510300077283
-0.013517180932423604,-0.031945329235086126,0.03440627629252099,0.05689308376743045,0.09984100198248613,0.09326326464669558,0.11221230956642655,0.16890055862032866
-0.04033331072458316,-0.03246227120909925,0.022668280693914758,0.0357866135010209,0.07359170335429999,0.07261261363984411,0.0773277554280774,0.17958387061531686
-0.05573689869269017,-0.09758855116045008,-0.011343423634332479,-0.02944669397429599,0.06543531580116607,0.04953414474942884,0.04985096928028161,0.15016414335555633
-0.10260183367446911,-0.12237450347769123,-0.05916681350708921,-0.10818354192514071,0.04469245402509456,0.003085995832068405,-0.016259673066598788,0.11987201206308407
-0.05417270975280812,-0.0961787571021538,-6.40014561606686E-4,-0.005094464649110029,0.06546949870791957,0.055738897464007696,0.0603431139810212,0.17182949132073058
-0.020113163803093255,-0.02775245314859514,0.06982424156722689,0.06246986139320469,0.09126368839817627,0.09498277993932655,0.10938725770556787,0.17177803916826467
-0.02691624923002532,-0.08272255934663537,0.0351601469131947,0.054358752981114755,0.08056556076288934,0.08294438449481899,0.09051793346208298,0.16306711312487213
-0.06499769842354454,-0.08822619877779231,-0.024703858267613336,-0.02692511715435293,0.06003905093264186,0.04195142592997872,0.04960868684411032,0.10395139940888032
-0.10512725366554292,-0.1345494699699743,-0.05930076778952229,-0.09183844121310636,0.03376857227432528,0.00893996545344334,-4.4492506442715685E-4,0.09588096834954071
-0.032573300429553864,-0.07593321728209282,0.04108364259033705,0.05293579047224829,0.07605822674655431,0.09152188394232581,0.08287457820208621,0.11173503110656054
-0.026065046960331496,-0.02244738607661883,0.048035863897489775,0.06275989329634689,0.07906197446153054,0.09381977638431557,0.07855727533333148,0.14680593130534575
-0.03565242427157607,-0.06360432282780419,0.03801934390592021,0.03844185009110875,0.0876612248462386,0.0776280006843573,0.06376857030480172,0.137910979126864
-0.07722844627407027,-0.08231666267562082,-0.03606482866374213,-0.04079899030481563,0.04965940895011478,0.04090999338396152,0.021301804775850162,0.12020373669864176
-0.09308921164617032,-0.10644502770746624,-0.042756419271397894,-0.06499316731562393,0.04510591309305097,0.029164114335455647,0.0042576668240140655,0.14158806770915325
-0.024898658852071404,-0.0241712258878583,0.051110033757514675,0.06470419712453714,0.08242831008311521,0.09445930559377559,0.09259808467862587,0.1585955250186474
-0.039520820851185114,-0.03981262336170438,0.04199512135855168,0.032864579840770264,0.0740973676339284,0.06924020663790742,0.07375746563113117,0.15441393770342063
-0.06188962094458463,-0.06724849828119407,5.206112037852845E-4,0.006251245555129254,0.07026002503940755,0.060437359184036615,0.04841726073429555,0.14288862455526863
-0.10619142502872737,-0.09193207094089932,-0.04975349512293738,-0.08696991275651553,0.042501123443624556,0.016235425956340012,-0.0032952965636464868,0.09439276602260055
-0.0607197495438213,-0.06347432004412064,0.017795733521467114,0.020444070360177317,0.07108296244661541,0.06794262201984981,0.04922579485801834,0.11382718991263652
-0.025415754998688627,-0.046542380849694524,0.05291249810986519,0.07412949551733881,0.0821412690195209,0.09675493426175986,0.10339970087092273,0.15798785038683377
-0.03289822499339699,-0.05243915077912094,0.05053204639031526,0.05935039764499063,0.07209366007905066,0.09976218266398415,0.07562057984278603,0.15958464867575453
-0.06695935516565085,-0.059088816267424585,5.733193723597846E-4,-0.012170843168598018,0.06403666174699024,0.04560454554007205,0.032972501551546365,0.1260296121681167
-0.09663606175461201,-0.08849006977866361,-0.04533828399101519,-0.06682412918589362,0.04622627927802775,0.025720590949368183,8.877848363691501E-4,0.1173764058381893
-0.02700136241591084,-0.0480030246022838,0.06555993112279224,0.08398660009228778,0.09442725059649207,0.11090683937193427,0.11630756297238132,0.15565166393172908
-0.018022438022085287,-0.03614106664067032,0.05755728293867667,0.07958586373713983,0.09838482181896024,0.10642306229653345,0.11298427793047583,0.1435884393698318
-0.033789327907001954,-0.027815525468285286,0.05371384064972492,0.061930845795847046,0.08676340581568334,0.09938041099952173,0.08660969698667956,0.15572359384090068
-0.07006716159848454,-0.05267760240470123,-0.015317789300508033,-0.02630943822450337,0.05798071920013223,0.04775852583440465,0.03666225135544057,0.16114408493968457
-0.07149461781361818,-0.06375024148070141,-0.007662581725888313,-0.03315622984178168,0.06632080656161657,0.05305876705267608,0.03203283640963976,0.13086391352649485
-0.013130472771634863,-0.018002535386324025,0.07406557662069449,0.09343814297898498,0.0976511540673358,0.10976587352911443,0.12811368364201448,0.14305407311392604
-0.01724756701594967,-0.01593561150836141,0.06621909824674682,0.08063971754138705,0.09165316382083823,0.09988069257229301,0.10469629238364235,0.15572780732890998
-0.03356982733509603,-0.04003393518877023,0.04327852787213646,0.02908525895213559,0.07026708726338758,0.09451662193238387,0.08241563781237682,0.15623625714139586
-0.08918859707821424,-0.0630968874031609,-0.022023791770834775,-0.04862937865678578,0.058324403313872904,0.03731604064819304,0.02885600799848663,0.12214299314533753
-0.04528574471491621,-0.04543079437729711,0.03768056690402741,0.04921178391297079,0.07911415775838651,0.0841446106779594,0.09579566962155302,0.12281969921641503
-0.027333680735847368,-0.061567956028864314,0.04698007584342647,0.06743877162118259,0.07392098289171711,0.11269280578381656,0.11335931367206487,0.15105445577641918
-0.037353330773472075,-0.0458583872583957,0.029282587431260516,0.038556305694986893,0.0821224917947051,0.09459778128882586,0.09529648030877315,0.10934401387302849
-0.06298539268192078,-0.07076981066726908,-0.012747529733735958,-0.02826932749108771,0.06852676727451824,0.05527720158646716,0.04299739366671386,0.15137685590680852
-0.093199063939137,-0.07926668325677251,-0.034299964975649654,-0.0744461567289624,0.045302464288231134,0.02542036584779647,0.018521126842487495,0.1492081940383216
-0.028881519021783014,-0.04168664662325453,0.043454880591526454,0.07197170414829171,0.09570610397882733,0.11015784851925188,0.1120770743506956,0.1575453926669057
-0.025583508410864132,-0.04358969204503765,0.05434489905235464,0.08388396341270245,0.08342963805108132,0.10805442996164896,0.11737448294288776,0.16102945447548342
-0.02968486565579994,-0.03354073026100807,0.049325618269136055,0.06220274120916982,0.07337266360314726,0.0974886511208197,0.08806152281155556,0.15304029246636308
-0.06512966725307959,-0.007066032099320434,-0.008771618769738308,-0.03041864500853889,0.06835064329013071,0.05782718526714724,0.061272472830422725,0.20445848866428373
-0.06943648913134548,0.0575711090788486,-0.0033803967493677197,-0.03688710875317958,0.07580270051913565,0.04974460444624465,0.03508417869752731,0.2060242884387622
0.01570725069550222,0.12029121132567139,0.09695977621468657,0.11434038340434208,0.1161490302760268,0.12407783991697814,0.14400133688737982,0.23058114805363605
0.009188767448809027,0.1343333608053524,0.09027395982096059,0.09889242338077424,0.0938384350205817,0.10317685887038336,0.10794088037389307,0.14906300746459386
-0.013338447827213258,0.11027548650872732,0.06593816237062936,0.059655034515433955,0.0774220005832991,0.08135848556235858,0.08266769770949062,0.13967315278954728
-0.058166100941987514,0.07696588063312257,0.0013073950991219349,-0.02637157237541446,0.05664750721178005,0.03812759788037455,0.03885243981968588,0.14338942887146164
-0.04932108209043495,0.10149215209106226,0.022592286651356694,0.00618786515251846,0.06369405182519977,0.05338697778349371,0.045998073266004726,0.16602839273681969
-0.00884642584113831,0.0736350382094361,0.05691388888192058,0.07050196492021762,0.10128599689715378,0.09389542247578672,0.10500012229911779,0.17169010813950425
-0.01583938129084579,0.06439422841727646,0.04988802221367156,0.04915658742588896,0.09119406207086882,0.08256873204433854,0.07173313616055056,0.14329014089479744
-0.04195292591032544,0.04630226676460619,0.0068021132167396595,-0.0051925891419888,0.07009269327672754,0.05451333990920408,0.0505053066844129,0.14727768335283856
-0.08236215555233282,0.05945076010342039,-0.048633999734518894,-0.08883047850038793,0.04448883217133255,0.013267427569826318,0.004800036828545177,0.1617377373079035
-0.03539135418130115,0.06403518058215046,0.02093012358300907,0.01708898566359394,0.06123364176739125,0.05415032915695575,0.06818467653195047,0.17980680766772675
-0.02443499772846825,0.05982697698101054,0.028111788294375332,0.026773368087199278,0.08053410640232553,0.06113825727905876,0.059748975190569646,0.1550744381065912
-0.030190443001494954,0.03418052161765253,0.01845359939235045,0.0028876199058652206,0.07461108938735543,0.04949995724315418,0.06620573131416065,0.13744847040743224
-0.07736305982282517,0.037531937169005006,-0.04637912345842303,-0.07682905588736857,0.048580924389374655,0.007336390173829568,0.018615750335694972,0.13594821170113303
-0.09935238131170987,0.026816003315487336,-0.08045106192612682,-0.13057009036009912,0.013460299888898769,-0.026455567790521002,-0.0319781350899036,0.1208271796472192
-0.052076118909530955,0.013912237326940254,-0.004190726831984376,0.010832886428812194,0.06878701228733869,0.050901077788680985,0.039861082758901704,0.12581724179308845
-0.04383028754277977,-0.030230760858875314,-0.002199364617491366,5.654498014644287E-4,0.06068907089009636,0.06273076427386128,0.051022995613111424,0.162379033128706
-0.06608438513416019,-0.07648700843791309,-0.03675785305438545,-0.023858062876981435,0.05820833634162267,0.051153468421354265,0.04514015334977411,0.12329913055478353
-0.10791647624543295,-0.11321166333639668,-0.10159403466206858,-0.12229487725460692,0.044253529514777054,0.014616701803968617,0.022966877823668255,0.1412400564603087
-0.12011512014299008,-0.1510412169660058,-0.12424976172539257,-0.1602057009639102,0.04748242440240896,-0.016816093230992216,-0.017181395394499203,0.17517295541372824
-0.07076014043921237,-0.10909931348904363,-0.041006817201183765,-0.04096509118022637,0.08187122758632884,0.06132049365389984,0.05000685721015288,0.2083401784811009
-0.08385653051168683,-0.12736574303341952,-0.06585596590282072,-0.07257510702360576,0.06792217492235009,0.03269139935878272,0.032363383703121106,0.19198854520968844
-0.08828802819727352,-0.1264592200773455,-0.08989078189576369,-0.10122606506253994,0.0605279547186553,0.019117318658694874,0.021374716945248482,0.1671924898248112
-0.1333119431284976,-0.1546907641373739,-0.14576272917679975,-0.18764501432502048,0.02636835985491611,-0.02328780586374902,-0.03245328465765689,0.17925879073561368
-0.12506094174503107,-0.1564318065335874,-0.12767207840601186,-0.16626957619054875,0.03034957347799571,-0.02875689327302052,-0.043856744449030705,0.1894101364591015
-0.08594792192538607,-0.09493500390749204,-0.07360333670291885,-0.08235094704648656,0.047418682170559,0.00939530857555798,0.009323565132661842,0.18734247698519793
-0.1005678703342185,-0.1226791151415296,-0.09427207507539717,-0.11893259368777602,0.02111132109898866,-0.014175415269413362,-0.018199914821829935,0.1824750415338448
-0.1200388268142437,-0.12172084519757731,-0.1364877878730829,-0.16560930537957896,0.021043955896130225,-0.03201867780714235,-0.03974356887819691,0.15150921107922125
-0.17731021760435797,-0.1753110474900299,-0.19087917240654612,-0.2427793883285062,-0.025341751250045303,-0.08214450954397662,-0.08885671459726718,0.12296513795602138
-0.1224339329781911,-0.10775313144452374,-0.10586103658208672,-0.12111410217196143,0.01961498580117855,-0.02292631446886094,-0.032549269876939735,0.16472630345966238
-0.108011625400141,-0.09029333090593333,-0.09294396167639245,-0.12635587142412935,0.013693826795270635,-0.023830459309337085,-0.030243096109957828,0.13029710307816322
-0.11767031484118526,-0.1276064973695129,-0.11037449099118782,-0.1493326270475841,0.02533013759673733,-0.0313162428414806,-0.03323974131931258,0.12749826154621632
-0.1561198253216023,-0.14495021781188294,-0.1686506448005453,-0.21578646550909727,0.0011778362294512963,-0.05811707954887136,-0.07196555379723074,0.11894187841167433
-0.14277379875447138,-0.13796478076762636,-0.1495636267551319,-0.18453206740633518,0.013840564669000624,-0.05025378268489948,-0.05090658033895928,0.13469556366918028
-0.08969571440719293,-0.0805555492662898,-0.07595295491749961,-0.07536445381044632,0.028749774465556002,0.007244255172492596,0.006864942029914469,0.12925737277805563
-0.10017896610768014,-0.10405004155228945,-0.0831583096170709,-0.09528474083087354,0.02188111581781878,-0.013776400986674986,-0.005787407502985547,0.11737709562486602
-0.112773576914436,-0.1369254077021184,-0.12118254948464195,-0.13432515911113518,0.006839091833417063,-0.027199138332222303,-0.028697826466145514,0.08285928151779368
-0.1450168440659644,-0.1381151434058017,-0.15397055519106634,-0.18439194289463415,0.0012436570353278747,-0.05030290075750817,-0.06554899172628167,0.09458627970058477
-0.07422451612731355,-0.07486083998364101,-0.04884341872339917,-0.043290753195180956,0.052060347338830755,0.03426718791850181,0.034179131797713314,0.13036502446594278
-0.07905668810948376,-0.07786769219499007,-0.03835765833229523,-0.049087805451856883,0.049742411812967555,0.03183077214188812,0.028360179350652943,0.13539072328565757
-0.0689607932615123,-0.08931367972262647,-0.045386482220061,-0.05669790296588467,0.04628537274175834,0.02799753981328876,0.02345452445797727,0.146802180655047
-0.10943751138253886,-0.09091294992686896,-0.10933134762785099,-0.13157199559524577,0.026071070234269987,-0.010274802478893152,-0.027520446255635874,0.1445919323006001
-0.0939582036370093,-0.08872956271578364,-0.06763918383476228,-0.07505832302135557,0.0326726862428807,-0.0032661359127278567,-0.002175143234727929,0.1339682383657789
-0.047055916155050954,-0.03376755963759177,-0.005179396008953903,0.010190844428633883,0.06544453789894583,0.049901597917403735,0.05874980596195179,0.16695991526793666
-0.053134813006269696,-0.05430750959536561,-0.006574054931146326,-0.01795914948916718,0.06492845319731401,0.05721451791703519,0.042853619463421394,0.15886336873744722
-0.06103825464883673,-0.059106637241301274,-0.03962641984414738,-0.06166817853080055,0.061615270880585396,0.023592137265427124,0.011734925873738332,0.1867482869810072
-0.09366203264521564,-0.08389274435796659,-0.08481876288139716,-0.12932736457934427,0.0372510511525782,-0.021459881408189135,-0.022622817333290232,0.13956132799010362
-0.05211621465894432,-0.04061269444117237,-0.0035833573250981035,-0.0013065133556177874,0.07910349625608382,0.050862287455323604,0.05332450930370583,0.17466822609636548
-0.0381838004648053,-0.03527146469017458,-0.0052721200983361985,-0.005598036831344692,0.06393344468111478,0.06393193236657856,0.050539997126265855,0.17432611588355784
-0.05467135164721666,-0.04248470805610407,-0.012460722908169752,-0.025916834512753936,0.07311311835034423,0.044721866310430375,0.04451105529614601,0.1555575943630131
-0.08544001475446505,-0.08615212473596146,-0.07234369124059181,-0.10494669560466538,0.05148429142768371,0.01620155428368837,-0.004254258008586562,0.15002935316065596
-0.1018477875887951,-0.09739635485492888,-0.0809395061869117,-0.13509168841214036,0.04068467565461118,-0.016588326872733393,-0.023350017142205696,0.1570253171203274
-0.025096608062648015,-0.04523263574976087,0.01720142034566149,0.011505632515677485,0.08799819073671697,0.07271237754484572,0.08662853854785633,0.1785823599912787
-0.024617048227253097,-0.0660562492749888,0.011348250423889886,0.013402839935084673,0.09974685365913108,0.07294902946192044,0.06889928794493161,0.16970199757142637
-0.029888604356040682,-0.05069815196258592,0.0032799000702735635,-0.0026365096347905487,0.08977008466995298,0.06306635265293734,0.06278676871238828,0.18310532619500458
-0.07095165550499374,-0.06975753538537757,-0.043522418207426423,-0.08056210304014672,0.06105613783597869,0.006401616043167781,0.01252548941762744,0.16108064463078559
-0.0797315222615172,-0.0803108143864919,-0.06665328098361048,-0.11866040430083596,0.044099618623477374,-0.0037804159344983707,-0.007373790217322748,0.1437298656713772
-0.019349375150655067,-0.04402758866975243,0.029394707816927337,0.0398389353272127,0.10782573278903702,0.09159940301251027,0.1026456729810001,0.19091692345832934
-0.017557437608464455,-0.0032916651291117864,0.044578846768460925,0.040601818712090634,0.11077804792552637,0.08960460373279888,0.10156579942407135,0.211595465538092
-0.013096294526911053,-0.020220446202474415,0.03389799474811821,0.021033867545872414,0.09865672741659892,0.09313054908529313,0.08926420367585709,0.22151894675039868
-0.051902773085204953,-0.0556451840022357,-0.015126594628754538,-0.06530505804069825,0.06918631276183303,0.04527038258496578,0.04461371413536917,0.19982275800451027
-0.0847471166337362,-0.06044447652856086,-0.061464837713034515,-0.11210862527728671,0.04784180769769637,0.01448442155513555,0.0039590633260444446,0.17245566368271978
-0.0251020974095088,-0.008995940216161805,0.03646311779869699,0.013470307483376458,0.09437695062289339,0.0812118045812641,0.07812425223641198,0.19572359139652978
-0.010545380255112074,-0.00685059814938381,0.04535824244666119,0.04336659126522751,0.1067039121074685,0.10055958886364283,0.09351939305452024,0.1929946850149769
-0.024668360544109945,-0.04401140821840682,0.029734819171211062,0.027427456373633412,0.11058688906463063,0.09161204640215782,0.10314206254086503,0.19376264801049703
-0.0573566145214055,-0.08503565018092732,-0.017817477070362867,-0.04478008275343211,0.07640196171166377,0.059244210338824835,0.039282213532736886,0.16080628772455582
-0.08537820779227494,-0.11363501877977558,-0.067681454859472,-0.12382226592756598,0.060713926963568296,0.002593832154836705,0.005412185017140974,0.1673352670883293
-0.04987598769996085,-0.06221605594297101,0.011167681077930244,-0.013313939922202957,0.08241576460700191,0.06285075259572484,0.068168124698569,0.17624201260484287
-0.023443762952918765,-0.04807402877208298,0.03132458100167522,0.012768381678740191,0.10391112988750363,0.08180360513950874,0.08235655419981666,0.18142952278316765
-0.024444837114668917,-0.07338353531546939,0.023237379569484073,-0.0032300797026542857,0.0900912217473726,0.07523843776518434,0.07884183528611709,0.1618714603906186
-0.0567910647326029,-0.0904590764061717,-0.03485751013939583,-0.07773462136587733,0.07272525245295214,0.033490763542621975,0.06065696846568208,0.1552893154740781
-0.0820791357142569,-0.09682931841361869,-0.08464302965134186,-0.13067972090312163,0.05028136552394476,0.0042694195095098995,0.022576515527817923,0.15838647324654556
-0.03398956068652895,-0.02031305339300224,0.03384062974860531,0.011904481996744813,0.11068594556108309,0.08639691123402263,0.09389631220619936,0.21541884644237408
-0.009626936423179043,-0.05117623283865025,0.051557382237020985,0.023001047575143985,0.11005777530373982,0.0960836654522658,0.10114927345991671,0.20574537229361387
-0.009447266511172794,-0.05052793868235535,0.037822654291339186,0.02761655001543617,0.11072077787983886,0.08343119745353243,0.10817280264453409,0.20640598777910762
-0.050827261141423566,-0.05260351024373847,-0.010482286782562002,-0.058130604231683355,0.08892749708180642,0.05768682661249253,0.06150773859323823,0.2019819456041926
-0.06782968953808859,-0.03833409480848842,-0.033700738847535654,-0.08829798842672171,0.09046583517450942,0.041604602919174886,0.04660645629142014,0.23029107842542137
0.0019035543443457967,-0.026483259015913422,0.07719778871755995,0.05314881166495204,0.15050595603252698,0.13633820652709863,0.13499792307451866,0.26583238483111066
-0.005344838761980385,-5.700401763332821E-5,0.07376397264766053,0.04345692460215449,0.13574997877078054,0.13425713559687544,0.13772802391676517,0.27424640403097184
-0.013166612048373915,-0.010852832201980652,0.05101062475959692,0.015284426635456677,0.13855867078229944,0.11417148081505298,0.107290712230227,0.28010223184437283
-0.0425317729614699,0.02051094544616093,-0.001017514452587645,-0.06378465144109607,0.09264171891858641,0.06709878143137295,0.067952028762119,0.2034341671194901
-0.02225725584124769,0.07349632343724541,0.05567888042623431,0.0076805247161051,0.12555744283458012,0.0901946341735839,0.09445377475717326,0.21823249298823905
0.04038037186161129,0.09805229607755281,0.10788643781019075,0.09545819233384675,0.13210377371372847,0.13711287320001297,0.14404230809687113,0.27826676277728823
0.016496601428519497,0.005081042333070444,0.097508073080087,0.06927492116106344,0.12322253747234573,0.12103498332836285,0.12160714046427175,0.2565361046629969
-0.014347443276324715,-0.08730999075576776,0.03616374552303534,0.005823207265054961,0.11005307930693266,0.08287093853854761,0.09468454170137294,0.19316892215376885
-0.05491403395731966,-0.1584854514036859,-0.01753704167149044,-0.05043781213624492,0.09183505716958587,0.0717941386187245,0.05895711785104313,0.17176544791635523
0.009698881373175964,-0.11263442802406151,0.08279214768426993,0.09268609001235534,0.14882085311657117,0.14100958254239618,0.15449420835108593,0.20024746188145856
0.011228346530424748,-0.12834544272052523,0.08220305629114627,0.07520528728258379,0.13607798153390252,0.14015491778700268,0.15949193145894902,0.21775207656724732
-0.005796653170542787,-0.1397179788882533,0.06836729217442473,0.05478946075456003,0.13619380812268264,0.1244173399718715,0.1387685826338039,0.1997302215467163
-0.03616102543913709,-0.15938856646479804,0.006511052033292886,-0.03180057863270109,0.11027587524857485,0.08645932791989511,0.07555075577816332,0.16103616377908658
-0.0015287002002744542,-0.09520817732327763,0.06997582987178527,0.048494826489131865,0.1298866092927366,0.11594756138478349,0.12215805247962262,0.1917486968283403
0.04644247379636561,-0.049856411346571566,0.1375255873123522,0.13301928396724394,0.15746267190332258,0.157087568246626,0.1764064433115044,0.24379485453681782
0.04491291498267097,-0.050971628812290684,0.13256296728084527,0.11239994702138048,0.16177600782349602,0.15515267347438927,0.17123053349684622,0.20384112183699982
0.017322834152066285,-0.0668759099170674,0.09190541007154195,0.05617813744123296,0.13014911992653827,0.1267495367244647,0.11765154891644074,0.18180602950495425
-0.018450367212992074,-0.06922390335976196,0.044801171097763076,-0.0013854534983075636,0.11637011175017092,0.09251022342150447,0.05867707004930931,0.1717101484444292
0.05140682669942149,0.003952837873376687,0.15590793207323428,0.13037194236694136,0.14520631082972169,0.15741878303488507,0.16070544855660404,0.20204044401172971
0.05299630735686103,-0.010056464691321739,0.16392389870274576,0.14251861918189002,0.14727490276004365,0.15839363574211734,0.15442017459245116,0.17661074906235086
0.04916079722504944,-0.029367111271986112,0.14379956782831993,0.11078773501350377,0.1434160561421495,0.14310840072132583,0.121499695563735,0.18805526185788857
0.0036192480514804625,-0.06456270703357682,0.08976274903707472,0.04472252105339681,0.1063679340765067,0.09628051618601646,0.07969150728982086,0.16316425265256368
-0.008017322932433674,-0.08605779100588619,0.06993035842213077,0.023245727925877292,0.1116611243366194,0.0726295004575233,0.07899297416982064,0.16512603948313354
0.06833143641930173,0.01744411672922929,0.15211568884358592,0.13755714431149899,0.1579187341980052,0.15239074039704853,0.16273468436473199,0.187859820067932
0.05803811687404406,-0.01227957308560267,0.13531981084508576,0.1210804565692313,0.14528783784327798,0.1255899823561907,0.13709146642250752,0.16037105853379882
0.04810178405006342,-0.03170935022118536,0.12326787457961087,0.08302328568226165,0.1346733869903469,0.120569515578023,0.12197346186631365,0.14097433088500752
-0.011092445262741639,-0.1384596110907803,0.03719451817560839,-0.009722816448469604,0.11973359149683413,0.0921390999659532,0.09665607409624627,0.2112427871026952
-0.007141070438481581,-0.16341657346938362,0.07248390677701043,0.026028273315018544,0.1623263474529503,0.12071674044352666,0.11933004763135979,0.30321189257792874
0.03164895351518288,-0.17906912585109783,0.11073471832991155,0.11111689545273573,0.19705337615381763,0.18082226351572245,0.19243603792570232,0.3861446424684621
0.02110580604664011,-0.22032432556721304,0.10518599433667501,0.08377142615019387,0.192316214585087,0.1830149656849487,0.17666738124474346,0.38768190519060175
-0.020951016057721907,-0.24233712375262828,0.0573229376712676,0.016086698141130326,0.1962062383110162,0.1375926199739303,0.1544913252702615,0.41763913749265485
-0.04815651815537832,-0.2703800047822464,-0.008737447764295247,-0.0481987517326794,0.16182056752218682,0.10810042248641455,0.09312010117790362,0.37932698858345704
0.01154554603025252,-0.20916292173930798,0.09490078559377194,0.09341216157228767,0.20931045385520275,0.17462873099365234,0.17719751167844047,0.40890496499058815
0.023134512647729845,-0.20479118912122268,0.12543715646979556,0.11726931812613042,0.21809857305730276,0.19337334535133033,0.20053377376145198,0.3865205429848409
0.014050664279766084,-0.2108702366269624,0.09471747433750015,0.08998547634833601,0.19929900564076766,0.17896122191203695,0.183694225052976,0.39391953401458235
-0.03206069782336497,-0.25748441357456864,0.033126524668217555,-0.007974323010050889,0.17842918911334382,0.13567570257771985,0.12826566218134175,0.3658810273072932
-0.046237311054160735,-0.2234174150804277,0.006392073583717961,-0.05072443601997821,0.1504176651393884,0.09361521446023174,0.09783200596728715,0.3185932650947396
0.03296117436057947,-0.1398910502167839,0.12421715383340981,0.11885606662510376,0.18027550747252022,0.1769371811935586,0.16894856508870418,0.2909040577094176
0.03145599592305398,-0.06767692732441703,0.11507351794433995,0.09273591600288202,0.1575077292811677,0.1544134999337641,0.12204804948825759,0.24275897692975643
0.021017659533872853,-0.10040673069450008,0.09939717151544178,0.060065566781415405,0.1347046445150277,0.11904811177213014,0.1041983337927584,0.1853728837117614
-0.03827594879828431,-0.13080750050735918,0.011795056307284522,-0.041742509200420365,0.10165920625758726,0.06649274356763639,0.056957386779436694,0.16586129019851095
-0.0236562682625611,-0.117932319153157,0.0236069938769218,-0.006002077973504792,0.12898716257236237,0.06959026457166965,0.0738282705351925,0.16807268130550587
0.015046002075683063,-0.07453269868643714,0.09335951509287377,0.07180091411781736,0.14070392970179216,0.13183196825752064,0.12889140899664644,0.19862611436496153
-0.004218120171663552,-0.08498490428886803,0.08028202392072495,0.049363499934188,0.131359131673608,0.10089821130954571,0.10607292544601246,0.20189598296273545
-0.027859271664825845,-0.1110261058374078,0.0396255716591416,0.001649032250620977,0.11158658362360352,0.08284401332156585,0.050688241742192275,0.1661089662692051
-0.060315357732657233,-0.09670082204308861,-0.011589621703709474,-0.08137850272049126,0.07876684103040192,0.022164023694825823,0.010932599940388279,0.15069515331764555
0.0046813334403718754,-0.08648816770693749,0.09007833507157656,0.052984530395818755,0.11303584556494296,0.0972106222812175,0.09513905573622032,0.14091161005955255
0.011361377141945798,-0.07046269093316744,0.08280171284975277,0.04563874017649192,0.11564734234082347,0.0922963837775041,0.09386180888210213,0.1579007112646755
-0.007197080118648337,-0.07393100250212901,0.055862848751285485,7.779574257192889E-4,0.10194582678492087,0.08382168697652018,0.07945320285878205,0.15405741396643144
-0.04818769197989688,-0.13496175570881597,-0.018371442072415846,-0.08134948467304358,0.06849653343611545,0.027061817263479976,0.017213088240914068,0.13127227952707332
-0.053885179626598806,-0.09935343292992188,0.008849532773246883,-0.03140749152799446,0.08792396005820527,0.04854241455940706,0.05022223871025608,0.10873142018435979
0.011045243374257326,-0.08124814823789944,0.0995799263205675,0.07983616155696954,0.12637218679108647,0.11700330601715161,0.09999827902200202,0.13408585123667338
9.819660733073124E-4,-0.07859469438295606,0.07988412436411016,0.05774661456865695,0.10600284990039141,0.09140277781240573,0.07233342935914014,0.1374787318235874
-0.021044499159032115,-0.09758770420211574,0.045361200628591516,-8.436528746525312E-4,0.07968965515688924,0.06548214029091522,0.042190602316571915,0.1342775944284833
-0.04852014620476737,-0.12567522701781383,-0.013830037067911024,-0.07570135016696208,0.0621868486064697,0.02327700325267441,0.01947411820568135,0.08684878872923656
0.008058317037274818,-0.08731461462437037,0.09417133908183134,0.08111533579573049,0.11868907209245923,0.10640994349408575,0.10275766487782755,0.13956136027052357
0.02048114622062528,-0.0686483981429305,0.09654171791289454,0.07417556737454833,0.10024496925051056,0.10276963172916724,0.0901186393249515,0.13838252922765046
0.006898274725111352,-0.0937886425784115,0.07508146592753359,0.04622582984903766,0.09605297023504895,0.09293004416232806,0.09285418912869282,0.12190953454086598
-0.03274930397719801,-0.1296606283226257,0.012371919056160717,-0.03125541866944767,0.0688117160496967,0.042049438039774616,0.026984169439237773,0.09151534157829853
-0.035676382994704,-0.11983941632529958,0.023164484445356334,-0.01823446460483394,0.07497296349906296,0.04934056193676046,0.04300367788456809,0.09992867283344604
0.024437341628940824,-0.07678612678341468,0.09766406724282889,0.08228977079869462,0.11170740007199502,0.1127681842688172,0.1169635359504238,0.11190088576427884
0.01866241748317551,-0.09158367534411951,0.08476714439015479,0.06405478232021039,0.0915401114425678,0.10937235324738605,0.09714170795560899,0.12372092983080131
-0.013594921181336877,-0.10051940736153331,0.05845320674942984,0.02352692114611,0.07931510011829421,0.07204696370412972,0.06921598886357931,0.12503605472673793
-0.042775054888419456,-0.11354410020006982,0.0063126270529293566,-0.05647799340641954,0.05974223996644922,0.033672342871722355,0.0257708837013262,0.1192141618798293
-8.0553304769862E-4,-0.07241466600254502,0.08812732379804357,0.05941875241438416,0.09961016552048958,0.0908855180240874,0.09777094075454333,0.12479710549161785
0.013255641819177098,-0.07479983916668657,0.0804030370850658,0.04582503525054864,0.09923448565186904,0.0823988297684754,0.07916930498221267,0.11038778585943779
-0.002019491054747492,-0.06517171875539413,0.06299155672276968,0.036582878869535505,0.08481109537625675,0.07363777381878821,0.0737427316356111,0.10203025819337773
-0.0375098894320931,-0.12097867409625405,0.003673210582338639,-0.041588509838920415,0.06383861347856887,0.034951982929718864,0.03316326571151654,0.09572435245623268
-0.03742899535337073,-0.08814267828712609,0.027419912237482077,-0.0107544790932017,0.07651092679063909,0.05612494757938145,0.0554632725250161,0.10180515862551073
0.027028139111568365,-0.04934227367176195,0.1028806672393732,0.10287122078834118,0.12308328920396103,0.1325582004578169,0.11091593133250567,0.13390254656066986
0.015616629595329003,-0.066851152243235,0.08778882359333076,0.07391106935121095,0.09840731953339767,0.11072560182321112,0.08971455246372019,0.10162698608762623
-0.008894582764621363,-0.09973176272389768,0.054161707014741156,0.02241321860532984,0.07995411496511713,0.08339461923415961,0.0583517948873818,0.07983817820791271
-0.047788833733893726,-0.11827000774078314,0.008895958987099287,-0.042623963596771675,0.04965918687636336,0.02799085946980258,0.015970490353800177,0.05873113952831566
0.019219044153936105,-0.05141473545097319,0.10510467216021935,0.08592562237779479,0.08806240893751743,0.1099846388359448,0.0997425162370661,0.0784180378378305
0.02511854695127348,-0.04227476248089098,0.11698402119467816,0.0894378656263044,0.0893237889011956,0.11293577221615067,0.0906841469270133,0.09225897184458269
0.019139158842567578,-0.08154469628004471,0.09207278854024298,0.08269402585168181,0.09295255253400703,0.11095082304747672,0.09300161374230943,0.09531361962556222
-0.017367923865010845,-0.07642594302798322,0.047743542253187235,-8.373494249550792E-4,0.0745753001843254,0.05611986877682332,0.047179671214502054,0.08837334190210791
-0.029399111601578928,-0.104511430923294,0.02756383904373015,-0.013874908602818967,0.06866604297735542,0.05770866677428089,0.03169639529940933,0.0953182725143292
0.026552096302199388,-0.061810720450330134,0.10924210159521182,0.11133488482360454,0.10199891927275923,0.12191551085617852,0.12768782230189435,0.1110598158240867
0.01522198089557523,-0.052457422121848875,0.10469128317796345,0.09122513679495727,0.09868948557611257,0.10138311239537116,0.0979018864231156,0.09165518680153867
0.006246798448119248,-0.06765438224191203,0.08377507653507768,0.045740822903507915,0.07341615232066892,0.09541368466778342,0.07939365271805736,0.11330040290552654
-0.03565281046679253,-0.10118875512198083,0.02341470973399322,-0.03254993373825707,0.05953011052090362,0.044927360684364356,0.028192285388458103,0.0991592728558629
-0.003639800905063636,-0.03901195577400696,0.08789866365699706,0.06793389764684624,0.0952443342830196,0.08926732034876618,0.09068668460919267,0.10588440565122403
0.026625450396129586,-0.05309807254134316,0.11137366074984759,0.09314660380934645,0.10121806253906475,0.11986840082482321,0.10575274591844107,0.08087102646963806
0.01719031377179786,-0.07705983113182306,0.10981200778175619,0.07735086766233187,0.09892665777775692,0.10475953146207075,0.07952365618873472,0.09040047032934281
-0.014295490158656393,-0.06749035594099895,0.043056843990010384,1.5612626389403805E-4,0.067064454566596,0.06837408355630786,0.039878406904801045,0.06957993738248858
-0.03944673750668924,-0.08634616660659644,0.020631720575714996,-0.020735390994320896,0.061022014008708755,0.04145540792844516,0.022199563615152376,0.06267472796829243
0.03490887182667252,-0.036915878449120004,0.12308979877692278,0.12809878610418904,0.10569554371934098,0.11967483930855724,0.11943502706937519,0.09423215211845151
0.02235582137594223,-0.04389342905565253,0.11218162736035273,0.11375055680855067,0.09086905530892916,0.12090764633082211,0.10545374790122113,0.09736562631781943
0.014949311856607219,-0.017776812263294202,0.09813209245365409,0.07473473953942095,0.09759457163580648,0.09053755564188695,0.07664664984391921,0.07555042416888774
-0.019506139146618758,-0.07773190896093127,0.01992295404377288,-0.013430318946335291,0.06001403936598573,0.05147562356369613,0.03750691519666201,0.08945150202502782
-0.006574784135518154,-0.08360762177928306,0.07548761977110491,0.07024809396494136,0.08421915248350365,0.08403611151918854,0.08294737863388946,0.062283157299665826
0.0416409868628935,-0.05638192833509751,0.13453347215705505,0.13640345347042665,0.10478081028697418,0.12983607066884187,0.11585196827248682,0.0853407632900309
0.0269709318242196,-0.03421409663702585,0.13177118420545744,0.11144593013941202,0.09645789920245446,0.1241663908680425,0.09777181739103498,0.09742101165887744
-0.00228729537863352,-0.045247455007935505,0.07039104455624667,0.04950487319050145,0.08458818125323778,0.0850388603991035,0.05959870753499254,0.09516139249746677
-0.03603666829175839,-0.07598935315350738,0.01593640564593319,-0.023624740222874023,0.060373497312457884,0.0348899615510767,0.01730774996230592,0.07225343002156515
0.009919556409069316,-0.06437699868727462,0.10264581488371967,0.09023735887207876,0.09532368467167497,0.09872582112166849,0.07852103852545056,0.0960651755253086
0.017253479475813207,-0.05087799797421158,0.11681392109965638,0.10871470921867987,0.08292886329238444,0.10943927998546937,0.09557653236180395,0.07901736054874844
0.015478734131007699,-0.05489279214365977,0.10378987838767953,0.08340913571631843,0.08427838271376936,0.10901148032092654,0.08000340038547743,0.09896435941164407
-0.01508474617607686,-0.0709383042952794,0.040863861083547816,0.00880831223336271,0.06357046489520295,0.05755113041627944,0.03947488999014455,0.12442050587088496
-0.035922464524479295,-0.07070200970746893,0.04738765447290959,-0.005827146980949265,0.06015318220962428,0.05385036620119137,0.02291350405180577,0.0924545689582024
0.02616436151111023,-0.031051686688948442,0.11435273877090078,0.11387383458336114,0.08717674549582749,0.10706143721087759,0.09677521519696242,0.0702919073371456
0.008138421626065867,-0.051009083183985844,0.08653931456545133,0.08144024920911161,0.06688010191406508,0.0904655128707622,0.05752081745856759,0.06266502030071786
-0.00480377617887565,-0.09097362654559313,0.07844642809578906,0.038153244581772924,0.05627879556055301,0.0659843636187281,0.050333330617748244,0.046152011516549546
-0.048978206077907524,-0.09853398283779016,-0.006585351773008487,-0.04722484865961332,0.04616935507670073,0.023356482798159543,-0.0029435931072767326,0.0700104442243733
-0.010301963969391712,-0.05663607941709778,0.0982084792825578,0.07548743369738746,0.0827769318314364,0.07548771803137838,0.06290287359707618,0.08264703995653412
0.03435711743713782,-0.08324793324629334,0.11854415094131399,0.10727953646198327,0.09116427502153622,0.10348385013428293,0.09495417704563414,0.06955986473763419
0.008649408451052658,-0.08243955056345133,0.09576823422592683,0.08804194173090674,0.08180920837227017,0.09909931415810477,0.06795601834995765,0.08276716431774789
-0.02645670762170586,-0.09569112453378331,0.04689303868052738,0.014012600891564503,0.06435821549400346,0.06133632831889872,0.041174807240309766,0.054976326425305144
-0.032932198477715974,-0.07724959004198273,0.027629346820377758,-0.003936496023120413,0.05245911813602368,0.03976835531764942,0.024517849233363517,0.06832827424735796
0.02968926735666802,-0.030666309526230416,0.1232998843765637,0.14309805022757577,0.09936939115992857,0.12422702932466084,0.10711483376672258,0.07109975116671036
0.022536801434959636,-0.027102798200364348,0.107367671901055,0.10178147309276914,0.07354428524890547,0.10027292386300223,0.09364132304985943,0.06260034229858323
0.005499569251020389,-0.08287718954939274,0.0921927109642366,0.07392349332220123,0.06990081892645898,0.07673402670961917,0.06575520725901875,0.0750591237475031
-0.04597302846772324,-0.0838630106961241,0.023946410954574546,-0.01336271504037314,0.06013200441546311,0.03934264134536988,0.014513260107174743,0.07016886751495703
-0.003368338882519063,-0.05550951296326215,0.08073303439905213,0.07519599187361314,0.07725120398663293,0.08323949841285676,0.07903166956050137,0.09874792366915165
0.02288947498878481,-0.025957909354281564,0.10983085379306753,0.11255320766863004,0.08611243860092085,0.10204090900284635,0.09102770159551846,0.11332089869262564
0.0189753599727065,-0.05874056039067021,0.10664706333969243,0.09570239374134594,0.08462350537429557,0.09093580139134422,0.09008108284047048,0.09263933347250777
-0.02159687179608938,-0.07785825262699017,0.04828861572360809,0.02162487007653708,0.06045865656319278,0.05215642401191913,0.05164844303540984,0.09028013616104863
-0.018870158989694165,-0.050265232842096844,0.048976560460408394,0.020072656842161134,0.06928156088465683,0.05127303935373968,0.0392946593549867,0.10377575310737225
0.036580101528160165,-0.03040884010298383,0.14028802329790557,0.14206917025665608,0.11831317098214565,0.11021433195084183,0.10448234648912581,0.11540796464335129
0.015567569673704568,-0.02086736721148341,0.11990494024796598,0.10690467314788255,0.08351240614156026,0.08745774033061215,0.08678153097399077,0.0956081678973733
0.010296119848610594,-0.0742781366100372,0.08167964822629825,0.06306939790913339,0.07300795842836626,0.07768159701586845,0.07109286884661868,0.09417544591318402
-0.04821632770733072,-0.07301333759815043,0.024539762097189242,-0.005070626222750806,0.047772614026320194,0.042438821560993815,0.03457965461051173,0.0818843486211452
0.020737863859198534,-0.042539922987341924,0.1292499701456023,0.12738492889994532,0.11426001171843174,0.12090001177761771,0.12162491605428705,0.0693350473171292
0.01889211850664481,-0.042489412625261035,0.12767867080492334,0.12942931374390232,0.09939037029902946,0.11301594689516806,0.1062730136817548,0.10034988066612814
0.010287959760137893,-0.06128897652428675,0.11313453670321315,0.10628149582432772,0.0745363006718069,0.11015769347107177,0.0979044244845407,0.07526017467172139
-0.027719532326105523,-0.08204455758291385,0.05773482427697081,0.022352225463796102,0.06717752218039512,0.0560197785728863,0.04568875006196117,0.04163293018352757
-0.018232350697214225,-0.06252546325441968,0.07586092481018145,0.06873591732920012,0.07329350607519489,0.07431139223264435,0.06918962745188204,0.08491954786634875
0.03563671173024775,-0.029976624215385085,0.14112881353792986,0.13559782571240775,0.08462384167219712,0.11650340111081123,0.11314348022641316,0.08916088402754667
0.021954296544466477,-0.04109016499738706,0.12056880527324877,0.11542233283076869,0.09163540431687425,0.1068175131818142,0.09463268501493424,0.1094994779296188
0.0031493992734903057,-0.07691591703732177,0.08193593353978157,0.06515727560992304,0.08158997173552687,0.08940927069001087,0.06230363425363286,0.05893054550099698
-0.0341881615421222,-0.0776384105019811,0.04909652443192979,0.006885383424205013,0.07286699430010102,0.04867273407121031,0.037473742981531485,0.0878178879618212
0.026113226932623655,-0.030186411500095968,0.13072950305758904,0.1265099868554821,0.1046898251500286,0.12345494841224854,0.11547197237694484,0.0996584617246108
0.023463319647684458,-0.020773840411293074,0.11666078438256178,0.10832789895827989,0.09169477718240798,0.10809929547360855,0.09291222381228752,0.06616023713941835
0.005194781707923896,-0.067112396575949,0.0874206865053054,0.073984608391571,0.07574694244217907,0.09191248343583656,0.07986566114927635,0.06999373395664346
-0.04201073329787998,-0.08710581442180797,0.032077329822296885,-0.009478190301285189,0.05127110404829764,0.04622595714541556,0.0246475879068773,0.06395151289596145
-0.0072556049822367725,9.759176236433242E-6,0.09745127127404093,0.08712156325542422,0.08337888135477811,0.08863492826164057,0.08473569218075325,0.08825295723976394
0.023510288851965405,-0.030570007267675826,0.12406383582111391,0.11228060135582418,0.10106933092849178,0.12095469619771099,0.12138238110506593,0.09427021981226892
0.021645702725402304,-0.05019527526835608,0.10204777497025769,0.10183443442731716,0.09380383821248067,0.10819799981507117,0.09418054323077026,0.09442614979069393
-0.022623302488745684,-0.08937135220428818,0.0608419971871503,0.02567162699036464,0.06161317081992114,0.06039588674230162,0.03724952271767536,0.07197163367250729
-0.035281627939356526,-0.06643050511521448,0.050244005704277506,0.01181862432049463,0.06595317660772657,0.05140789697514178,0.05187945389261674,0.07066822594774322
0.028664237644479333,-0.03842452497465528,0.13169493872792543,0.13857995091040443,0.10002336034014245,0.13520969859092968,0.14878530731920195,0.08151607048046189
0.024206293612274908,-0.0711735187057976,0.11190608351256087,0.10920658305372419,0.09081126743596996,0.12179108618958398,0.1160430769001272,0.06826905904129843
0.0025623707165687865,-0.0737823688541338,0.07165502823196437,0.06177537854490267,0.08163470839169759,0.0810494661135055,0.08634511281358873,0.030112581038014518
-0.042234944718523654,-0.11781148717391637,0.022698038765096844,-0.024070942832164134,0.06232916550679235,0.04199372873074032,0.04159138761854937,0.015585693682351277
0.011792903051208994,-0.08367578176220918,0.0978192228596363,0.09506455441252051,0.09737297142298282,0.10792106574262512,0.10657020281731826,0.0825576983936976
0.016954894487221157,-0.04792741592553082,0.11708061499834777,0.10581434816379956,0.10578823649441253,0.12068180771832965,0.13618072902793826,0.09651927400214748
0.005732027145034813,-0.09330215263981345,0.09061331324211169,0.0879707399241642,0.08626526362246,0.11231142401801818,0.10423216149641162,0.08206868600184475
-0.030518636204620083,-0.14013590309180662,0.046334423396158377,0.015089449930387591,0.07348548523411155,0.06804122088618243,0.07433906775309404,0.05449541402002673
-0.02112459174265323,-0.15431416761038402,0.055242865126109375,0.030940685094976397,0.08127370873988765,0.09379226606812113,0.09514709097534794,0.09600337314323969
0.025338404997795605,-0.12826418293649525,0.11163059567128354,0.10656453725555115,0.11480986009114139,0.146164284450939,0.16322206301038833,0.1491610985201274
-0.00137904426641711,-0.1892526747662912,0.09352849284237728,0.08635567522675255,0.11785095198650788,0.15441602523347733,0.14102985964114945,0.17457086751457643
-0.026703391645109632,-0.25176974754125664,0.044795855264037156,0.05070338358297128,0.10632879074237321,0.11818811448798201,0.1260045445951803,0.1545567733687511
-0.06319556912820078,-0.27706362343741364,0.005920033876234326,-0.007988701346732185,0.10354461006245613,0.09311842335361063,0.0802260773133132,0.1447615771073117
-0.004120709756489153,-0.27801229322074655,0.08991607378314792,0.11849965351050482,0.13402944945818274,0.16165211114976216,0.1934529331401364,0.18380629361034564
0.0053999684204633115,-0.2378730927464743,0.104663614323722,0.12833294764728678,0.15966739824102472,0.1714043343467898,0.20211361037865488,0.20378427952685377
-0.005371371440258267,-0.25409732117960837,0.08930319604579565,0.09972805891767353,0.15610125517874554,0.17103325744714717,0.1833775843245594,0.25577836927134706
-0.0536607809616977,-0.3697172382177813,0.011904869949239283,0.0057213936241808094,0.12783769222555388,0.12804476827660471,0.1389610171674531,0.20917635967238718
-0.04692726102132762,-0.34591618639529514,0.029250765042221696,0.029835902500380734,0.14144327492646142,0.14500534049394082,0.13684140959699956,0.22932619321350148
-0.007387225480721323,-0.3228401274496564,0.10039926634772824,0.11509456486274355,0.1446751967109833,0.19197223579548162,0.20011510071449598,0.2210770911081327
-0.010230459962960963,-0.2992537843539192,0.0918444152504156,0.11890044430055352,0.15675052893103664,0.1901393298875236,0.1789869707725081,0.2126552303988784
-0.018605089806220654,-0.3063290089094031,0.06650632795960915,0.06491302345881503,0.15067355408761293,0.15884553101978022,0.16604970930904386,0.24277046700780924
-0.06080551225414699,-0.3247191398839574,0.009683338719233492,0.01842533083707798,0.1289211692182755,0.12497561915028255,0.11197965785884754,0.1992612129105163
-0.0027998875509920793,-0.2728998220169017,0.11155770089040833,0.13810693159745763,0.16419491772982608,0.18526551700027677,0.20057984178660637,0.1557113183712934
0.01081383571615668,-0.244679086782718,0.11878741273108351,0.13353106360768388,0.15511338282340534,0.18703059139518238,0.18142278193694472,0.16492960522598113
-0.0032867935679538295,-0.2402389656043495,0.10585181485483891,0.1063958745881475,0.14673642188621983,0.1680895401081353,0.18377175495641968,0.2129099071504589
-0.05518709331622163,-0.24887224597053292,0.037156095483307824,0.03473655127491264,0.13125362026067175,0.11567400671623654,0.13254498455622468,0.19085940600384146
-0.045481142027606815,-0.21833227078618753,0.07782383546940502,0.07351531853218994,0.12411530104738658,0.15097912982872183,0.16548429881460716,0.18736883943618104
0.02475545167899108,-0.18719067624589852,0.15061029373226975,0.1774685992145561,0.1653198489987787,0.20014733165784215,0.218532895109579,0.1939853234261512
0.020891188036132713,-0.24318169394074662,0.1472717844202593,0.16030643231423858,0.15740533974693818,0.1925752346510148,0.20502152897705736,0.15908861009090433
-0.009654645921716705,-0.23221123498645135,0.08962797714969702,0.10120915234866125,0.14471264400750353,0.17051999456272085,0.17803351873669057,0.15964431420395322
-0.03809117474758422,-0.23143311845331238,0.042521079049577484,0.023854468140118552,0.1205311177993198,0.11916445008390986,0.11886832193605491,0.16416571003046732
0.013160070107333454,-0.20106065814894447,0.12585569378733666,0.15719089845962653,0.147299758444672,0.1877110383636436,0.20991459713293498,0.15889813965743604
0.03141531944862339,-0.19181437362415812,0.14571178196878165,0.1737713937711569,0.13961274198121731,0.19423728912992985,0.21553935140689118,0.1327415269950418
0.01316087298950392,-0.19905049583804013,0.12454481802883037,0.14708585050333256,0.12897912645243936,0.16767291402790396,0.18310501272536203,0.11357225202936899
-0.02863124009604412,-0.2553605033253235,0.0592822410819482,0.05518715679220239,0.11950155607828913,0.12473391380055696,0.12602853097905106,0.11779685920207296
-0.04812565845564186,-0.2506974426935609,0.020538174858873187,0.015786106240112424,0.09943743155480164,0.09020167243152719,0.10078242796045192,0.11970829928310744
0.013651449319859253,-0.20830841104765283,0.13491470385808108,0.15785968841966413,0.1507034323218216,0.17847386463498593,0.2053194348354198,0.13239106950841306
0.007416168002643461,-0.22946076709211902,0.11931951288068027,0.1502806239980812,0.13699758209324833,0.1651603689313726,0.1882541095050451,0.09376432454240995
0.012828026475259349,-0.22139977640299136,0.09506797256512639,0.12451224755139179,0.13359044914599782,0.15470103952096742,0.16518154463924756,0.11096524523781709
-0.03622191106271465,-0.22857338753563472,0.039297541396565064,0.03295787329078343,0.10157089309332692,0.11071583157970463,0.09702593674706411,0.0867899500593933
-0.04069867044662736,-0.18633742206718273,0.0583407770089724,0.05619899136855924,0.08998796378028875,0.10475445348171773,0.10086566964500926,0.0799322963895943
0.03328897099154798,-0.11733425592535099,0.15393176048041132,0.1767717855555568,0.132141358118102,0.1763726325429323,0.1744098890409738,0.09978893010302549
0.018771232499108566,-0.16926382987174177,0.12353280002108101,0.14539826936084033,0.1109115463240616,0.15276744512422194,0.16727534147500228,0.07082724050232683
-0.0064056884217254546,-0.18150532135660055,0.08161521218093894,0.08783026382415102,0.1155188191524326,0.12605337071531342,0.1278281121631845,0.11121119495354853
-0.050015232480846245,-0.23437924891816775,0.013294863559693143,-0.008307718972984227,0.08910354651537827,0.07571653745309094,0.07213438523444829,0.08961640912834054
-0.014662125819046865,-0.1849531221818465,0.08018413223669942,0.09958012642497434,0.09769243619366413,0.13323866982892346,0.11956942047431743,0.10200760507043771
0.01926058077003933,-0.15321080342475654,0.1295179694531837,0.14347886937264456,0.12112370171346634,0.16494748920567898,0.16533885168139967,0.11832411287102157
0.007140671717365463,-0.19172403180581585,0.10159653711339396,0.116229568994758,0.12109757599837939,0.14421161667318153,0.13557559998605323,0.08808093006338052
-0.034560399847388124,-0.2199144347806136,0.03789821677611459,0.0222281617021236,0.09521825439254558,0.10502598094502875,0.09159427426975691,0.0679101999107967
-0.07114297481845103,-0.2664589691461308,-0.01505327739260353,-0.040113487376904136,0.065147045209358,0.06553775455313016,0.04544570738839514,0.04463691123674621
-0.015140010756028494,-0.18492367857327208,0.09106838918288888,0.09186157783733319,0.10502678854969102,0.132179915245968,0.12552129132641895,0.07446811372168524
0.0039666969535449605,-0.1825654291395249,0.08094701474684847,0.09188444934455435,0.09906979801842454,0.13663925219104428,0.11988695053077841,0.07238317104529796
-0.021218671068344106,-0.18829878679598397,0.05208649511121191,0.05727809248536988,0.0905687245271303,0.11023860820779688,0.09453010877685425,0.043583768531681694
-0.07042207133109779,-0.2550686373662251,-0.016939995820930046,-0.012903569587420116,0.06234773390592695,0.05844304955600656,0.04871479440106858,0.03954735585306331
-0.07087833607157379,-0.2348319736875596,5.1975221790373505E-5,-0.011835249692562104,0.06405265594253022,0.0730980878478569,0.06165150412273085,0.06724516647872733
-0.013175236018751663,-0.22051475620018446,0.08403608252420143,0.09040452058464721,0.09691750982737862,0.13563929508882078,0.12851387650353516,0.08765550220772117
-0.032449669923253044,-0.2183003739234879,0.051755645992619045,0.06870746910674635,0.09014043721855701,0.11252092218906513,0.11460051923280772,0.06675558768334199
-0.06037005481633078,-0.23645030250316437,0.011999409335599287,-0.006477261560336449,0.06424343465717139,0.07968142818720199,0.08383638605668364,0.08502039529677993
-0.09626093176671759,-0.26251355998350834,-0.04948015946182883,-0.08202838692616479,0.04443617357585624,0.017041027765981494,0.02969143022332571,0.05720027227766209
-0.03320064156217763,-0.20730125372244507,0.056932178071296136,0.05724550368808024,0.0812534342240726,0.1115712498325061,0.09969038512610841,0.04821474729867969
-0.0256834845153998,-0.19197946880041428,0.06677503894474324,0.07783545068230452,0.07943919386233453,0.11127227454223297,0.12542746449494951,0.03792372190062721
-0.029172156668330222,-0.1905309515233362,0.05084671271921409,0.05293115917123309,0.06876630316875962,0.10840267231255257,0.10424300737812035,0.051904486336563777
-0.07834755096933155,-0.22335803733734133,-0.022027812835123853,-0.039821444184221136,0.05283185745955374,0.06017535637138527,0.05860256051703364,0.03779524164582512
-0.08038987577684067,-0.24153994567498444,-0.019270660791855118,-0.04671764758006753,0.04610882873227938,0.048317420546914125,0.03428219459941481,0.05008875275384751
-0.01582542838064309,-0.18882248492831305,0.07191722766141383,0.09008393270106826,0.09826752896852682,0.12984785305297913,0.12533437329708766,0.06508604702833963
-0.0186037987571556,-0.20774366913472345,0.055829333746635915,0.06538219970585032,0.07399969492204125,0.10815137057336914,0.09844918769854312,0.11844650878176925
-0.055471583596271565,-0.24529704932678953,0.021886737488939434,0.007433881315603276,0.08681852879678638,0.09828311935593674,0.08163685487492131,0.13015887693281383
-0.11265780520411611,-0.2807768419725812,-0.06430282762000489,-0.09902290514694058,0.0702129151752536,0.06203214445813302,0.0581245209955091,0.2136717304373665
-0.08325633462327742,-0.2785580439205251,-0.019755387997422838,-0.032387969843897205,0.1372020941030459,0.11411155359151168,0.11818024750184322,0.3343970217274557
-0.05383093373225807,-0.26737968069989687,0.010990541413879631,0.0038218858254642427,0.12470414502942959,0.1320912872174776,0.13604353710797087,0.30550654309044
-0.05707561241232826,-0.2269732940877496,0.005229819639082589,-0.001301015156506137,0.10717106298942898,0.11274731613128897,0.119109918214603,0.2520471993509066
-0.08591278670556989,-0.23511871311984883,-0.049130740230574885,-0.09044418691271881,0.08123755074177108,0.06844071716330484,0.07038835308724267,0.21982630917531792
-0.10755744849246462,-0.23150538379644447,-0.05312368198584167,-0.09277807474458959,0.07203407185568339,0.046162374721872686,0.0480716990523476,0.2134267875823144
-0.04046212793487755,-0.20439311829462573,0.03164836735825169,0.03845275698811781,0.1119807101340149,0.12502363680486248,0.1293578403007562,0.1992850443668251
-0.061464010892203255,-0.22869712101865614,0.009929421610114508,0.0016442671033348247,0.08373220423876257,0.09243738556310047,0.09830866229825172,0.1963169885934565
