-0.04771815600348691,-0.04984721012928763,-0.12448965497460912,-0.15237335880140454,-0.09017610001434356,-0.1281956879148148,-0.13910932352925362,-0.12476092326055853
-0.055960308399615764,-0.06898930257137227,-0.13159278318530984,-0.16013194156319746,-0.09839255873218088,-0.15009181857477266,-0.16602366776978048,-0.11539157019574822
-0.07307958122331636,-0.10000997248489718,-0.14431252519183133,-0.15297864146858478,-0.10387121866573105,-0.15287581432390157,-0.17237978055534323,-0.10263422046809782
-0.06422845407182053,-0.10327768271865492,-0.11559089811941058,-0.15111938605176897,-0.09668632981814435,-0.1416870775890697,-0.17321115947218882,-0.0988110173962656
-0.0916099244821862,-0.11831393060984075,-0.10837442484488422,-0.15138702746033747,-0.09428262419986208,-0.1449876795353149,-0.1613495265907698,-0.11168383425554593
-0.10721432997407804,-0.12491216616454554,-0.1427689824196937,-0.17824895572695795,-0.0889863936375086,-0.1480861849369162,-0.1649115991396731,-0.10754373349187712
-0.11287359068566968,-0.15017297922441905,-0.14363214686692963,-0.17698749506551378,-0.09997588467743095,-0.16138910201232862,-0.17691865922497438,-0.10477205365235373
-0.10918964302650336,-0.14365813947292352,-0.1304371572788378,-0.18445053103863207,-0.11130524501013166,-0.16089470142965176,-0.1729271356115914,-0.13046515058915542
-0.12671419503018824,-0.13630931903896126,-0.15188879766407853,-0.18952469671559433,-0.10425993931698598,-0.1372897981765799,-0.17234710482396393,-0.11547567106603819
-0.131776559599742,-0.1448427760285631,-0.15014591115131837,-0.19002856002742646,-0.10336308075649152,-0.13888552673950186,-0.17834123738343763,-0.11897196923294343
-0.1423476014497709,-0.1622120925582832,-0.16374169606842934,-0.19226754197505172,-0.10618927967863565,-0.13674686951874288,-0.17211250541262055,-0.1050888132920877
-0.1511496108885921,-0.1602196067150824,-0.1641358911690004,-0.21650028993512624,-0.10243950575073218,-0.15727843959932242,-0.17684079728031554,-0.12851623913831967
-0.15116072708247322,-0.16523488440121115,-0.15491745008265848,-0.2001512073016863,-0.11239303446676378,-0.16424071565450452,-0.17738861263271302,-0.11241913608470558
-0.1425183264092059,-0.16972005160204015,-0.1848983927085603,-0.20898866379373518,-0.09476444663258679,-0.14442947190668398,-0.17175525460361707,-0.11621173927834995
-0.1529900125459866,-0.16720441911591116,-0.17520119102797863,-0.2015196521283623,-0.10702885934909216,-0.1579210328743855,-0.18130893506209866,-0.12340478963422154
-0.16959274357544463,-0.18192337602910397,-0.184164408248429,-0.2230920400400887,-0.10992536993236923,-0.15844753214410587,-0.18219711181531914,-0.1247320383977711
-0.18343799296451502,-0.1963106179765478,-0.21006713486003906,-0.22425146188930126,-0.10816812220773686,-0.15724792624538547,-0.18527940373720708,-0.1450851817148141
-0.15677086966055767,-0.17379811089961006,-0.16689451478583314,-0.19616883093466714,-0.10717979289703475,-0.15157137612606555,-0.17282890667101947,-0.1303268829238393
-0.14915997932316008,-0.15488131808847072,-0.17071112215039697,-0.2039958400154638,-0.10882089396244986,-0.14521983065780536,-0.16032755486039482,-0.11757469006793513
-0.1616017597353731,-0.1626020889191347,-0.17076581497948914,-0.2016717521485929,-0.10930161808683153,-0.15329266292115684,-0.1762475433801598,-0.12368584943267044
-0.17116860565859035,-0.18706597463237337,-0.17295832946429196,-0.21647609045748342,-0.11059827799917021,-0.15306914047717726,-0.17061587438160272,-0.12446664014473603
-0.18770233002304867,-0.20040036473230227,-0.18343906721660777,-0.21582234926111796,-0.10229583518953823,-0.14484780921312956,-0.1680605590525129,-0.12848243864869557
-0.1720775429996749,-0.18864897658983343,-0.17631076146529562,-0.23582552748312208,-0.09704774755807956,-0.1304213358089208,-0.15464675997592564,-0.10585858263071643
-0.17243696096978622,-0.1549234369231474,-0.2184876535062961,-0.24050610734996633,-0.07895893239769386,-0.1226517560493711,-0.12886209968995369,-0.1075575473389993
-0.18233194648933446,-0.14136726209005473,-0.23234550453098543,-0.23414530568856368,-0.07390909644406395,-0.11818251094135081,-0.10263804203058383,-0.14234224046225671
-0.18867283515047661,-0.09550540370820491,-0.26182829697542104,-0.2524918815496088,-0.07926051057779587,-0.11708920560347247,-0.08774893052182685,-0.18403686662092011
-0.18069983392115657,-0.09119648225569435,-0.27579481508835535,-0.2562422338079545,-0.08353881526264093,-0.11721763930723797,-0.11149352426824752,-0.20347063890305586
-0.1700683469467949,-0.10458770928393069,-0.2510295819576426,-0.24240659891604688,-0.07958158914149151,-0.12234069524025956,-0.11087631798289697,-0.20294796956001454
-0.1858039822608122,-0.09812435418032874,-0.25590989414381793,-0.22579975420783513,-0.08892621669643198,-0.13499790663537403,-0.13235762510843066,-0.1763816947822332
-0.20906049550584224,-0.14437975624195554,-0.24884146503964957,-0.2417698272870138,-0.0895739036355803,-0.12564727546171323,-0.1361501909295138,-0.18059048735345165
-0.2107842337940926,-0.1795749013578453,-0.2667863700937219,-0.24887744633976644,-0.10776497881082196,-0.15031706747117046,-0.13156192855808596,-0.18492157830395575
-0.23641279454658815,-0.19687410024340007,-0.2529291961774629,-0.25207503248340885,-0.10417637802639731,-0.14819093324853266,-0.13098813997317718,-0.19565372390170177
-0.23974025923800393,-0.19149997739274177,-0.24953229775446503,-0.2320787766614064,-0.09786011039147482,-0.1324878388160874,-0.12353471100379661,-0.182257963468046
-0.23431641813523454,-0.19549793830368525,-0.2696442804700785,-0.23148916879584466,-0.0989414746686932,-0.12299076910296745,-0.12355548539026465,-0.17609650003120864
-0.240179100985343,-0.19732917228349206,-0.2595119650382998,-0.24048347851354196,-0.10930430090087573,-0.1338117976435007,-0.111590129248458,-0.1866137704086257
-0.2592827306644777,-0.2002346240192155,-0.2737957094479257,-0.24478652154967467,-0.10391212057720405,-0.13393200668401548,-0.11581812546188719,-0.1855633187940278
-0.2526832020557432,-0.22959322747161587,-0.2723972302248915,-0.2340780949353086,-0.10312938395520528,-0.12634532171828902,-0.11628044713189718,-0.19563281519302075
-0.25345215083878847,-0.20661207358743666,-0.266696440112896,-0.2501907661324026,-0.09959712694920882,-0.11929669789184401,-0.11353530623177555,-0.17541943528381856
-0.2488372405952291,-0.22679089421671594,-0.2625157585396583,-0.23987530970968457,-0.10333489291323844,-0.11099773659809135,-0.10873290839094338,-0.1799921290117953
-0.2512980266867313,-0.22207810921567236,-0.2598738110025559,-0.24895312559427266,-0.0963207699797688,-0.11933000010230091,-0.09783896033657054,-0.1821360850774764
-0.25676638495834825,-0.23135191644330041,-0.2753169428793421,-0.2525491230190083,-0.10072982253637922,-0.10161506017209193,-0.10081270845041064,-0.17914046944977668
-0.2688302030951072,-0.23807963342881397,-0.26615151277600035,-0.25005520666576136,-0.09449593194059573,-0.1166985378652049,-0.11033405226358708,-0.18571752643217226
-0.24560109602849228,-0.22038987346918285,-0.2772586069175836,-0.2507708040406069,-0.08506153765026207,-0.10595292392463845,-0.10823083748322646,-0.18089788895460882
-0.2538417499910785,-0.21285260794182645,-0.26580356561057605,-0.25323051943459424,-0.09937677615617038,-0.10618708430602082,-0.10372360834023969,-0.1726618286417213
-0.2591155878257921,-0.22436206164448186,-0.26860262176164007,-0.26140195938190885,-0.0925953406631487,-0.11278203586835986,-0.08695574168695566,-0.16832664454962334
-0.26429355415886885,-0.22171589319081209,-0.2550986129333998,-0.25687949589365383,-0.09878497640015751,-0.11035556934605127,-0.09386939177232599,-0.1815637335106948
-0.2632216038440543,-0.2323019711615915,-0.28475287047788733,-0.27172330605913625,-0.09064207213042708,-0.11284820867185015,-0.0939480971175369,-0.19178633392559427
-0.2644947014172602,-0.2260362716187471,-0.2839569698578825,-0.25635309334106365,-0.09804813162480869,-0.10392558345688852,-0.09253354428295606,-0.16712366319877958
-0.2636418808989812,-0.2266017852510476,-0.2771272229620826,-0.2562754031109174,-0.08762479441028669,-0.10315180134088142,-0.09564073450420987,-0.17064518569289042
-0.2552936811666383,-0.23296216156627228,-0.2845684728333743,-0.25761997978550016,-0.09698919913091743,-0.1047247175991955,-0.09339850402871347,-0.16657247228873803
-0.26624817943517815,-0.23692568349690138,-0.3099966414410357,-0.26106247194457954,-0.09120454676118048,-0.10949364136814795,-0.09098121192827667,-0.17198799238755705
-0.26314861279025337,-0.24063093575804043,-0.290520586770479,-0.25177243655244497,-0.09845682840905837,-0.11148768595113584,-0.08915732769238008,-0.19844854763222708
-0.26212943271122646,-0.2269559198376825,-0.28793105634627003,-0.2638021558311201,-0.08132457642652043,-0.10600783863848438,-0.08470475770791004,-0.18139793047689876
-0.27141315980230596,-0.22935463976807155,-0.28722049530767624,-0.25958522305171056,-0.08394841262983567,-0.09371841665107125,-0.08884631274479919,-0.17573875916676876
-0.25809584812731695,-0.232974324627747,-0.29586489748870476,-0.25354254392433256,-0.09355017921981003,-0.10391850596381814,-0.07361719398470114,-0.18840695659723408
-0.2682529582139227,-0.2576094099520394,-0.2946277923243022,-0.25333318934359983,-0.08149000460513607,-0.10051207062084858,-0.08894789214168969,-0.16507642778809112
-0.28215771661244954,-0.25819625488452674,-0.30249702876866813,-0.2654063759586078,-0.10256113143674908,-0.11215858002929098,-0.09567434764949677,-0.1969828171108492
-0.27269725042766463,-0.23120125137643643,-0.27257722557828007,-0.25983784987501585,-0.07227233955228923,-0.09923848782821793,-0.07532248575649317,-0.19043634402320395
-0.2687456273601842,-0.22434872996536165,-0.2724307628822558,-0.24647922365281646,-0.09217210703816457,-0.10129166575677653,-0.07550841588760987,-0.1705152232596009
-0.2870633468186138,-0.2363065796129281,-0.2843083582774058,-0.2631503878312452,-0.0905128897494331,-0.10772973856278081,-0.08869935166827207,-0.1941276350575461
-0.28417342527214995,-0.24071568906532384,-0.30048295200641734,-0.27558123939772994,-0.08734812604701703,-0.10299846031996283,-0.09191774772782207,-0.18841588010858829
-0.3022993338911516,-0.2638894056526922,-0.3082422036051147,-0.2760601382554047,-0.10021054137220613,-0.11900961368050464,-0.09437576288857909,-0.19847322920169136
-0.3053215502672661,-0.24223362150310798,-0.30733213120597846,-0.27310604756091,-0.09348189428205503,-0.11192786120223663,-0.09782958685421116,-0.18047384803833713
-0.3025374533759125,-0.23076171666059236,-0.30002884023535265,-0.280568958890897,-0.08383453282209562,-0.11422324274158897,-0.09554909014677004,-0.17782221178686694
-0.3190897419883076,-0.2447684705653525,-0.3020491663858598,-0.2845370752322067,-0.08981273916816435,-0.11035011739467693,-0.09264157236239778,-0.1926993059384224
-0.317934932916258,-0.25979300170338887,-0.33522155019677247,-0.2996355315517357,-0.09792891398909506,-0.11283524684686178,-0.09447582589289127,-0.1871441185276833
-0.3309856575927003,-0.2758789232745892,-0.31750275039881326,-0.2976631751516669,-0.09997726812572401,-0.12255536889895981,-0.09979441363603368,-0.1943567707385625
-0.3313166616762487,-0.28377239034377993,-0.31634296312190197,-0.28737022394565054,-0.10275762112321929,-0.1166333939697826,-0.09330547081107296,-0.18879958550568865
-0.3339863273638108,-0.2718388709596304,-0.3076084838780487,-0.29828525160165564,-0.09719629145828208,-0.11388576613273882,-0.10385483857339628,-0.18756327875641168
-0.3431346847437034,-0.2707307045884685,-0.3288832103373703,-0.3037991280992019,-0.09800393501413687,-0.10972319264125294,-0.09559283325175932,-0.18652982009278396
-0.33852119768945554,-0.2779918072431022,-0.32005867024225954,-0.31048454121405644,-0.10492160799545368,-0.12264013996899292,-0.1078211580555155,-0.19308439655419624
-0.3473115143329436,-0.2768812800218469,-0.333723154975219,-0.3006916058115501,-0.10268672057702137,-0.11951334931057593,-0.11288279351320431,-0.2142528050718089
-0.3384968722889577,-0.2769378982890299,-0.3293233281181143,-0.29650073581042447,-0.10199446266648397,-0.12543669082833606,-0.09158018663242447,-0.20596634474764375
-0.34435009884190837,-0.27558713156602854,-0.32940043690031057,-0.30345979202601403,-0.09494716424061454,-0.11192938300025539,-0.08238214480892367,-0.1961673684399807
-0.35401688187761216,-0.27511558420999543,-0.32977441104632094,-0.2971808564304338,-0.10621727410073388,-0.12920076905492717,-0.10776463771016377,-0.1997257205926485
-0.3497607584251687,-0.28477213000979107,-0.334436647330634,-0.3103146085000402,-0.10044259523185473,-0.13057341541308087,-0.12437911791806372,-0.18859570403276402
-0.35499620195360954,-0.310093485616978,-0.31859293701571206,-0.31291818263096194,-0.11717569894679594,-0.13575023081007145,-0.12001087520348573,-0.19872360329683267
-0.3501352022110718,-0.28127895127775765,-0.3076737673944198,-0.29483007099925645,-0.11601969266634524,-0.13679091649954853,-0.12103123285825476,-0.19435416720163382
-0.3510843519726728,-0.3013162929033122,-0.3313544507041796,-0.29611604673409125,-0.10416764881064668,-0.1316607320640291,-0.12911998760170734,-0.19668851738305895
-0.3649105587651285,-0.27958412344679706,-0.32561373055446424,-0.30669317979189664,-0.11629573685915215,-0.1334552225309603,-0.11645477459906982,-0.200408873618509
-0.35988767022359275,-0.31343580979660485,-0.35275559995014155,-0.3138717961465825,-0.11133232795615759,-0.13490358923740206,-0.12220003620582602,-0.20309652152858249
-0.36863366677893705,-0.29973476571940266,-0.3399313219048409,-0.3128473751214878,-0.11419798172079905,-0.139458426108158,-0.12755571550072792,-0.20678769175321546
-0.3515161223670239,-0.28621582779208826,-0.3463536953434599,-0.3097663998883543,-0.11360343386327376,-0.12290554921443117,-0.11563586952640376,-0.19909072706562086
-0.36483735107877785,-0.2968248220406292,-0.35185192003763305,-0.32318602020938003,-0.11400687868687527,-0.13533183014214245,-0.1253307161510658,-0.19803203959805252
-0.3683421616508327,-0.3096843471027997,-0.35360953671486406,-0.3307584082670302,-0.11271408540255058,-0.14645342803851083,-0.11803607369717693,-0.184357302501969
-0.3642366883087634,-0.3053732653308059,-0.3503063802993006,-0.3318554514856376,-0.11757691352674322,-0.13668389766856648,-0.12189066497871591,-0.19269266601644677
-0.3738003243010322,-0.31596361054282124,-0.3524121509548242,-0.34709098455499526,-0.11325976200011323,-0.13673155346540208,-0.13255311828145322,-0.22075429870194405
-0.3682222096172336,-0.3038566240217102,-0.35687171260429446,-0.32257614966189185,-0.118958949502366,-0.14090819555450787,-0.1226064258703164,-0.1899052861437119
-0.375538852518627,-0.32272894078149666,-0.36946777067172004,-0.33698572951680633,-0.1125933514536849,-0.1428370951211785,-0.13479151645393697,-0.20618483779457392
-0.3833878113244065,-0.3256248116883428,-0.3528026200017712,-0.35021367865826314,-0.11441411729214652,-0.14387635098184293,-0.1246751353741104,-0.2045069482948395
-0.3867948983556883,-0.33770328801476845,-0.3596353465021543,-0.35109231524789536,-0.10734563315867224,-0.14877806776057134,-0.11754845288957638,-0.20364477654960522
-0.39864743485607834,-0.3341408462436918,-0.3780830870398002,-0.35772976087976904,-0.12106970682045673,-0.15698682420248533,-0.13822951999626565,-0.21328284497056807
-0.3877643761099521,-0.32656395024189316,-0.3539961059076938,-0.34100500315199633,-0.12045818316637115,-0.1518325876676719,-0.12462067243814665,-0.20888558684636369
-0.38722260801454284,-0.343003026984117,-0.35910085895781246,-0.3475784512277887,-0.11841640927235157,-0.1374261927742736,-0.12363983678554909,-0.21364107341233896
-0.4091350972043076,-0.35417700087444637,-0.3691506949842071,-0.3559995602284395,-0.11893301476504532,-0.14750547345816295,-0.12250202704971276,-0.211386016914817
-0.41124875655749504,-0.37571048334308293,-0.3887050882638877,-0.3518069570858208,-0.12278969017720766,-0.157740343572248,-0.13216632688210483,-0.21305313974383994
-0.4014371106264303,-0.36281234536340984,-0.3819708149340285,-0.36450591904027196,-0.1257736587178795,-0.1504148436165184,-0.11685603586286107,-0.21959529071122863
-0.40330439694263426,-0.3610061353053758,-0.35883962863117236,-0.3553635828262516,-0.11567787300057009,-0.13713144072020703,-0.12837896518243747,-0.20870456139272028
-0.4049642346160222,-0.3608477953576037,-0.3604664776874194,-0.3722018486099261,-0.11489775624393081,-0.14102152482975172,-0.12017350720350417,-0.20982012829847654
-0.418672983544913,-0.36366345622651125,-0.38972103607419034,-0.37001295370854936,-0.11256270780388201,-0.14273155325777925,-0.12260429116734696,-0.21795610836862808
-0.4223062187516738,-0.37331353211664525,-0.3793923979099346,-0.37180261867929365,-0.11240887319176256,-0.14744589451672985,-0.13952780224351788,-0.21631726819886074
-0.4058345850675511,-0.356838067126169,-0.3819201555319925,-0.3723130811012403,-0.12324610587407042,-0.14608110901020843,-0.13392461056830315,-0.21063295622154632
-0.41074612075635436,-0.36820466877323826,-0.3794201292101521,-0.36642720055927075,-0.11184026596993574,-0.14663018311893702,-0.121917065330349,-0.2241425302280054
-0.4124361731352105,-0.3594275798714355,-0.3846323869174969,-0.3768558128732944,-0.11239541873081592,-0.14801118556938395,-0.12662202436744915,-0.21359550610064848
-0.4145080495303269,-0.3722964536173859,-0.3852608008870558,-0.37898126007717997,-0.11522547947422414,-0.14665840546165693,-0.1272812997788512,-0.2131784227262536
-0.4036885015017729,-0.36644161841612183,-0.378977413656091,-0.36961898786372005,-0.11328831801686642,-0.1504954308020995,-0.12538777970704432,-0.21722794478884216
-0.4238936136377936,-0.36189113082726365,-0.3662168049015244,-0.3743531437716688,-0.11982972457749962,-0.1318220658872683,-0.12602613295118134,-0.2128909465058181
-0.4274329802075536,-0.37513574879070916,-0.3761886259040351,-0.37991808319610054,-0.12369410920137923,-0.14373556232427445,-0.12926363145459602,-0.2143583544526134
-0.4295187496279953,-0.37936873172633323,-0.40116130618252244,-0.37483959787645266,-0.11983230387747336,-0.1518958155802947,-0.12067937508250598,-0.21133726693483376
-0.43196283607878544,-0.3961131602537278,-0.40899639491371637,-0.3873997615593857,-0.11249358574235631,-0.14610081441554626,-0.13578099381124642,-0.21709901677378315
-0.42311746925319377,-0.37419555210050964,-0.3887146203735745,-0.382382046393092,-0.10993882154633004,-0.13861132734878942,-0.11873329375873867,-0.21633652254072477
-0.4215533625172385,-0.37287617545866797,-0.3835386330763762,-0.3788157472844799,-0.11661076104310371,-0.1376130930722937,-0.12083100713323151,-0.20623532169636855
-0.42898786218502005,-0.3840817325033535,-0.3969275551586822,-0.3892578532965977,-0.11802321980609702,-0.14341045369988795,-0.13144674402858522,-0.20663967735604455
-0.43304978699783137,-0.39841026162961063,-0.40567998133890215,-0.393702088504707,-0.11841214973683914,-0.14328141235357178,-0.136126590664966,-0.2167933304556314
-0.43455975582274564,-0.38226250890998065,-0.3918274826427386,-0.38738508827949175,-0.11704178786491123,-0.13884000823869863,-0.12406640463712125,-0.21321863186942983
-0.43440272445738976,-0.40252179886570927,-0.41770079769772667,-0.3846831907588066,-0.10390877925491727,-0.1393638903549549,-0.12157785581986065,-0.20377806150687466
-0.43978811186465916,-0.3934003569862028,-0.38998899818152505,-0.39902333066506573,-0.1097825124473005,-0.13799301203084577,-0.11957009757518951,-0.19881417600809348
-0.44138269557775606,-0.4045429023575198,-0.38580626356313225,-0.4099607473278092,-0.12255437079308049,-0.14128392791485805,-0.1232840251252074,-0.20610103177877537
-0.4398927192954127,-0.41329335230012615,-0.39949913065858506,-0.39708118325339953,-0.11291652538847302,-0.14395867320120836,-0.12552555129515003,-0.2146070068830444
-0.43465562511967115,-0.40620457551661965,-0.3963088230620629,-0.3928115154676886,-0.1253178713272174,-0.13145642951881992,-0.13169190684182314,-0.21785028769169307
-0.4343851398937559,-0.38978070379975893,-0.3952835944137792,-0.3981475101903725,-0.11042875263951131,-0.13701256840131532,-0.12232348680989784,-0.20940818618313295
-0.43850208653781514,-0.4111739124273833,-0.4129296501307616,-0.4064098526481549,-0.11288787160348479,-0.13861852670954988,-0.11726516920193276,-0.20742268418108703
-0.44364331858315725,-0.41337367381141144,-0.42143293926442066,-0.4072367393242047,-0.11387278355452347,-0.1332705381318557,-0.133187322511037,-0.20773294320530825
-0.4431555426368857,-0.40743010112173345,-0.40341542790138346,-0.39505279077781214,-0.1070281918115326,-0.14272913036801452,-0.13401696556245063,-0.20531360457214604
-0.4459126853024064,-0.42280751402895667,-0.41709570593559914,-0.41269015879116805,-0.1185254598746637,-0.13564342886142433,-0.11909801127458332,-0.207895569151554
-0.4502094687143125,-0.40955846443390714,-0.4028144841481297,-0.410853989182657,-0.10564260177700174,-0.1391251288956144,-0.11514336555421673,-0.20965120565235623
-0.4488794886019194,-0.4341131109505818,-0.40838493835311834,-0.4179204055185196,-0.11086368965540758,-0.14316992099837866,-0.11708977819108995,-0.21162537651991298
-0.44651814652082145,-0.4371971938105058,-0.4191317323360858,-0.42123335319542843,-0.11680727735876402,-0.13758610696100707,-0.12591918758877982,-0.2090678387282061
-0.44119164502378666,-0.42498812349669,-0.4168962807497795,-0.4200687965001122,-0.11502632289317012,-0.14271870802417608,-0.12426690184060099,-0.20920264423432625
-0.4517602030626983,-0.4326420747960644,-0.4023554194263499,-0.426446763114435,-0.11775351329800737,-0.12969479277685597,-0.12470942250627426,-0.20840027234296832
-0.4455166585539792,-0.43784675995936106,-0.417436057111793,-0.4258447650944607,-0.11620912857235169,-0.1360290676777646,-0.12603458764883801,-0.20967807052318924
-0.4557123895830553,-0.4502041027841642,-0.43243976275022183,-0.4421068361256344,-0.12278541588777903,-0.1391899244372935,-0.12517429830402838,-0.22397594205442195
-0.4600729553184245,-0.4289071799081345,-0.42208027305117096,-0.43863324921823243,-0.11917822647189753,-0.1416903004014073,-0.12305985903029926,-0.21564145481048785
-0.45594124129438474,-0.43845760118296667,-0.43945203794482895,-0.4325489959067344,-0.11482581986072556,-0.1342806580633271,-0.10780425624127335,-0.21210653922530345
-0.4695832280211299,-0.4292175718188604,-0.4183442542670157,-0.4386978402926439,-0.11943610683355323,-0.13567194899475402,-0.1249885639120632,-0.21052458899249807
-0.4596553978174597,-0.45413030528260895,-0.4275614921194334,-0.43254482135758004,-0.1234601086853007,-0.13995595920826445,-0.12295298219747931,-0.21993469972042354
-0.46372051383916346,-0.4373156683018897,-0.4472044236141468,-0.4278352009653115,-0.11993287462762665,-0.13111492685052858,-0.1374121440222585,-0.21869690791856464
-0.46140120720090405,-0.41609726962022503,-0.43530766955125505,-0.4299194322749626,-0.12475761162297064,-0.14742391834329185,-0.12819923610542663,-0.22360493470494736
-0.466360295999711,-0.4384707602969014,-0.4202702335048776,-0.4325210042286165,-0.11368990368011171,-0.14179067385224858,-0.1345178740093741,-0.23769166596927385
-0.4598770915115847,-0.44706000124078943,-0.4292204122505207,-0.4397035074952903,-0.1281808410176215,-0.14319240340470327,-0.1365253209477638,-0.21464927651275242
-0.44430039127913973,-0.41235652135037354,-0.40346794028048816,-0.40093553920937947,-0.1323202244183424,-0.1520689585388832,-0.13691469805343048,-0.23393782037408717
-0.41139052769202544,-0.3520600693525598,-0.393259521973237,-0.3627689868337718,-0.12838223746964816,-0.14322455739570455,-0.1342892389421758,-0.22117415083036543
-0.4164495308301543,-0.3678403914724905,-0.3859074677609877,-0.3987493833115138,-0.13648551472254594,-0.14657666613153325,-0.12765504747683443,-0.22533959629499808
-0.4474171325313513,-0.3955376608966614,-0.4222493295490776,-0.4152662288575033,-0.11989018018926546,-0.1555439069597366,-0.1293382179347186,-0.22122840168076527
-0.45931282886524627,-0.42401899164997975,-0.421483736720201,-0.4399467041049245,-0.11575854357582865,-0.1554857061355904,-0.13413117084034948,-0.21686785410362575
-0.4792478900805167,-0.42031064515832917,-0.4348687916582145,-0.44823937281164766,-0.12240771107302013,-0.1551743428497926,-0.13630987115611207,-0.2180359091236187
-0.4647029138435258,-0.4188186796319225,-0.4577414922001808,-0.44876673815325435,-0.12551194671681257,-0.15705673083625218,-0.14997731876845483,-0.20670810844033516
-0.4773483131135226,-0.42207421819580593,-0.43596156301344385,-0.4629697692917581,-0.12345358093327875,-0.16390178715541875,-0.13800884722976534,-0.21626046940690585
-0.4697459360356014,-0.44229710200652717,-0.4496835208736849,-0.45902790478674266,-0.12762881823575767,-0.16383287343264313,-0.13912995679774903,-0.21837492954869783
-0.4793218998785946,-0.4247092197853087,-0.4525069128391222,-0.4713163667099263,-0.1305187676277078,-0.1554707595867628,-0.1584552523115305,-0.21657648315376227
-0.47944228067214273,-0.4140436200665688,-0.4416585811403589,-0.4523136397871175,-0.1264130409924981,-0.1612839896553428,-0.14282378080804473,-0.2144452972623367
-0.49011823177435954,-0.43986525107954483,-0.44674130856217104,-0.45399107270211303,-0.12684696037496837,-0.14715466312830142,-0.13427818292658783,-0.2281000611064377
-0.48316479615532165,-0.4421516285390435,-0.4642776924796281,-0.45749787297872035,-0.12595534414747497,-0.15918475359212572,-0.1501837185607295,-0.21872617670929684
-0.4908860234909099,-0.44747438276451473,-0.4519854150271833,-0.4694066463573832,-0.13818229831602832,-0.1587278337009277,-0.15648397471093783,-0.23282198806785506
-0.4895689613958355,-0.4329902216891929,-0.45577732198132936,-0.4612702250662152,-0.1387698065948185,-0.1608467088228308,-0.15814633709993506,-0.22507161808140505
-0.48905408098040304,-0.45388204858277337,-0.44391968015094885,-0.4692693713135631,-0.1342855934784183,-0.1779343490563305,-0.15040808775554712,-0.2278974847273081
-0.504074617552983,-0.4576226835534984,-0.4648954670396768,-0.4767373729324578,-0.13812085518070977,-0.17176461743153146,-0.1689899607327284,-0.23115507265795643
-0.4867533161777827,-0.4642457239864014,-0.45565271602405183,-0.48140731849125534,-0.1464485296456209,-0.17129369332033345,-0.14933793129343068,-0.24534221008045037
-0.5025455367630786,-0.46110054522149174,-0.449649003866803,-0.46371489426822504,-0.1385463035229503,-0.17758982875444176,-0.14980203127650388,-0.230233470534083
-0.4931901463065226,-0.45660205823259004,-0.45606503779050606,-0.4793568336760184,-0.13716425288995845,-0.17239286442041032,-0.15930813162849383,-0.24736405705512393
-0.49962818682529525,-0.4694198478477124,-0.4817086569960915,-0.4697226346259966,-0.14798166086571896,-0.17137421700166194,-0.1520395307709675,-0.23623231168284173
-0.5068368103519433,-0.47601041207548395,-0.4609854893771185,-0.4797666599130648,-0.14476144439703373,-0.17828080994557804,-0.17148517365767693,-0.25273060486800203
-0.504035070680896,-0.4766211439301411,-0.46240799713018144,-0.4777930597624824,-0.1441298553798618,-0.17814163712855993,-0.16676604613862173,-0.2558460320424508
-0.513603802105572,-0.46478337427640265,-0.4665050613020657,-0.4749032302786838,-0.13576664146107528,-0.17369703717340265,-0.15328368776870183,-0.24144148024676174
-0.517059081253136,-0.47944566249370696,-0.4634035807699098,-0.47269722709197864,-0.14221275817985599,-0.16348590871253413,-0.1620530778733706,-0.2356461920695378
-0.5138755851293425,-0.46445515336740356,-0.474612889318856,-0.48025065515882326,-0.14243363401448672,-0.19060856388707742,-0.1722164159773354,-0.2500708272882004
-0.5173344861889065,-0.4764113966806839,-0.47076764485770256,-0.4696876791451837,-0.15897351799755477,-0.17727606773994461,-0.1686530974155062,-0.26224230886823313
-0.5164808315754043,-0.4702255602305405,-0.465685820894797,-0.47068933543919367,-0.14225967634491926,-0.18090676508436174,-0.16548010529588256,-0.2410191291468317
-0.5172610606656431,-0.48060596349179074,-0.45848608090909443,-0.4698673536602162,-0.14737984861561906,-0.1887687521942157,-0.17911378543408038,-0.23853691339049823
-0.5320693558117336,-0.4937532992665863,-0.48513349863593924,-0.48648948166212824,-0.15573825243228098,-0.18535718318340402,-0.17603184852007284,-0.2565611830818041
-0.5252139471687733,-0.49852211161934734,-0.45739078281868,-0.47707953877853987,-0.15506409730471074,-0.18691739255237916,-0.1720118825689199,-0.2590035056548157
-0.5242881461133069,-0.48849718731658603,-0.4669935161300833,-0.4646239086116336,-0.15546484369706914,-0.1873780661521564,-0.16718332971159278,-0.26843701880975707
-0.5105441122295956,-0.48151852653454724,-0.4719249117122968,-0.4617226342753031,-0.15336621532467382,-0.18587287848787995,-0.17614886628372955,-0.2647971066227011
-0.524193860238342,-0.4879538274436261,-0.45677620658846546,-0.45822114448712437,-0.16077328271634928,-0.19074895306167716,-0.16409146435332303,-0.26521111976377226
-0.5267807895067611,-0.4968205946240536,-0.475926467709494,-0.4707515926876068,-0.1623145602980842,-0.19024111915264683,-0.17624568617033287,-0.2686824049855996
-0.5249734601183796,-0.4901665703245487,-0.44398477738107345,-0.4536955612578728,-0.15181722304149478,-0.18503934687778578,-0.16690752505853745,-0.25554293698141145
-0.52768823213428,-0.48824704270275776,-0.45613032164403133,-0.4606180304318522,-0.15557222175616503,-0.18408652390848107,-0.1727755605582833,-0.26569733321767225
-0.5234112963504312,-0.5125302703822706,-0.44822655936634925,-0.4535644057341423,-0.1618516323398456,-0.19337032379395944,-0.18025999647325697,-0.26689131280426637
-0.5299530543004984,-0.4946913926857526,-0.4611116693731855,-0.45743649421379023,-0.17077388275558364,-0.19871232667356767,-0.18716677818871172,-0.2633742157702004
-0.5214272535683102,-0.5047721029729896,-0.43326818603943185,-0.44090727118735656,-0.16920056486946777,-0.1949445707204968,-0.1829920486146392,-0.2372404195596248
-0.5206397394030357,-0.49879740880031515,-0.4317455205347972,-0.45513850070252443,-0.16214459026023836,-0.19684966251196612,-0.18014088735868156,-0.22421025282221232
-0.520100678337376,-0.49907132212169003,-0.45268755034749086,-0.4503759183082926,-0.172955337051981,-0.19150840067534067,-0.2114504205181101,-0.22051986816753494
-0.5205651082442557,-0.4908981045048618,-0.43806913987983437,-0.45095711847802417,-0.17312580494196841,-0.18942074478562337,-0.19223208745414638,-0.23242417136434793
-0.5184667602470874,-0.4915540187984804,-0.42965415184742584,-0.4466535694225778,-0.1620004998457538,-0.19504946220855868,-0.20108738808068694,-0.21429678693957513
-0.5228796058938436,-0.5099649733058664,-0.44391811740322895,-0.4651690015132834,-0.16962293308527293,-0.18292683684880487,-0.1967598198637181,-0.22112120343868805
-0.5159963558492784,-0.4950992334288073,-0.4489803263678152,-0.45742914118922656,-0.1649288379333835,-0.1875244607591503,-0.18556708117444834,-0.2134931392140849
-0.5186185284753838,-0.5082581762953882,-0.4202813366373792,-0.45361890386408565,-0.16369050312953642,-0.19612442266428548,-0.19127284744748407,-0.21570103017114664
-0.5149370904004182,-0.49018151880101124,-0.42430378623883924,-0.4581996914610268,-0.16893102074598507,-0.20246902353904903,-0.19267287344826148,-0.2096303485554342
-0.5213559934764637,-0.4947559562436951,-0.4292828884187716,-0.4692169045292887,-0.1679117086738053,-0.1935386812625998,-0.1916607698465605,-0.19191592270434907
-0.5121968887192841,-0.4912090224501039,-0.4433985218819909,-0.47180830714619015,-0.16686216152869748,-0.21223790518387284,-0.20982895561103307,-0.18016730937145428
-0.5128583380494478,-0.4804262717411967,-0.42609313378824876,-0.46994679081928203,-0.1719117951441265,-0.2139703191534389,-0.231143084100382,-0.19292456134462443
-0.5090656895724232,-0.49299722746885927,-0.4095494412031051,-0.456812450212358,-0.17840266461831955,-0.20804282389527468,-0.20712550055666906,-0.1817371003226946
-0.5142899349329039,-0.4988148274608183,-0.42204362614664825,-0.4720447826732932,-0.1871795323874707,-0.20264411212799602,-0.21048182188431538,-0.17647223193369535
-0.5105896333608165,-0.48668542038467294,-0.4295134953572801,-0.47179725760221375,-0.16667525549814496,-0.20553483579911266,-0.22744590731910735,-0.19171643332273872
-0.5140116763603022,-0.4961441339167288,-0.4467383443278959,-0.4818699885476542,-0.17815697882658804,-0.21045304054118352,-0.22840147699021143,-0.1948790389318547
-0.5158710959872151,-0.4935593350313184,-0.4381319004876552,-0.47464568355914194,-0.1805688138963481,-0.21827119804836317,-0.2238742164016721,-0.19786755844051146
-0.5182101437461805,-0.4947118133455165,-0.44696154221717227,-0.4777544137259257,-0.16877644672847195,-0.20961129325322445,-0.2248824209261886,-0.19466763836390252
-0.5261140550759746,-0.47490583873278314,-0.4410897570307745,-0.4816887764249762,-0.1731210060907522,-0.21179010830770648,-0.21556994383864128,-0.18803731321210518
-0.5235585990702655,-0.4737912051782323,-0.4597750084212202,-0.48567554673498686,-0.1733566580383238,-0.21944143138757266,-0.21696339457063776,-0.1913152579978424
-0.5357888435252417,-0.4832124839422073,-0.46875837998936076,-0.48725058240844593,-0.1839523891417933,-0.21679828110146696,-0.21920218610173792,-0.20850272143785695
-0.5289468522649792,-0.4785840025799299,-0.45572745434442297,-0.49671844341480437,-0.17467797906821445,-0.2184368850145282,-0.2179883257353662,-0.21683338610760627
-0.5392893948299756,-0.48127480174211495,-0.46314823379450254,-0.4966649756924329,-0.18134169675940442,-0.22029389860300647,-0.22077559255428703,-0.22529693192954345
-0.5344932549834418,-0.4743912935823428,-0.4737132325087403,-0.48745032096783864,-0.16668259083490927,-0.22881571338750256,-0.20796985114213937,-0.2315737900505053
-0.5278799553902589,-0.4785931348576993,-0.4726348557693673,-0.49634161427525036,-0.17907704120836215,-0.22342065677654188,-0.21767244549841602,-0.236084698933619
-0.5401330387781088,-0.4724867133717701,-0.47941851444181544,-0.48878089935049396,-0.18240148784422358,-0.23230533000909617,-0.21948073972723547,-0.2432983802567039
-0.5512977565913729,-0.45991283441744363,-0.5058581055671427,-0.49583851799110373,-0.18153366160828543,-0.23964664874043595,-0.22967912042704905,-0.26478492096521133
-0.5428763041311196,-0.46919519401065346,-0.5048225342512108,-0.5044286066736378,-0.1827113172659505,-0.22443013931794145,-0.21658582271074583,-0.25553758377056557
-0.5482399926732636,-0.4687714184994068,-0.4963766339686355,-0.49299795099844673,-0.17380357563204316,-0.22724841000810367,-0.20889212493413245,-0.2524421718505101
-0.5522399944616637,-0.4750573157078695,-0.4948216917658526,-0.5100525094839725,-0.184387568160864,-0.2321131501210428,-0.22220631785550227,-0.261813675030072
-0.5690694003153745,-0.47845021545141525,-0.48992613022966236,-0.5145176698880821,-0.18761178181971055,-0.23768151467255386,-0.22163798597197024,-0.2672687607842194
-0.5619349873501571,-0.4870853565968972,-0.48928164475896935,-0.5133427086251849,-0.18699416963616886,-0.2376264076529639,-0.23096129405315005,-0.28564187186116435
-0.5624741371214181,-0.48493695669226305,-0.5074492577132895,-0.5032770908223663,-0.17908473965399613,-0.2338547935532431,-0.22580635715128,-0.2877459949530659
-0.559890831455263,-0.4924528556046051,-0.5039248626647252,-0.5285558522513746,-0.19306190349560415,-0.23386563105065467,-0.22427834789916887,-0.2724029203409304
-0.5579566760611209,-0.49190124112302613,-0.5090620412165983,-0.5309843767253274,-0.18771591133769377,-0.23524732192784745,-0.23533261790804477,-0.27218918702984135
-0.5697552139128327,-0.5049442913188805,-0.5250636657731382,-0.5264598473638025,-0.1907436418092869,-0.2432342951709672,-0.23202845413858975,-0.2908226095134006
-0.5674419653382277,-0.5029857183322277,-0.5031547259210033,-0.5215019682857753,-0.19851293382720633,-0.23635558049353883,-0.22806929026132444,-0.28549824553578246
-0.5614028297588047,-0.49566075478931443,-0.5128583312571555,-0.5214771454246523,-0.20097481646139911,-0.2329116918778459,-0.23017704693689953,-0.2774824098258071
-0.5686515416315963,-0.505390396726673,-0.5102428630438149,-0.5302749310714633,-0.19605993571525615,-0.23591415331625976,-0.22477686019873108,-0.28803148452814387
-0.562298332399566,-0.5013157578688531,-0.5087171294269699,-0.5321339917026103,-0.19293271519177763,-0.24282435049205842,-0.22605596916937196,-0.3021105779630688
-0.5797140311247814,-0.5127576965916976,-0.5319480798906926,-0.5431335406351105,-0.1996982702676527,-0.2448711718830317,-0.2536862921843933,-0.3084834263082774
-0.5693832495886466,-0.4979101428025164,-0.5159762044228206,-0.5293518247244281,-0.1983123426095957,-0.23866346159496216,-0.239684226447886,-0.29000116526012026
-0.5713336537852003,-0.5063793419747298,-0.5146406208645739,-0.5325156756303477,-0.20038139398674298,-0.2381228774511315,-0.2332587634120272,-0.3045745491526138
-0.5733327012387814,-0.5147422891604229,-0.5000986383953149,-0.5338875525529929,-0.19518511377154088,-0.24160551867072724,-0.24357896811990762,-0.29109552207806927
-0.5779502280588406,-0.5151550118393368,-0.5092034239265819,-0.5455561126070265,-0.2069467736730323,-0.2485848093401213,-0.2432934627278398,-0.3001523461382695
-0.5814124570705562,-0.5154291408267307,-0.5184958799207983,-0.5461565283078352,-0.2072648593381736,-0.25090966911104123,-0.23819886735542,-0.3066241824674462
-0.5886705645381501,-0.5039748555734596,-0.5290890179780396,-0.548149257968426,-0.193513810596089,-0.24061985851656767,-0.22610094893371444,-0.29503008794391244
-0.5861568785329798,-0.5195076059343254,-0.5299708614997518,-0.5581222122574097,-0.19452484770328668,-0.23502325452465964,-0.22635162252843963,-0.31451100632424583
-0.5854965416738019,-0.5187298235867757,-0.537201242662888,-0.5515863083777895,-0.20530402659381095,-0.23276580467802152,-0.2354129516337191,-0.314574947603275
-0.5879281212235641,-0.5152010231728412,-0.5494648442711617,-0.5660926076782867,-0.20989078218739393,-0.2431045552450864,-0.22866184282091898,-0.31692479016067737
-0.580647136267362,-0.5116302115853355,-0.5494919857165029,-0.5505119572100702,-0.20951916308644064,-0.23595390997035354,-0.2306177579000661,-0.3222556050447653
-0.5816895199669722,-0.5005907360703414,-0.533699580525469,-0.5781030652159399,-0.20336908849872423,-0.22942969912532837,-0.22931154435523918,-0.31337538563279765
-0.5918664923826221,-0.5312002951547394,-0.5388866202382301,-0.5739278764172145,-0.20105017176692902,-0.24406702272530564,-0.23448333014333567,-0.3209235098123994
-0.5859783664787106,-0.5242883823778092,-0.5413281458145666,-0.5829606193430664,-0.20586729756558558,-0.24662734807379,-0.2417352437623438,-0.3345610180741491
-0.5904724802967491,-0.5261936191681997,-0.536794979375781,-0.5683952659171068,-0.20670593194965714,-0.2457031266578366,-0.23614266926229396,-0.33142305501862984
-0.5891136805715952,-0.5238680278310177,-0.5370866217182525,-0.5672316981356943,-0.2046577845291431,-0.2477369418047713,-0.24203780018709364,-0.311398448157042
-0.6022465548396987,-0.5180663245993681,-0.5471000865727427,-0.5838064069996868,-0.21485917767490514,-0.2483756416213821,-0.24355610865447735,-0.3146078665809011
-0.5850038544893277,-0.5140614457789803,-0.5557307497961682,-0.5750691029229712,-0.2094465768150408,-0.24541842010485845,-0.23460727252564437,-0.3155660002234005
-0.5937031851227925,-0.5226004987057379,-0.5498563401322393,-0.5828198998502451,-0.2145701170584209,-0.24938941263759676,-0.2276606493440419,-0.3220283471195938
-0.5834267983559072,-0.510188463366768,-0.5440670624719646,-0.584904919013728,-0.2042792103156548,-0.2404562596695643,-0.24515085538449502,-0.3205385472553168
-0.5982879766295455,-0.519864447651309,-0.5548707897826305,-0.5866704916449238,-0.20490835093325951,-0.24265694032534535,-0.24961224372773708,-0.324833622283646
-0.5976212303429054,-0.5228585286778116,-0.5527783070246748,-0.5963868461651165,-0.21057445695519966,-0.24246709537252634,-0.24406809662993104,-0.3168293262147441
-0.5898143509822182,-0.5191286960116208,-0.5538832798975248,-0.5974814952408823,-0.20719099405322086,-0.2571943221953183,-0.24556231032958592,-0.32957718120251533
-0.5860121382871815,-0.5257564720049169,-0.5584062765579991,-0.5955365070827318,-0.2059250671102741,-0.25374634091269826,-0.24320815800799603,-0.31796163097227814
-0.5944963483187223,-0.5177244154729278,-0.5533741274796256,-0.6049020948691022,-0.20673820819225883,-0.24591629594359743,-0.24044683073040884,-0.30813414073999773
-0.5914062849228426,-0.5191191519637138,-0.5510415506526845,-0.6140738915207294,-0.20041606208971507,-0.25387063978024693,-0.24035735959311802,-0.30742943944960016
-0.5957264466415183,-0.5305953876288446,-0.557655079842778,-0.6175027707485864,-0.21173685917247806,-0.25240580505355664,-0.25205873404513257,-0.31638265363693785
-0.5957635523273357,-0.5173203553202735,-0.5437500223505812,-0.6007221994778418,-0.20805713205086762,-0.24484341771192303,-0.24828901698093095,-0.33580697573914003
-0.5866042662781837,-0.5164732667502614,-0.5623632931953387,-0.6072680087493597,-0.21671138624629543,-0.2535640619099264,-0.24270499538019613,-0.30710000878088317
-0.5964990304608314,-0.51849557031801,-0.5773808099666641,-0.6186366619137756,-0.20458389721136924,-0.25131086353100335,-0.24782156549804152,-0.3213069111002128
-0.5932392776829623,-0.5188989017978639,-0.5466916753496943,-0.6145048474111787,-0.21003254820549608,-0.23960530571091793,-0.23603255074348276,-0.31146159500409387
-0.59596575992199,-0.5336640552482792,-0.5478282571425958,-0.620322854413218,-0.21478532968014402,-0.268662782115414,-0.2533786138550328,-0.32325753578974037
-0.5894260591251516,-0.5146176252533669,-0.5692257565197694,-0.6251145388253734,-0.21814607602561534,-0.27701438599680744,-0.241551973347818,-0.33324687043298223
-0.5955159649402751,-0.5160453156326915,-0.5654927357578121,-0.6229231801257517,-0.21052957641271458,-0.26531040903434494,-0.24485842696529708,-0.31598705466133425
-0.5824589993387933,-0.525149573199067,-0.5745035518096404,-0.6409693633189596,-0.20948506236059816,-0.2722988698472236,-0.2624041404181266,-0.3263417377481006
-0.6037195450472863,-0.5180652053094171,-0.5833058263695952,-0.6413647831547236,-0.21636219964055048,-0.2672723549006409,-0.2613487533482539,-0.3204295024890854
-0.5965046199256243,-0.5307181714324556,-0.5734984251375622,-0.6534338493874841,-0.22092475837311992,-0.28353746121744094,-0.2688411582946735,-0.33174091504717795
-0.5955539833009988,-0.5174353849885741,-0.5574873829150498,-0.6376733946212553,-0.2107373738095776,-0.2792723874543489,-0.26453040674279477,-0.32911419339199005
-0.6010975456670666,-0.5253867552833875,-0.593277830493339,-0.6612133340942957,-0.21910008368275008,-0.29113591149542445,-0.2764318537126136,-0.3438335007466665
-0.6011069948756556,-0.5311774699845225,-0.563529366573454,-0.6567064812520597,-0.22241854066612612,-0.28302660809134395,-0.2765781603800266,-0.3272271520798042
-0.6066109333536295,-0.5396527133622633,-0.5677327715982801,-0.6595850222992864,-0.22491308182386216,-0.2949509698737191,-0.28244192332000856,-0.34027445964698927
-0.6050509854945981,-0.5345754714729573,-0.5982966376704255,-0.6554288638679819,-0.23207813387254428,-0.2833838928568398,-0.27940337937031995,-0.3460316764329948
-0.6044078104060727,-0.5258003500937759,-0.5756497278925242,-0.6688059588966574,-0.22855786802428513,-0.2991493918113339,-0.28618998760114855,-0.3404859143927723
-0.603195680938003,-0.5286954270356717,-0.5808943933473153,-0.6693446988280202,-0.22773811863046287,-0.30987714533650806,-0.281035155186834,-0.34225638709334044
-0.6068657069499241,-0.5409480739410621,-0.5882653519348365,-0.6677914684622893,-0.22548848185938314,-0.30749627894173603,-0.2865182621154672,-0.34948512397700526
-0.6106613852812702,-0.5436920976214494,-0.5990178675256216,-0.6842411069517086,-0.22286647118142783,-0.30669960717957895,-0.29025783493046886,-0.35286091142594206
-0.6031750605457176,-0.538035976476014,-0.6079979229270525,-0.6817545401785401,-0.22560510383043303,-0.30695352141462967,-0.29180176526802987,-0.35578048688729413
-0.6041788510501886,-0.5377765213174093,-0.6174485682601806,-0.6911174040263385,-0.23113961353900347,-0.3067528906554204,-0.2974402521897623,-0.35352092159273907
-0.602204312077531,-0.5458263519627488,-0.5958809782046914,-0.6956742952352938,-0.2258198820006881,-0.315656070666832,-0.30675319601775647,-0.3618930836224359
-0.6094375985950697,-0.545950039716116,-0.6050256735822268,-0.6946155109918869,-0.2342561035793546,-0.30998679121897543,-0.30990779526724116,-0.37521706187297366
-0.6025776696362635,-0.5354509852734821,-0.6106703196409189,-0.6954152097714552,-0.23490814900161353,-0.32301566613028326,-0.30536373976927245,-0.36956973218830075
-0.6122734855602144,-0.5569474413186569,-0.6004597823432357,-0.6904390119308979,-0.22944365143339607,-0.3166764999086775,-0.3123865568779596,-0.34353870399806347
-0.6117983264687137,-0.5248182603784657,-0.5816049397741918,-0.6853710447407556,-0.22639799536914593,-0.314668252075055,-0.30941005861293364,-0.3766056074665214
-0.5993643115322735,-0.5606148773845122,-0.594662738378897,-0.6703924142478175,-0.2293790186216561,-0.32108624596984686,-0.33089114679879633,-0.36361185676503266
-0.6004773443100287,-0.5629115409499349,-0.576577230121529,-0.678755460349285,-0.23650651369337308,-0.33027689229026014,-0.32898912785486517,-0.3823364952281325
-0.593112403818256,-0.5513515522243501,-0.5823487701422809,-0.6517752014753339,-0.24202902378851815,-0.33822093408826065,-0.33253635711704693,-0.372805226456167
-0.5968170227927975,-0.549793905535228,-0.5788992300802431,-0.6636950859833921,-0.23358849649799407,-0.328664045647695,-0.31553794733110496,-0.3570272162591901
-0.5980125211355883,-0.5724529832785908,-0.5868229513811853,-0.6759888736044957,-0.23901136010124047,-0.33271116685969004,-0.32884822990379503,-0.3562008277403
-0.6094088110956696,-0.596851137756015,-0.5929013113929194,-0.6788235509770081,-0.23581222378814384,-0.32826326416421364,-0.33838399946002146,-0.35792498253689914
-0.612892519606853,-0.6100029572880799,-0.5772079393123838,-0.6799683133564696,-0.24548761600265412,-0.3319300190902928,-0.3339076522254362,-0.3540470957295829
-0.609552507893542,-0.6065314403907074,-0.585026385021981,-0.6675594546187522,-0.24643136800897336,-0.3203173535599544,-0.32417493389889507,-0.3442005037272789
-0.6095201876557319,-0.610808173665233,-0.5743188988982213,-0.6861169877993523,-0.23577104856489642,-0.3263064830475254,-0.32907673448970887,-0.3258970044531053
-0.6100083579160218,-0.6198592351882196,-0.5463219627475128,-0.6810480533035673,-0.24473269199609726,-0.33395115321180435,-0.3445556678958224,-0.32356407710632945
-0.6031092464187953,-0.6361030783039866,-0.5527672110958859,-0.692341764433274,-0.24506836948028077,-0.33109561434852536,-0.3515480336813219,-0.31589295010516577
-0.6025494207057297,-0.6380028275672442,-0.5404161270033984,-0.6688178575526356,-0.241393400509364,-0.34428192953649284,-0.34800308152857784,-0.32358038531077743
-0.6039340667247453,-0.6385976463302516,-0.5426758542343977,-0.6741075720534865,-0.23164039253262858,-0.3298442497749864,-0.35449522678485235,-0.2988294392533228
-0.6005138148793987,-0.6296613768494942,-0.5397727186026786,-0.6780002902627185,-0.23586512765408654,-0.33456833120908175,-0.3459766291747988,-0.30115502571775066
-0.6076327137960779,-0.6534998880513347,-0.5409987463210929,-0.6858184981124015,-0.2360374743437595,-0.33005140800596405,-0.34392987784080864,-0.30442097816581315
-0.6050922710748629,-0.6559206121654564,-0.5569866682737685,-0.680899970930218,-0.23856050745244317,-0.35207377370520665,-0.36608902421416184,-0.307223082025498
-0.5991054629502434,-0.6279708566391327,-0.5262794675479981,-0.6899197363384485,-0.24373162230031592,-0.3392281295969821,-0.3557482455557845,-0.3067550147305384
-0.5962467114387231,-0.6272704767953052,-0.5433487066414967,-0.6762894347320928,-0.24281116437887995,-0.32312737172030687,-0.34517826087644815,-0.28226388843845357
-0.6067365486428176,-0.641469223364855,-0.5374508526405494,-0.6825136643956462,-0.23653602576776686,-0.3395991171778116,-0.34488660473622584,-0.3003310160813231
-0.5937345517786321,-0.6516738512009134,-0.5233537758237957,-0.6763841471927831,-0.2451591040701508,-0.3457973488959453,-0.36203272967946537,-0.3092082693396826
-0.6040852358064404,-0.6208967616366602,-0.5526975673708103,-0.6764835096030049,-0.24502096173533236,-0.34289265755184645,-0.37008325963631095,-0.3040850069380113
-0.605794378577003,-0.605726432139413,-0.5521782744666164,-0.671116143362801,-0.23509887489321615,-0.3352336985463499,-0.3513724728416208,-0.2879823357856691
-0.600198355136664,-0.6084245355519228,-0.5569207864545125,-0.6867857766606713,-0.2299522178811809,-0.3233215444158282,-0.34096871265612594,-0.29362304302952624
-0.601599479854444,-0.5996302418703505,-0.5689811324434333,-0.6864598462879989,-0.22450879632058265,-0.32719873354442597,-0.3340290720710403,-0.2937625953514714
-0.6208862614918937,-0.6021020372190121,-0.5866635876897371,-0.6991607711790855,-0.2298723384566516,-0.31946530454251826,-0.33829448485675456,-0.30437537001184223
-0.6377321989447603,-0.6403868330946787,-0.5903025935914787,-0.7098942768556359,-0.22743620988235827,-0.3182344978085939,-0.3174315122729753,-0.2971712546373493
-0.6338440112564752,-0.6546586105110604,-0.5836217191672002,-0.7166255444035936,-0.1984897366192806,-0.2819692223692286,-0.2858234664113207,-0.2668003369895469
-0.6351750061278804,-0.634564135796785,-0.6097951327549206,-0.7343052790667658,-0.20085508169149724,-0.28094017439749447,-0.288769756928965,-0.27480359582731295
-0.6464719221694767,-0.6101395024906756,-0.6408137768849345,-0.7469183371583491,-0.20136671295538372,-0.28329286171809853,-0.2695521271948291,-0.2906469959606298
-0.5569008614467787,-0.5140213141027251,-0.6085562905021757,-0.7083627800706657,-0.17941206682529226,-0.2588844956072271,-0.24552440820384433,-0.319139095717652
-0.30128232135594835,-0.33548642362998565,-0.5278646799624594,-0.5973623765384332,-0.14499369507013882,-0.22438930613699318,-0.1901230531561512,-0.303247036304398
-0.2879848710225176,-0.2958185240770736,-0.500589119729615,-0.5806878835925575,-0.12527952660070305,-0.2039931841098044,-0.16688881647803155,-0.28503573495966
-0.32945127863512536,-0.3081064956273867,-0.5036560152682666,-0.5755323238788557,-0.1185290066805816,-0.20018583110620866,-0.14826036373575124,-0.29448860357791534
-0.35874154427647115,-0.32503795263057383,-0.5293499464114205,-0.6011685875394844,-0.1233723399645287,-0.2096378039342702,-0.1597129711953325,-0.3215513822888234
-0.4230586249954428,-0.3665501601971992,-0.5532051049949831,-0.612191683889983,-0.12259490053648087,-0.2105282359267091,-0.16973281383626182,-0.33489579546087395
-0.4419021809151928,-0.39352063340960414,-0.5359439741879268,-0.6178129604822717,-0.12301994066147634,-0.20374728023646269,-0.16676342442303022,-0.3269831121828171
-0.43346996055727793,-0.39453045879378357,-0.5402222996042267,-0.5996662057665726,-0.14864878169299414,-0.23563289485567973,-0.210331930552806,-0.32734346027115657
-0.44086181270098784,-0.3988902293168391,-0.5220820649091479,-0.5949598395204567,-0.1630650453607345,-0.26422983908673026,-0.24740728347354285,-0.3546307662737678
-0.4728886199764546,-0.45161662819142345,-0.5126690519409266,-0.5915872775220581,-0.1861492209380582,-0.2737808230137312,-0.2516601513624302,-0.35269146503641224
-0.5236903060590282,-0.48082958352280514,-0.5345664865071628,-0.5981644228195039,-0.20608462935572222,-0.3009505470472967,-0.2769213097381861,-0.36554778841941815
-0.5277581551916835,-0.4783610638470644,-0.5276887033397041,-0.606883661946551,-0.19536333820816001,-0.29632538428962507,-0.2620000741747589,-0.37333807165555294
-0.5378704942229171,-0.5036850055143394,-0.5280401846842754,-0.6022894080065295,-0.19321009892772067,-0.2951566096781849,-0.2667133573900579,-0.38146921649506416
-0.5386013406128952,-0.4891475879869632,-0.5404181791205338,-0.6002351365778269,-0.19992241905333108,-0.29613869342512206,-0.27352112746956303,-0.37326372815196707
-0.5483413406229675,-0.5043476318438783,-0.538980095737923,-0.6094127897822399,-0.1989567887139919,-0.29464562921163767,-0.2663419267060777,-0.39733617037325214
-0.5528503040523306,-0.5042198764648282,-0.5360268806458901,-0.6137947772173746,-0.2049537607690028,-0.2992273399713547,-0.27461371069434476,-0.39708978549494095
-0.5493903609850702,-0.5037427664934374,-0.5361886215331082,-0.6039720310386496,-0.20463876577883464,-0.29333907686882,-0.2808682209949117,-0.38210058377592
-0.5426465520862938,-0.49649445313557217,-0.5419410418459161,-0.6160310570274258,-0.2080703603295558,-0.29279060169318555,-0.257742452895012,-0.37845977533712627
-0.5534605707620237,-0.5051196936887162,-0.5354817253364037,-0.6024240798871445,-0.20362644696721638,-0.28929069839881055,-0.27764128215070255,-0.3927862791706019
-0.5630005902066062,-0.510074036961876,-0.5450927411390725,-0.6220749938495767,-0.20995333950572626,-0.30735868930771826,-0.2876114478968974,-0.39788277815113365
-0.5581968955635648,-0.5282801839101188,-0.5670432904011963,-0.6182654968151527,-0.214310507374585,-0.29801382464805043,-0.28295340306216626,-0.3932324769559927
-0.5567868850570605,-0.5114425677004342,-0.5599929003331754,-0.6088495745917155,-0.21097966373941632,-0.29669156026020704,-0.27837793817676465,-0.39480315024533064
-0.5609059542750361,-0.520795164087387,-0.5498780306078034,-0.6165316172306713,-0.20166896372730198,-0.28925812307772725,-0.26159474050803166,-0.38686336562362234
-0.5728614704068534,-0.5309423141267022,-0.5474866996601869,-0.6370147331006295,-0.20543089430909064,-0.294228193663928,-0.27609488698896156,-0.38897246927422136
-0.5765570116158582,-0.5439664774837619,-0.5640545520857196,-0.634212902814616,-0.22113037170771768,-0.3062372089336361,-0.28564147778801974,-0.3978406552976009
-0.5744033083837328,-0.5327431029704076,-0.5552452605182948,-0.6273017554606362,-0.21932070038913548,-0.3033906868544013,-0.28846568707467435,-0.3979993926215783
-0.572967604672806,-0.5313942821232068,-0.5522687233570437,-0.6304962494048507,-0.213107400895815,-0.30881861623872703,-0.28731102370440886,-0.3995418453966611
-0.5685758721148588,-0.5365009010985913,-0.5279954384069329,-0.6247520070968556,-0.2268902566014884,-0.31144396344949765,-0.2779674672460961,-0.39546276877891906
-0.5687055743947046,-0.5426199501492069,-0.5497552478542882,-0.6214313092665387,-0.21478093213260188,-0.31225762354084996,-0.290495810363417,-0.40387530153210877
-0.5728545514642471,-0.5384894452964738,-0.5505821452181182,-0.6359720924532053,-0.2184518365293181,-0.30315411035684564,-0.2921532413087484,-0.4171949871509553
-0.5631230916429409,-0.5512201610966366,-0.5483843900934137,-0.6332963502847626,-0.2248005648928443,-0.3030279930914703,-0.29956313444342647,-0.41162003410374076
-0.5702349547753246,-0.5428990643432988,-0.5474700371955024,-0.6242005691217627,-0.22749920968889864,-0.3094581826163891,-0.2948257667491949,-0.3956236877021738
-0.570521826219894,-0.522674786722677,-0.5501203436162115,-0.6131328265057241,-0.22418911508567796,-0.3181288943431598,-0.3051222944953576,-0.401342623190944
-0.564336339888865,-0.5230688777879559,-0.5412401945914252,-0.62603038934512,-0.22505760446347559,-0.3086289414167857,-0.2879227849553865,-0.39939737342315595
-0.5721874817711244,-0.5294306131869603,-0.5425514417796888,-0.6377302394211832,-0.21913761548803437,-0.3100465968802031,-0.29316154954764606,-0.4002112224650434
-0.57150432846339,-0.5296881448496493,-0.5491969328388223,-0.6407675534520731,-0.22902995732887452,-0.30994165582429717,-0.31815756282011876,-0.4117627578481331
-0.5521473752137891,-0.5200353343345219,-0.5399376334873467,-0.6221048572969989,-0.22300023363212484,-0.3090731888317532,-0.2961178674313081,-0.39599732693571815
-0.5521459555400186,-0.504911309406716,-0.5491846879542371,-0.6240322701980419,-0.230243361516464,-0.31109515495327705,-0.28633208094961593,-0.4143769994948742
-0.5536028981321713,-0.5114885314748688,-0.5424492493352214,-0.6233601905249382,-0.22164151018437192,-0.3083914394058826,-0.3028906351739994,-0.4101510743392614
-0.5515019147106089,-0.5173542626600293,-0.5410247214307958,-0.614194209660408,-0.23586800874358563,-0.3189011659193636,-0.30051649580586115,-0.41596583292091543
-0.5641528961247313,-0.5237963279386094,-0.5379667501880229,-0.6167026157888478,-0.22964350101169642,-0.31059801735692366,-0.30955892582083216,-0.4144880506689191
-0.557980357145636,-0.5272139920527873,-0.5383751083161878,-0.6163098479307183,-0.2293193160780429,-0.3136901729576141,-0.3006441011554057,-0.4132656258221947
-0.550969013320767,-0.5159223270499019,-0.538873515916482,-0.6323823972319534,-0.22232116415798692,-0.30946491761312667,-0.2899306308378898,-0.40634889189343865
-0.5491703267906374,-0.5091072759119438,-0.5451104651550474,-0.6185842843498692,-0.22869951581456577,-0.31193969637918345,-0.29994604009098746,-0.41173312288875397
-0.5536575566265027,-0.521251331933009,-0.5408240120091667,-0.6315043908198984,-0.22655023453629392,-0.3177227763239622,-0.30562074414620316,-0.4137659076475711
-0.5552783662452722,-0.5326837982416617,-0.5506652980822123,-0.6286014898839901,-0.2359702906655936,-0.31382069542851027,-0.30965664081435457,-0.4268515312534379
-0.5537277327492606,-0.5175985549987003,-0.5409490879317466,-0.6144268988939583,-0.22977177433834906,-0.3120064098068302,-0.2954110680173401,-0.41412494936849276
-0.5458878772952078,-0.5040874830738847,-0.5511620731644519,-0.6221376642350142,-0.2338469467106656,-0.3082657332264246,-0.2993001234569637,-0.40286673539358064
-0.5452082577042562,-0.5086936259972277,-0.5436437783095132,-0.6177024860359176,-0.2338507626628863,-0.30931370706498656,-0.29993363825402747,-0.4037133895578385
-0.5498316177969667,-0.5176160831629172,-0.5361075875280319,-0.6310462726494066,-0.2283711210283774,-0.3119380098984251,-0.29756290874154423,-0.4136852627058333
-0.547120826835884,-0.5201729512345451,-0.5491069558738685,-0.6269468618692762,-0.2323936881971116,-0.32543035530728337,-0.3093479569888382,-0.4245825308164472
-0.5455392363335916,-0.5048304821026851,-0.5494835347156777,-0.6212389157279512,-0.22054699728156582,-0.3165397923126113,-0.29766096391529806,-0.402510945542844
-0.5418384014730031,-0.49174337774263055,-0.5394286746449827,-0.6299215000749724,-0.21800165477713565,-0.30606622017708696,-0.2974981610796025,-0.3940775712801004
-0.5404861570441454,-0.49676010820141414,-0.5550383440911069,-0.6259943098122706,-0.23219736521987752,-0.31275492802818594,-0.29140540350629174,-0.408229209115656
-0.5365907054678066,-0.5050232258772585,-0.5395115959897266,-0.6240859690970508,-0.23261226690550527,-0.31130404379752535,-0.3033011130164745,-0.40571160456083366
-0.5415313074334681,-0.5068645543694468,-0.5490159317846226,-0.6279479371555887,-0.22621873592973915,-0.3105726280555083,-0.28656631561292795,-0.4104554128870511
-0.5346325167589826,-0.5070672170854165,-0.5568842924284682,-0.6284066453817845,-0.22335408883075197,-0.32342696029632023,-0.2927427734897136,-0.3970847026828667
-0.5445843852010378,-0.501629038052283,-0.5300957802020849,-0.6252871576014671,-0.2247904786963261,-0.305784734699857,-0.30124260601135117,-0.3982557314651914
-0.5373077259559773,-0.4951693428999102,-0.5407723946664984,-0.638157249137728,-0.22410866808776697,-0.3131965689574719,-0.2988600842059443,-0.4082951993271867
-0.462404949461829,-0.44088606238049294,-0.496243024026754,-0.5854674977897131,-0.19899634302371555,-0.28912104590916266,-0.2729957872723596,-0.3757516275071385
0.04918263969239749,-0.022827332559400237,-0.27198879133562637,-0.3064629068188131,0.01809375745546584,-0.12716546372570522,-0.0726317616192887,-0.2642821634853386
0.1675694577114951,0.07851611025358253,-0.2613138061466623,-0.275816584653949,8.751922286433166E-4,-0.11708766729450444,-0.08525991029955919,-0.2646604918201533
0.09165791381194906,-0.0044688165705705106,-0.28624988217968617,-0.3295156378043443,-0.02932592284892519,-0.15174381847631943,-0.13130211672868422,-0.2170670604817061
0.0744727777663491,-0.011923779275552424,-0.2789251075875647,-0.34522922662067196,-0.05516774817228097,-0.1687425668871678,-0.14411391801476223,-0.2305016627403596
-0.026601675475092644,-0.09660333657836068,-0.3051895329957697,-0.3827552918485444,-0.06642956375327638,-0.17129080919740208,-0.1662984566636738,-0.25303243645735674
-0.17381976776865207,-0.2042828552859306,-0.3438394043586528,-0.4204736305449961,-0.10306244234485813,-0.2136459079252122,-0.21034561793898718,-0.31139252685649443
-0.24157129936107152,-0.2136156024458816,-0.3581259535835556,-0.43826872674609035,-0.11716584743056682,-0.22761696338228218,-0.2134301640102004,-0.3231042891299554
-0.2752339597161995,-0.22672889916579478,-0.379290467922082,-0.4479014305525015,-0.129884544370468,-0.22147873093985043,-0.20468029506439964,-0.32236886568145734
-0.3216329142815457,-0.24867453739196513,-0.38777871701413347,-0.4695701925754856,-0.1390450581056477,-0.22585427462341642,-0.22806099813434047,-0.3383968845368262
-0.3292543117754745,-0.2881652918119355,-0.4025649010297885,-0.4706461153424861,-0.14283870180830294,-0.22862071274882823,-0.21181487285050574,-0.35371214621972924
-0.3474055925827315,-0.28577338421819004,-0.4010444003249357,-0.48024598122095724,-0.13296371603065124,-0.23105322586295146,-0.2248686032765644,-0.35754774617586593
-0.3562038554845154,-0.2862689530018161,-0.39388233105803105,-0.47707819168778864,-0.12840842025898322,-0.23000796921735367,-0.21890339665618516,-0.3422968987684762
-0.36838334715177806,-0.30343865195567166,-0.3860573939728894,-0.4710101613330251,-0.12907995803251063,-0.22326425356048074,-0.21693025864554102,-0.3254307660849811
-0.38764873705472813,-0.33724189229463175,-0.40255550111973976,-0.49108217994630193,-0.14083261324639998,-0.22671537462497102,-0.2209185124969801,-0.3372371153586395
-0.42654762900537735,-0.37415560284594923,-0.42605116389038633,-0.5101390287132705,-0.1550807396500499,-0.25442401110033885,-0.24671646722240434,-0.3726695794397327
-0.42550753466296226,-0.38065634685721134,-0.4149738258222444,-0.5131818128538392,-0.16418348287656725,-0.2617951462919814,-0.24677164715368785,-0.37172557434241954
-0.4250276456719949,-0.3724160019339139,-0.42459861189488346,-0.5190160882049718,-0.16473719599396625,-0.2442203797394027,-0.2296735173382036,-0.3677838229707523
-0.4203620703280247,-0.3744965833046362,-0.4257927811263358,-0.5418866816271123,-0.16983748180104746,-0.25042562981846056,-0.24188659399608425,-0.35968699090941847
-0.4203546958550473,-0.3758359062495018,-0.4239724874341157,-0.529886414780718,-0.16651993355846287,-0.2554899659764491,-0.23356038599541595,-0.35220663030944876
-0.4141955027483057,-0.38607166539686416,-0.4183553681076072,-0.5362909780895604,-0.17306165601669096,-0.25505187849969496,-0.24374835893570104,-0.3787638083007457
-0.4110617366574608,-0.3973429063901944,-0.4258198014579162,-0.5225527129105019,-0.1746665273487969,-0.2560334352658354,-0.24185505192051907,-0.3744686673494245
-0.4062618498825755,-0.3655428691393321,-0.4176394960361965,-0.5105359643406926,-0.16781843284795295,-0.25260292633946496,-0.22785591250384601,-0.35990549219882145
-0.4107363090477308,-0.36204872966732865,-0.4305910303383518,-0.5212956041287762,-0.16464757122748355,-0.25312055660098626,-0.24275370517433553,-0.36350865519535536
-0.40075955466520385,-0.36590243460901734,-0.42646293948293856,-0.5273837099873221,-0.15933509611229985,-0.25628467327290494,-0.24816477408177287,-0.34544357915436646
-0.3923340996207319,-0.3588082250024213,-0.44519492969267155,-0.5250845462945564,-0.1670034373322376,-0.24778983521988054,-0.23832544683408832,-0.34992580812937163
-0.3942780173868165,-0.36338617704111187,-0.4350627295267499,-0.5247478497251453,-0.15627380674126337,-0.2449950602959398,-0.22711768811675234,-0.36298184855173143
-0.3909060455946186,-0.33080910558627097,-0.3957251190082595,-0.4982494325011035,-0.15762693676036701,-0.24258433123242765,-0.24256390249655932,-0.3529707703221504
-0.3750428199842223,-0.3188917017150094,-0.40988388941034576,-0.5046319583343618,-0.15726412408330492,-0.24733476548567945,-0.22467788293386612,-0.3350177861661105
-0.3850331846253262,-0.3089193809996432,-0.4126689945358333,-0.5115200037938632,-0.15436347124248803,-0.23416436902918827,-0.2201641962934362,-0.3351177746852751
-0.38303500868206464,-0.33873274623155314,-0.4063748495245561,-0.5123341814899939,-0.15017416814615372,-0.23383683147653433,-0.21337134154870707,-0.33346669999852413
-0.39919643856692394,-0.33872386833782747,-0.4249305109227849,-0.5154080712639598,-0.15788736482431473,-0.23507618663322916,-0.21621085046802116,-0.3552669912799977
-0.38704205399387165,-0.3277490552079032,-0.41571399723701247,-0.5088966825419925,-0.15587516687329384,-0.23377010469918622,-0.22002896943869246,-0.3366461016945096
-0.3828355239568231,-0.3200192126349822,-0.42829159618390555,-0.5056996240310166,-0.1479015361558003,-0.23096873844742855,-0.20091610282619043,-0.3269713891034228
-0.38546016225080576,-0.3377962211851813,-0.429725236883049,-0.501921395304816,-0.1538973301060978,-0.2422341417243606,-0.2176382883672457,-0.335204336371222
-0.38617931291524815,-0.3222877722028036,-0.42101292568533955,-0.49038406456532346,-0.1535381402029463,-0.2362186458470569,-0.22017029194458942,-0.3363074052718435
-0.383801267836312,-0.332093482234536,-0.41767402024836303,-0.5148119796141628,-0.15407809840267245,-0.2366652875744895,-0.22394042221599678,-0.3433839658705129
-0.3821549461100194,-0.32329119123943,-0.4261226217020082,-0.4991276690287566,-0.15883481816909742,-0.2425263445804053,-0.21628086146856904,-0.3452575026227913
-0.370482316873388,-0.33399122934330344,-0.42230668591112974,-0.49527559786951775,-0.15876247326672183,-0.24725609994222805,-0.23861211929381299,-0.33727673799291114
-0.3803414656189642,-0.333921501219804,-0.42900286459328346,-0.49440912367956774,-0.15648421747958383,-0.23783687276513477,-0.21894369379353143,-0.3382373967224574
-0.3642415285416191,-0.33426270008064357,-0.41923979715301446,-0.4932462727770498,-0.15705558134007078,-0.23835461730135293,-0.22928194364806154,-0.35644241414492533
-0.37037124543022665,-0.3498165159285274,-0.4386697272625836,-0.49918507639216425,-0.15552368955108728,-0.24310973140195072,-0.23260368307875992,-0.34207705036161684
-0.37630939480771897,-0.35097014229426526,-0.4163651325617269,-0.480521020179453,-0.1620056900746211,-0.24957236640192598,-0.22804335754247632,-0.3614330000549685
-0.37711693723913126,-0.34869892307449596,-0.41612326881769257,-0.48872116942423055,-0.16137060604790857,-0.2448388477951773,-0.22454166538329828,-0.3459809363036294
-0.37726822643965596,-0.36140822589761507,-0.40825466878093936,-0.4835868364574882,-0.15781310112986832,-0.23772876217199823,-0.21930885779055231,-0.3568118445009079
-0.38210428524949835,-0.3702030322299597,-0.43017671038934135,-0.496214779981793,-0.15341865378251204,-0.24705856547073246,-0.2235745906820672,-0.356119787808954
-0.3765234841444342,-0.3753728237385098,-0.4350110749314553,-0.4835428830700591,-0.15927232877999972,-0.25674480059261473,-0.21959898548068357,-0.3712943447560892
-0.38817689979293807,-0.3776793174923434,-0.4548849117048732,-0.4861682029943751,-0.15485125032891447,-0.2428974356368402,-0.21556771788538687,-0.3657694197262223
-0.37850492715649936,-0.36219035953642437,-0.4342784084595385,-0.4972942925417125,-0.15709437962478515,-0.23740176159537693,-0.21542296993653762,-0.35904725777959173
-0.38638872511257133,-0.3729982078962207,-0.45255557626627313,-0.49552473199587366,-0.1619436397311174,-0.23812989972783694,-0.21609890088781916,-0.35374278091473427
-0.3816647531484213,-0.3705092282020441,-0.4382186259303137,-0.4843883570729784,-0.16030411981488837,-0.24577110097692006,-0.22161626547477697,-0.37708871773342617
-0.3931951500019885,-0.3965393741707641,-0.4456993257323581,-0.48956870402053043,-0.16506131499012636,-0.2556499784151859,-0.21704259296076045,-0.3854615325806255
-0.38608525012106837,-0.3701566551766031,-0.4236827789351857,-0.490267570431834,-0.161363388986725,-0.23516998932481809,-0.22381029997518387,-0.3742648474768779
-0.37700827154508615,-0.3753359336171262,-0.41910758906994283,-0.48267253643149166,-0.16687422420576986,-0.24584260996355492,-0.21726964346675584,-0.38660121876092224
-0.38037479538962166,-0.3791233731330311,-0.42588243609619614,-0.48816518383800905,-0.17365070876705732,-0.24671325759116117,-0.2253350355026299,-0.37654968640249487
-0.3773682581870754,-0.38877369183083577,-0.43806769638098636,-0.483766554054732,-0.17665910948920138,-0.24487371411287306,-0.2256240156747317,-0.392863679445087
-0.38573393820446794,-0.39972911810090805,-0.44735877447999556,-0.4806569415832097,-0.166395647337291,-0.24142473870977238,-0.22528383445506522,-0.40023368717384833
-0.37395261048717965,-0.3745832663488807,-0.44589124480103587,-0.48021358105297857,-0.16873845354128805,-0.24442995464557418,-0.21803842413209518,-0.3810643272288165
-0.3831553161904723,-0.3897026262773142,-0.42811230706670506,-0.47546084574102865,-0.1606137710638098,-0.23789663057131666,-0.20892858768928949,-0.38760203399340554
-0.38228255024560925,-0.39541968229331037,-0.4305523339286695,-0.47517305805394594,-0.16220136265998158,-0.24547011764803553,-0.21414266291159112,-0.3860132317439321
-0.38051620803243835,-0.4089535623975977,-0.428607190871757,-0.47988759472523074,-0.15863308473169097,-0.23478270260095135,-0.21090690713690766,-0.38894117329212247
-0.3874990983843351,-0.40774918533071525,-0.43860917267968813,-0.47201701604360263,-0.16735705906422862,-0.2310344646738707,-0.2165303227032881,-0.3901728898341016
-0.3789171140032934,-0.39008684269129,-0.4036999920062345,-0.47298026566879703,-0.17411874179459205,-0.2314925145876544,-0.21400056802975714,-0.38177432619493423
-0.38233751476216926,-0.38194202934968907,-0.43915821806579325,-0.47234358931168124,-0.15722402177245012,-0.23848498952323086,-0.20843676339126505,-0.3785152690887814
-0.3852778848904197,-0.39649632078362607,-0.43793756458867916,-0.4730749310524015,-0.1681015197075138,-0.23855309957156093,-0.21163427443067118,-0.3760094131295725
-0.37361560926584614,-0.38718058743237466,-0.4253753389581223,-0.47599339696355547,-0.16779849777078362,-0.234993933567945,-0.21475057368607847,-0.3726533867516226
-0.3727497484243193,-0.381352259097974,-0.45071476169342023,-0.4652890110360602,-0.1594577877268741,-0.23785667620479903,-0.2174806485557175,-0.37476264901871803
-0.37792980356643013,-0.38994725456455487,-0.4383882559804395,-0.465037928911446,-0.1603716623885865,-0.22917246218337842,-0.21107688217166506,-0.38174080375723923
-0.3788738458868162,-0.37658989357952644,-0.4178004158734274,-0.4789116399465673,-0.16018634982310748,-0.22909116428935442,-0.20233358293461862,-0.35686982330568084
-0.3754777903936091,-0.39724160398828906,-0.42038786504258,-0.4757287913055084,-0.1553729334252962,-0.22651729712463242,-0.2114993874369427,-0.37887688414616394
-0.36539976203036745,-0.3927161517335423,-0.42625691240107183,-0.4843464250487743,-0.16842050686878257,-0.23063688057232906,-0.21986665676351094,-0.3852856902807216
-0.364662659064377,-0.3888701556573508,-0.4247675823778752,-0.4717801597946844,-0.15636253200354291,-0.23318835721589454,-0.20714364990980877,-0.36309870064147914
-0.3654508374157285,-0.37154483607461564,-0.4354969446900716,-0.467498028486331,-0.16345508990355934,-0.22751524081957303,-0.19541388598263873,-0.3642865032373191
-0.3698665897050019,-0.38464492457820987,-0.4219346286942477,-0.47111096653942924,-0.1597398098748593,-0.22164774507304363,-0.19769921520203873,-0.363090683942492
-0.36338393050741874,-0.3896649992549426,-0.4178311354907481,-0.4696790902393617,-0.1489738799733856,-0.22948219152420346,-0.19908553419775937,-0.36388737097645196
-0.36345743767374206,-0.38195107674965073,-0.43954747024192,-0.4736962294478189,-0.1506836717419463,-0.21802363115023465,-0.1987598847088072,-0.3722283970752742
-0.3457786461934408,-0.366470323196973,-0.4219546834464291,-0.47149208771066786,-0.1380259080107378,-0.21095749542027453,-0.19777308467908455,-0.36008307759904956
-0.35304737202890796,-0.3654972737364655,-0.42310417900346253,-0.4617679670873596,-0.14337765396292423,-0.2214788256518301,-0.18886332462748268,-0.34271729721142774
-0.35509320232617436,-0.3687212221792938,-0.4111294672100093,-0.46501534920015863,-0.14659760808165773,-0.2127968859045991,-0.19392168128846732,-0.3574283004588006
-0.35429434877567595,-0.37066980449011455,-0.4348213237752762,-0.4719121575244329,-0.13669399664322454,-0.21806551222238754,-0.1900943429393509,-0.3585591945904513
-0.3556920875860822,-0.36922362118357216,-0.42569976925382313,-0.4668324119905782,-0.14759297704359758,-0.20797019882393977,-0.18833760765965907,-0.34894480699133046
-0.34944204914625016,-0.3666218257528789,-0.41850299791463874,-0.4777877530805731,-0.14623129298426316,-0.21097287375891538,-0.1834914490117451,-0.33935776986720456
-0.35097233636144176,-0.36397801327087936,-0.4210720458607974,-0.4848913880287332,-0.14094750176425325,-0.21122291360564888,-0.1916123524758965,-0.3407291946072611
-0.3385082067835979,-0.35946096313070847,-0.4325027136374166,-0.4697349484886961,-0.13510851302916566,-0.21367947199359946,-0.17777081357874108,-0.3354097799268243
-0.3419223018839132,-0.37330212152173864,-0.4257410159931932,-0.46819055044184094,-0.13706682514656807,-0.2274570043551014,-0.18754921053174128,-0.3283253756827906
-0.3467349251897112,-0.3627889143263197,-0.41871849523003324,-0.4720781183271514,-0.1299613855662217,-0.210224237463091,-0.18130160176694923,-0.34344154149932804
-0.33959084991234456,-0.3510205044897444,-0.42509476057335105,-0.4582527705082993,-0.13477008281136782,-0.20915834926986102,-0.1776176378994916,-0.3445037245016149
-0.31555463997914196,-0.3307953809110147,-0.3985008297102257,-0.4594021602482962,-0.12691007330487722,-0.2056086022085268,-0.17476571254087164,-0.34417933156700575
-0.32244164581306467,-0.3353692510926317,-0.3963455978331327,-0.4464117000981168,-0.12476920517769852,-0.20878556048273245,-0.1640427470900292,-0.3440498339247409
-0.3220221039445165,-0.3301773449868165,-0.3994602554085574,-0.4437329352457148,-0.12436028602953991,-0.21803067598347473,-0.17580052118431327,-0.3426888726580418
-0.31643226905573246,-0.2811382922355854,-0.37741468057460753,-0.4188871027414156,-0.1307841886289008,-0.20092500421224663,-0.1587102570123314,-0.3421709321325257
-0.2783288392911711,-0.22213544285091372,-0.3809502626806122,-0.38705022144713314,-0.12884194092113538,-0.19791225580361077,-0.16578616989416395,-0.3400328638943992
-0.3215108612384174,-0.3089777995416873,-0.42779780233483256,-0.45795759341450404,-0.13357185546274494,-0.1969178768618092,-0.16701225649562343,-0.3325497047363808
-0.34211209772623286,-0.33908914750296204,-0.42602257163799423,-0.48398036139087375,-0.13703685648582767,-0.1982940616063127,-0.17519764238695357,-0.3337465072127013
-0.33666302770619844,-0.3524481653819219,-0.43027682625307695,-0.4586031678532222,-0.13531923688585465,-0.2025080115932955,-0.1674215955619133,-0.3405722667407037
-0.31289162242726876,-0.28302157917275417,-0.3732721530559507,-0.4043451370988552,-0.11168876230213463,-0.1899656633476552,-0.1511248315944957,-0.3164601710128442
-0.3159374473815807,-0.2621256475393513,-0.3724228786374057,-0.4093813297487478,-0.13735072324453299,-0.1868524551049746,-0.1670614651813345,-0.30772213117406333
-0.3621808723169779,-0.31705293869097473,-0.4012691417130629,-0.4368015549000414,-0.12896619766360748,-0.1926255270834299,-0.16510895921081237,-0.3211124271513668
-0.3878550603507003,-0.30644423680909394,-0.41561948389877146,-0.44063597760368417,-0.13509008934144134,-0.1999405252791643,-0.17044032192409844,-0.3188072999426747
-0.4381521989550203,-0.3709783955301324,-0.4775465748797837,-0.5061177693902197,-0.13360235489566397,-0.20536146778999906,-0.18193812906557283,-0.3158230715207256
-0.46800192157489023,-0.4140213936092607,-0.4965814691022603,-0.5362760576858616,-0.13463467526958192,-0.20833170196397982,-0.16578484885883185,-0.2941900378025873
-0.47932748971061573,-0.42346770065041633,-0.5067622533178756,-0.5593807805950564,-0.13618797893894696,-0.20578387878832852,-0.1750438980661658,-0.3162531414519355
-0.4886183310371239,-0.4432769014729329,-0.5327411041640352,-0.5761208010964547,-0.1363218461263548,-0.22883894371912097,-0.19660063620877608,-0.35146782880108274
-0.4929431620397,-0.45250737568983485,-0.5157181134853538,-0.5635977030699635,-0.1414361340025614,-0.23866434287235874,-0.19491708579308176,-0.3413421904561509
-0.4916725839634819,-0.4441271363083294,-0.4954004690649326,-0.545324648385669,-0.13660105765407457,-0.22686042711977122,-0.1902164307802752,-0.3402523685791617
-0.4767294874973672,-0.4615421375622254,-0.5013013272521548,-0.5488497058917223,-0.1523666534717678,-0.21172317783417957,-0.18040682637293876,-0.323171387371649
-0.48686159603894147,-0.4717767346471161,-0.49096275250763044,-0.5489651443846765,-0.14256902510267624,-0.21681407485552137,-0.18149664462696732,-0.33094105894566966
-0.4870137668740989,-0.47187283978003813,-0.48720787173478763,-0.5409167467907151,-0.14937640864051768,-0.21401090569680056,-0.1779254787674816,-0.3397774796983869
-0.4792310446713147,-0.460747587144613,-0.48374909132335125,-0.5388220425032032,-0.14659904426701292,-0.22047630844955393,-0.18910326788754028,-0.32091321251305477
-0.4889981844283015,-0.457342513516928,-0.5014082439567401,-0.5394376209715206,-0.1385596388181756,-0.2243624269038432,-0.1903962382994771,-0.3138090015951713
-0.4887762639456796,-0.46697143825484944,-0.5106672668963,-0.538684576458382,-0.13676008040657725,-0.2112778963589131,-0.18345238111762563,-0.30210378491750384
-0.48393332674218503,-0.47047496588488424,-0.48544499466400687,-0.5427995292016475,-0.138280948709978,-0.21165072416106473,-0.17681857291040695,-0.31134120458575604
-0.4981690752747269,-0.4814143375727881,-0.5007190054011712,-0.535143915191381,-0.13513766381189488,-0.21961424215178355,-0.17381622248466586,-0.31718630252511054
-0.48844523832075193,-0.4761038336807663,-0.5068932581610959,-0.5358641038847568,-0.13458760107350112,-0.20769885015308406,-0.18151753779526145,-0.3077119957032957
-0.4929210843644493,-0.47784507984452906,-0.5155208784082516,-0.5399555816617373,-0.11862238072301588,-0.19887487537185017,-0.1740907054011157,-0.307966707906568
-0.48832680824748503,-0.4914109996339129,-0.5141543286526474,-0.5352106080598323,-0.13198638393155157,-0.21747146392270134,-0.17053217421946607,-0.3190336962349639
-0.4872210395158748,-0.48617118355653344,-0.4996861568502887,-0.5250133569681136,-0.13970145998845074,-0.20951221172639636,-0.18489010191406374,-0.3253231301775367
-0.49085001219257585,-0.4866472822848443,-0.507476830385318,-0.5153550670227505,-0.13021497868905196,-0.20493816513624005,-0.169279594050779,-0.31875582321707163
-0.491827533442093,-0.4828630798927845,-0.5161912630165877,-0.5219224279138449,-0.1234511609959207,-0.19501168374456296,-0.18825310207902549,-0.3161934189528607
-0.487468531872379,-0.4804487059635771,-0.49614371353124415,-0.5197213150742792,-0.1333057934664132,-0.2138707682012736,-0.17579591742298328,-0.31115301699649256
-0.48772763850444295,-0.4959642420811187,-0.4993818634654488,-0.5279335357738997,-0.12685831542754492,-0.20848279497007674,-0.18162515971335622,-0.307550393884456
-0.49696363419712825,-0.48851266906477586,-0.5166152613988434,-0.5310980792195918,-0.13965060812841593,-0.20286418325720762,-0.17797712653880776,-0.31379853926603823
-0.4877279483343335,-0.47174304555730995,-0.5077451879893045,-0.5212572938350022,-0.12616984999713873,-0.20385909877634567,-0.1753499610924378,-0.29794519730224717
-0.49197051250277846,-0.4856766712981641,-0.5110550244116816,-0.5387542299689656,-0.1259528030154792,-0.200857849823346,-0.1653518470593377,-0.3091201736815067
-0.49085799748641035,-0.48220521252537557,-0.5211478421800729,-0.523249600129813,-0.1181841386431313,-0.20120417499550783,-0.16444628550860038,-0.2987160973015905
-0.5020214161218238,-0.48036419349329257,-0.4957698571026002,-0.541110465839662,-0.1390486904073308,-0.19048117782466412,-0.17589482058725867,-0.3035727741469849
-0.4982699693441435,-0.4889196559732063,-0.521765608679803,-0.5299193991378063,-0.13551491394996887,-0.20096403277546496,-0.1681121500844574,-0.30686124689799743
-0.4972608634642197,-0.49342842453178243,-0.5053521494724217,-0.5294396555407812,-0.1220766668750149,-0.18666737045469922,-0.17159001631466073,-0.2801544520977464
-0.4916878783252315,-0.48169775089549877,-0.5215283186877402,-0.5325487869818701,-0.12163343335895381,-0.18847267286559366,-0.16567909569287545,-0.29952577175360023
-0.486767576476158,-0.4809997468994985,-0.5010121868911546,-0.529930110884735,-0.12659274927963138,-0.20011527666603965,-0.1677862110997235,-0.2963276478593273
-0.4987655572341384,-0.49583117312170266,-0.5142563506005848,-0.5349685388656538,-0.13533806081872515,-0.19364410823937875,-0.18124048248043131,-0.309764666918577
-0.49156015531342034,-0.48657765864720715,-0.49958161163721837,-0.5254493905949744,-0.12122744475144659,-0.19782070365019203,-0.16606024534904174,-0.3033120256724757
-0.4841612053953174,-0.4887048104162411,-0.5228248512312976,-0.5378905691903157,-0.1312208845468262,-0.18390250105124764,-0.15827592909307353,-0.30407783690865914
-0.49163170392086275,-0.4762876769883755,-0.5327769039234987,-0.529670954641174,-0.12285965997074541,-0.18311708852428063,-0.15708967378903618,-0.29739004010696946
-0.48982740628194504,-0.5083188698026576,-0.5166209919930237,-0.5358065043021294,-0.11716124347570173,-0.20002228296923533,-0.1690592103421729,-0.31074572751018315
-0.5009186119761402,-0.5016683185203855,-0.5224298062404176,-0.5315273634298894,-0.13093558637670238,-0.18675957645275362,-0.16232698000954057,-0.3194470251566639
-0.4945087149943928,-0.49163903572299317,-0.5280427787784777,-0.5306686957743703,-0.12803796456460295,-0.1993764874591516,-0.16166540819692848,-0.3071507001049532
-0.4887453388750217,-0.49757596569469476,-0.5307013173328725,-0.5322642676038236,-0.13139116881386664,-0.188422693727743,-0.16503585996000722,-0.302965458690435
-0.4916855031205723,-0.5116820982732817,-0.5121022876149514,-0.5360676125635113,-0.12250633829969952,-0.18457121789436737,-0.17255833743625823,-0.31353746513550135
-0.4944593222905182,-0.48639183422491744,-0.5086114547468841,-0.526728317125361,-0.12613533103017152,-0.19032493283033305,-0.16689029078513895,-0.32383125321427864
-0.4911919440597125,-0.4869657229325503,-0.5171021386861708,-0.5156188745707876,-0.12089953811691642,-0.18597271314236022,-0.17799718411620646,-0.3185151523957253
-0.47725003781281994,-0.47299478764267083,-0.5063767910888232,-0.523897990027372,-0.12876875396489548,-0.17869640022742153,-0.17071424035391713,-0.30822851104885063
-0.484220383366904,-0.4747659399040163,-0.5098040227261603,-0.528923032416944,-0.12959899376289796,-0.18995594214305916,-0.16418866938387447,-0.30094775186039086
-0.4941470626787606,-0.4735229929400409,-0.526738828721702,-0.5343952194152278,-0.13055062764440933,-0.18427467161268415,-0.16788591022275928,-0.3045587341838941
-0.49224330048104453,-0.4877406070152781,-0.5375135534633126,-0.536255014647279,-0.12904655516381985,-0.19188398354790115,-0.1622597837346952,-0.317478384351668
-0.4871991589330078,-0.479708305503239,-0.5147447751968118,-0.5251656728372326,-0.11992706304226303,-0.17443992173694153,-0.16086635652072565,-0.31171563048397816
-0.5056708680130427,-0.45882428267723707,-0.5205593143421615,-0.5256447950183802,-0.12136911985283343,-0.18775632332945508,-0.17321342161364423,-0.291264690971517
-0.4959391062415185,-0.47926519806085843,-0.5223599492478441,-0.5263030632653253,-0.1306434612078318,-0.1919478792576548,-0.17928478298589104,-0.29748128227616427
-0.49728065124048243,-0.4774552159544028,-0.524852507910527,-0.526529116699108,-0.12782663123165688,-0.19169444575254863,-0.17786886242770647,-0.2975970504626446
-0.48880866310521365,-0.48353267116378457,-0.5155974602899691,-0.5314035939047975,-0.12629142918480857,-0.18701014228258483,-0.17339336076797476,-0.2841740982114743
-0.4564216299357695,-0.4016530192878399,-0.47093734835220996,-0.47727711832930964,-0.11977683162150063,-0.19285564232693736,-0.16925999154924426,-0.2823477361650915
-0.43853664930715863,-0.3851113638311998,-0.4820640013042417,-0.4661357567107357,-0.12419521328777178,-0.18219763237422237,-0.1654659254213565,-0.2797232407480384
-0.4735195173570271,-0.4284796962127577,-0.504410216989668,-0.5077435120265316,-0.1247644851293037,-0.1850177240800173,-0.15689678531436418,-0.28326049275532866
-0.4959035598095768,-0.48417454954557443,-0.5209031115879562,-0.5413636141018249,-0.12231615456716648,-0.1948827852532554,-0.17112686416371595,-0.3106176068051
-0.5094213239495801,-0.506478161251666,-0.550016649772873,-0.5549904377539103,-0.12191004095973695,-0.18885873081546006,-0.17497341252241538,-0.30228992154559353
-0.5392815146468524,-0.5131346681530193,-0.5343773081742342,-0.5489210279859126,-0.12774495934722274,-0.19036520505353077,-0.1671822060202971,-0.2829375679540421
-0.5328536298288583,-0.5270757805619559,-0.535292295078378,-0.5576030925155927,-0.13056152955749498,-0.18660858068330824,-0.18972356960168582,-0.26668694559210093
-0.5288484029651231,-0.5194847533240282,-0.5491399119443546,-0.5712325806518925,-0.12899606832428753,-0.19736161712971767,-0.19549468451007662,-0.28765526072443753
-0.528727080359681,-0.5509625580916474,-0.5459910331770044,-0.5776779248615324,-0.12280852275227581,-0.19498509585749843,-0.18044802180033856,-0.2917664744531853
-0.5183281840473379,-0.541691556642006,-0.5387364709814898,-0.5766834504320313,-0.11857996126951414,-0.19727495921989263,-0.18064811641015494,-0.2757613310236506
-0.5242253390309737,-0.5429488387180662,-0.5455289364794573,-0.5654572361750216,-0.12435330250727113,-0.1934949400068012,-0.18948340160034519,-0.263300470185005
-0.5221550795516108,-0.5496011077737654,-0.5371075091598749,-0.585717696359109,-0.13534888841275322,-0.19542739503221346,-0.19868581350095085,-0.2753709850973921
-0.5217282756904655,-0.5706292089603417,-0.5215082933399002,-0.5712413349275565,-0.13353993209285644,-0.20687067501771547,-0.1838142767811885,-0.2580041115878885
-0.5147129879562607,-0.5433649822151353,-0.5107465097851759,-0.5719703977227575,-0.12761359072910716,-0.1965985268400724,-0.1981023988983362,-0.2716860156760451
-0.5135213462257273,-0.5585542049204165,-0.5120461223022498,-0.5703737234121332,-0.12667151870013535,-0.2073672711334635,-0.2110164263942169,-0.24893091361557626
-0.5163600243656442,-0.5725656587502214,-0.5093181480748945,-0.5743566317490966,-0.12816057077964646,-0.22125372755944955,-0.22078191041165046,-0.24282905518966047
-0.5107273618827247,-0.5642631551863333,-0.514543181914605,-0.5814908224172362,-0.12925413660210724,-0.21048812285305646,-0.2224251510245735,-0.24860382846634949
-0.5160828405361394,-0.5534104195807171,-0.512245621878713,-0.5900264909536469,-0.12511029892923267,-0.21436003778223484,-0.21511601353037457,-0.2405642569956103
-0.5101746890357176,-0.5656684246868372,-0.5275098623763476,-0.5665487621589139,-0.12832732825093635,-0.2014815782459295,-0.20880792901002498,-0.23172532135422308
-0.5239065223514336,-0.5846847385835133,-0.5060822036679121,-0.5904952370872116,-0.1230043846773607,-0.21050138033849422,-0.20819617555309664,-0.23280954059432843
-0.5220901227555641,-0.5840638784606462,-0.5186068633968971,-0.5925593681373543,-0.12489020255972438,-0.21522545233086982,-0.21680656159123843,-0.23066222706735057
-0.520752155067875,-0.5586555664072018,-0.5209262562727378,-0.5961882682249314,-0.13370584593335041,-0.2091988130436629,-0.22500603836205388,-0.23872361680091353
-0.5266665743799288,-0.5640797658818005,-0.5292838791093075,-0.5866448922737244,-0.12547932114105037,-0.21589014658999042,-0.21975533615835632,-0.24715450479689777
-0.5265917881775624,-0.5606658784623406,-0.5277593179848442,-0.608422615096227,-0.12261453805418031,-0.215268348423072,-0.22450932208193414,-0.24134829730782553
-0.5216241322526357,-0.5669871122013197,-0.5339208412025894,-0.5949635551505452,-0.12348973700965435,-0.21590619289386864,-0.21923781187098704,-0.2594141560356763
-0.5261604919728377,-0.5686613698340937,-0.523332155587501,-0.5960470522825945,-0.13911402220691524,-0.2171934975334066,-0.20750013562712222,-0.24904250452535406
-0.5215429920134051,-0.5496706120676794,-0.531694256737857,-0.6031043200805498,-0.12303950869941024,-0.20353600091500235,-0.2105510493969756,-0.2462267510584136
-0.5154910322107488,-0.5432907854180368,-0.5412403313568482,-0.5950270054255314,-0.1413443839369514,-0.20477851629994742,-0.21272851071325416,-0.26359821883648177
-0.5285161098899053,-0.5744479170938352,-0.5369110370369586,-0.6129265972657675,-0.12786133013834347,-0.20683956479084462,-0.21025876894872952,-0.2666146523040319
-0.5272335327899128,-0.5630969716783565,-0.5321057269620493,-0.5993010567800554,-0.1320007082821755,-0.2125959577359804,-0.22047714407319619,-0.25949974788302616
-0.5258292797932176,-0.5496325472600561,-0.5385956606763093,-0.5905406957825166,-0.12164195546171883,-0.21381793555816783,-0.20827486141006238,-0.24981337695345088
-0.5223545103799282,-0.5546823154913759,-0.5413273451639212,-0.6135270335349102,-0.13534267299184294,-0.22211692336694563,-0.2028655392665211,-0.2597475287629072
-0.5239202355385593,-0.5541734920830849,-0.5320640077117829,-0.6067315482655194,-0.12528246869092519,-0.21685904906533698,-0.21161933028787183,-0.26872392662990996
-0.5360148299196665,-0.5604956230802358,-0.5369119624892413,-0.6053708964023494,-0.13226448891633003,-0.21930405635634903,-0.21880502759196274,-0.2689469684734327
-0.5254310745151812,-0.5309505597150171,-0.5441649768025044,-0.6128019207647092,-0.1257898694521269,-0.20368088885926225,-0.2065859814324756,-0.2782855651124439
-0.5230789720752996,-0.5058092274615266,-0.5581431083945269,-0.6020793708758037,-0.13176420442645945,-0.2236666815908222,-0.1981523278917055,-0.2786369765985833
-0.5197624556060918,-0.5193536819235863,-0.5611891184233567,-0.608046766941298,-0.12693715141607298,-0.21927432998700577,-0.20918490946388685,-0.28101334688200186
-0.5381913678952756,-0.5198976472534733,-0.5581698593813785,-0.6079367813697096,-0.13605966541383022,-0.22781018489578342,-0.21536295456948493,-0.2881674459940508
-0.5217645018773065,-0.5435897432594683,-0.5307164923959662,-0.6045667028809513,-0.13293245903845669,-0.22968989363934963,-0.22837209978611298,-0.29092713850983737
-0.5201913828711826,-0.520838319300998,-0.5594352155368074,-0.5943880086754347,-0.1385918837794771,-0.22106385926139888,-0.21901782828907781,-0.2843149496845029
-0.5214470924942514,-0.5395077549351488,-0.5513058732259336,-0.6074154890554105,-0.13361650888381074,-0.2177213942119637,-0.2275963835050413,-0.28812892213217467
-0.5212738802664998,-0.53979589394972,-0.5748936661328476,-0.6084976508633329,-0.14185921813481064,-0.22924019082142755,-0.2296034869235041,-0.2966288674927524
-0.5352517945811964,-0.5435920244368547,-0.5556963936921745,-0.6233066541314576,-0.14260604776634264,-0.22407918682257863,-0.22183687788724016,-0.30764810193318076
-0.5178906241164656,-0.5418480692357827,-0.550369883763318,-0.5897682362377693,-0.14227078965798234,-0.2225295049143985,-0.22015085362450745,-0.3068017383392644
-0.531663024637776,-0.5430025985587269,-0.5501431177630846,-0.6101420953983253,-0.1382212188222326,-0.22887944994090634,-0.23625861666464698,-0.30948719934631086
-0.5258602799734049,-0.5487387894354844,-0.5497593830541007,-0.6015044127003694,-0.12414563745773881,-0.23124731314178526,-0.22082209088742064,-0.29697036646503755
-0.5401211284681415,-0.5640190558345562,-0.5564340513799052,-0.599760370816532,-0.14710716820156836,-0.24075216253389792,-0.22964949810131757,-0.31006127208878476
-0.5338667988547406,-0.5618632534978378,-0.5636201139265631,-0.605267447141971,-0.14699940212852433,-0.2401355872867353,-0.22747363846446783,-0.31159006501174286
-0.5347387414236559,-0.5783367008252537,-0.538930913261066,-0.5932969507430816,-0.1557861268128081,-0.2329548813066727,-0.22619483933707857,-0.3047339054993202
-0.5285104482629543,-0.5835998709015466,-0.5673344558063963,-0.6077857003691288,-0.15027533351086048,-0.23770718196260407,-0.23816619788960477,-0.28376517651931116
-0.5410683169865987,-0.5887192952591626,-0.5283581935346658,-0.5949313010145852,-0.153297449696942,-0.2367819966221658,-0.24296094989225894,-0.2947606083464612
-0.5256712361513921,-0.5952061617544168,-0.5256568235842065,-0.5941078994779357,-0.14952405850235903,-0.24079552966820172,-0.2526475148393403,-0.2906229709965592
-0.5369452397358563,-0.6126954429095057,-0.5253133243011472,-0.5860352904754512,-0.15117572271262292,-0.2335330703974445,-0.23731080414330274,-0.2649237060657445
-0.5273100824636177,-0.6270272678289193,-0.5010595308560152,-0.5790503874719108,-0.15944251891564365,-0.24020685122455093,-0.2579002951894052,-0.2610563007028357
-0.528342361718197,-0.6317291758768828,-0.4846766384056941,-0.5761112489756155,-0.15390628197862002,-0.2414755604795388,-0.2692058994744277,-0.25719505174029755
-0.533256035124836,-0.6480215137239639,-0.4835244233788946,-0.5556286669448367,-0.15057188278149444,-0.24772057144716422,-0.2649875427059119,-0.234596939044025
-0.5345769154300416,-0.6566024974643266,-0.48564816390532456,-0.5665971677790418,-0.16095911849919264,-0.23144100472769694,-0.24407730013236995,-0.22921431084478186
-0.5395989565340947,-0.6689753319534059,-0.4692305661766496,-0.5520839468082912,-0.15028575521831808,-0.24686429918454503,-0.25910412558456414,-0.22073957611493783
-0.5374132619683099,-0.66130205207417,-0.4823682497978123,-0.5506137903244668,-0.13345510834070795,-0.24197973055250896,-0.2550554881394523,-0.2138724810061772
-0.5433728157756345,-0.6749661639515458,-0.46448154270981995,-0.5639039052554619,-0.15314956804744412,-0.23360950562843238,-0.25851317140474606,-0.22747519542664946
-0.529443328892234,-0.6711230811931148,-0.47226751609206064,-0.5526167271963628,-0.149249655520594,-0.23109459689795744,-0.2546313656450784,-0.21562641427380516
-0.5353862988057205,-0.6679430096367596,-0.4715381252481005,-0.5726777161796294,-0.14317405712205222,-0.22116070608416152,-0.24505221299578647,-0.20723098652014682
-0.5284641522757304,-0.6586892367646112,-0.4737700093315136,-0.5657931218319133,-0.1523422881985381,-0.23133552895670018,-0.2574786769793612,-0.22211892958829219
-0.5425931644328446,-0.6585880922158804,-0.47489575005518725,-0.5603636175039663,-0.14957066379515646,-0.23304366113228078,-0.2527712694054934,-0.2338438364322198
-0.5330873263554605,-0.6327102453317451,-0.49735229865732916,-0.5462204280417676,-0.15048729469533614,-0.22365262058171625,-0.2455391140073015,-0.2245983964168203
-0.5322634750001128,-0.6384619448801,-0.49669591156542575,-0.555094183633367,-0.15819868035973866,-0.2265195583957428,-0.24091093206071873,-0.22377227208194897
-0.533881510485328,-0.6361991420679749,-0.5066514539562575,-0.5603645900441346,-0.1488213810335613,-0.22847273277082375,-0.24585960108660715,-0.23098941591750966
-0.5409317253231858,-0.6396921421057972,-0.4923773095764547,-0.5580112451658329,-0.1471090039155053,-0.22398531587515694,-0.23848354011887085,-0.23831210434216848
-0.536614350133765,-0.6363433641283803,-0.47710737654947216,-0.5618710994923992,-0.1471824139916846,-0.2231157915489991,-0.2311018650938703,-0.24664425957201988
-0.5319285554105281,-0.6181830947162835,-0.4994367252527647,-0.5633758153139565,-0.14858511708799255,-0.21958439977242833,-0.24024773385286347,-0.25634795685892364
-0.5489235145415329,-0.6343872638274688,-0.5053558623746408,-0.564813087858262,-0.14444878179057494,-0.22609437294943593,-0.23876634203370026,-0.23673399853928864
-0.532151203943315,-0.626395336976963,-0.4936139346300564,-0.5551744227425585,-0.1503506122613269,-0.23494116416440802,-0.23078478713233538,-0.2497153944185445
-0.5266809976456768,-0.5995499536882793,-0.4977731711186859,-0.5459272180699074,-0.1379554367801793,-0.2246862240282737,-0.23815182221141273,-0.24039976418832978
-0.5255973465384333,-0.6216585144833143,-0.4851710770470201,-0.5685364894419193,-0.15967855212133703,-0.22808209806776236,-0.2356751080736408,-0.24544759404460506
-0.5308053467810226,-0.6254770019522696,-0.497357178512449,-0.5512106810769687,-0.16361839333658107,-0.22557800946734052,-0.2454998828336906,-0.24774666224421082
-0.5376877810504309,-0.6339063251428327,-0.5125705045201135,-0.5587986291097492,-0.14764699412730506,-0.2430239775268275,-0.24657286082373572,-0.25619685379432244
-0.524536199969237,-0.6200386082456488,-0.48972184489036696,-0.5483024216053668,-0.15411471302373195,-0.22536388070839572,-0.2278460748579904,-0.25771108372543955
-0.5282678894978575,-0.6260766356924202,-0.5098237894885433,-0.5482625812808795,-0.15219906420766965,-0.22883741891878984,-0.24174622316896133,-0.2553858077000642
-0.5274413640455451,-0.6214779518215305,-0.49089003794768044,-0.5637892497016671,-0.16401943077975356,-0.23234672074658133,-0.2413455240873601,-0.25455800281619595
-0.5314048099974985,-0.6185316905621759,-0.5041626748054191,-0.5570234568363891,-0.1624786681407925,-0.2338897828064622,-0.23973869001993645,-0.26506454197668256
-0.5298461880355887,-0.6092752824087687,-0.47377201384876977,-0.5405029133760288,-0.15805188863002573,-0.22375203301821625,-0.24474408082989843,-0.2572450020508424
-0.5315109498632915,-0.617601661019227,-0.4989354364423735,-0.5454546343731767,-0.15509905958545728,-0.22442854295308806,-0.23923503892063014,-0.24926073127172588
-0.5299574142020427,-0.6172856159327957,-0.5008355788718701,-0.5536333437017729,-0.1513912265137074,-0.23132007202477214,-0.2609573125745634,-0.24949232383392259
-0.5311711180910502,-0.6268837251706946,-0.4969745256119134,-0.5577979581429602,-0.15396556806988052,-0.23950720295195274,-0.25046103390204444,-0.26393831522358285
-0.5348484946503627,-0.6218223671877022,-0.4960288871975285,-0.5486433486878531,-0.15889724187176388,-0.23821735421037854,-0.25789893405958253,-0.25451923137316573
-0.5231796290436412,-0.6094709791269344,-0.50519411694472,-0.5540693949378488,-0.16111287415178757,-0.24560535996813643,-0.24900648847341253,-0.25083415055573716
-0.5277909160785836,-0.6240966242774303,-0.5069880463367293,-0.5555337411834246,-0.15630155730707257,-0.24780004189534674,-0.26118936105694895,-0.2401034572793587
-0.5269722115753639,-0.6244686850394814,-0.49306341492051625,-0.5707123873193207,-0.1550535366709002,-0.23807411520330396,-0.2554958565039469,-0.26253639838837334
-0.5259430732375255,-0.6059855512218288,-0.49775411760429406,-0.5562984767241872,-0.15219859038007794,-0.24858776538607716,-0.2663932329679913,-0.2573074809279905
-0.5257753117530574,-0.6279333013424362,-0.48689710460254915,-0.5445038399348026,-0.15709097888572388,-0.25011864006125356,-0.2622985255680836,-0.25901044418215036
-0.5274019648932288,-0.6125120359436507,-0.5067954056049067,-0.5596095319713639,-0.15073079169475165,-0.24286658251109366,-0.2679870371977341,-0.2607772244346454
-0.52471164235964,-0.6254765282860362,-0.5025921265947492,-0.5464467044127823,-0.15724998931255732,-0.26457871791478765,-0.26358083548398753,-0.26932570461047833
-0.5177256710065158,-0.6139160039625112,-0.4907780230015661,-0.5470425717176453,-0.1546930290824352,-0.24840977692125943,-0.2690257671283753,-0.2614984344213796
-0.52831439843276,-0.6062022481966526,-0.4846712187585304,-0.5547509470872264,-0.1530465873266547,-0.24345136447035642,-0.26651088927419675,-0.26158404306094357
-0.5240863106736277,-0.6208893901029945,-0.48063638141743975,-0.5499275207417823,-0.1505017053401729,-0.250937935369194,-0.27327298103385744,-0.2481495641334193
-0.5264162233951154,-0.634699015902405,-0.49247841580641905,-0.5569916465664934,-0.16243982900803552,-0.2544118105981533,-0.25607626629941876,-0.2550383891755778
-0.5276712379860719,-0.6287857532637721,-0.5006372938177239,-0.5478038681349517,-0.15196802021222422,-0.2658635630248279,-0.2655014017724167,-0.2746315570002182
-0.5292652236125942,-0.6286793864641703,-0.48170482970318107,-0.5551588234439453,-0.15827240896669428,-0.24541397223330963,-0.2586625341992202,-0.2607508412144504
-0.531072488637591,-0.6012924535272799,-0.480967716230121,-0.5587910368660183,-0.15338446406307538,-0.24467427583947102,-0.2672045628591973,-0.2551232512788234
-0.5212371107247573,-0.6300605083344439,-0.48083278733588614,-0.5553680231107113,-0.16534066329114494,-0.2423458167647168,-0.2605485133460207,-0.2554629408820372
-0.5294044792744639,-0.6273602400590657,-0.4905998446370276,-0.5581880947810065,-0.16149676497689536,-0.2506393367493014,-0.2566754151062351,-0.25459844640953344
-0.5318001366751445,-0.6166295132468345,-0.49532854640061286,-0.5549833463241184,-0.146116787169172,-0.23918321381921012,-0.25599008703237486,-0.25201137503660187
-0.5255406623406782,-0.6131960290676297,-0.504005600606162,-0.5514406201088862,-0.1567180327530777,-0.24517286876109282,-0.25966864391264977,-0.2545573775046842
-0.5368780560274798,-0.608093043457166,-0.50078194853229,-0.5604205685232125,-0.15674045204755999,-0.2413980938349142,-0.25293073153225254,-0.24845335528113976
-0.5428774147168891,-0.6169651483847809,-0.474701467436741,-0.5498652141229782,-0.15296790158453177,-0.24578447899502986,-0.25170286210705634,-0.27043707280101903
-0.5449944437160588,-0.611366604188246,-0.49823522672315745,-0.5573492646867014,-0.15450662930453526,-0.2367722869568849,-0.25211312966876903,-0.2727966174123251
-0.5470053652002712,-0.6285133511028146,-0.4778027948566299,-0.542202411328926,-0.15450131309815343,-0.24462094800288076,-0.24248689445553706,-0.2664759001511183
-0.5519121458491254,-0.6167994172684245,-0.48743621842546075,-0.5526410220599496,-0.15076145277745862,-0.2379575800796808,-0.23975069895455003,-0.26083453860837463
-0.5451816527437678,-0.6255662572698582,-0.49441041525421947,-0.5452890948109046,-0.15477209203283232,-0.2411293359469576,-0.23402629650398654,-0.2689188738676349
-0.5446057637420904,-0.6326638261388751,-0.5023379974331346,-0.5479628811654279,-0.16104026188324475,-0.23135686251093684,-0.260531125058115,-0.2705257008384605
-0.5471239422096866,-0.6179457457957193,-0.4857509207127141,-0.545821708375023,-0.1496495800310407,-0.23271028722200404,-0.24446601736816617,-0.25987836316859725
-0.5486587712756805,-0.6238523831355628,-0.4894621209748135,-0.5482481661251195,-0.14443672838288754,-0.23998036593406022,-0.23283611073786362,-0.25388986561048865
-0.5495064231574331,-0.6272460617546759,-0.5083785574489591,-0.5553288467276087,-0.14986006021575288,-0.23364062800086915,-0.2362973052628198,-0.2515713253434995
-0.5684239888208729,-0.6354298234640409,-0.5270410694231916,-0.5590194497711811,-0.14028295954991815,-0.22238922780936093,-0.22625124962664284,-0.29111428778743653
-0.5672396802537617,-0.6039051687956282,-0.5324892916009066,-0.552970695216884,-0.14132091305154273,-0.23020785299880628,-0.20515157558999986,-0.2731412350941397
-0.5576015692936664,-0.5996400183240888,-0.5302039026173013,-0.5592502418491341,-0.13813145525296225,-0.21185361143271128,-0.211929906113822,-0.2715517560899859
-0.5659414791949052,-0.5801984712247382,-0.5316396876022925,-0.5633084030242711,-0.14259840944216434,-0.21620138285850907,-0.20765249608693492,-0.28188427651215864
-0.5640802161195554,-0.5870785292649717,-0.5366792526633641,-0.552466146079014,-0.14020290245621278,-0.21726094444568475,-0.19968605828730238,-0.2864603358040311
-0.5584394926767856,-0.5898771999746922,-0.5460806052414544,-0.5605519897949934,-0.13039251551173367,-0.20392429978352464,-0.19870683493242683,-0.29925879907215347
-0.5597992893556946,-0.5901756862583795,-0.5181534422398978,-0.554062217481841,-0.13586533331368644,-0.19746471008618494,-0.18604920995050683,-0.2891556498862903
-0.559980820272667,-0.5906298444667526,-0.5283154362365061,-0.5621764538547884,-0.1426970739122581,-0.20664483077689166,-0.19198636693630472,-0.28648048377229257
-0.5698966506686971,-0.586328011125697,-0.5432049691775913,-0.5584281959702802,-0.13926458550064272,-0.20528622715125502,-0.19940781936201346,-0.30280678173971837
-0.562255752291002,-0.5934374461807007,-0.5591361089878312,-0.5541081190853924,-0.1405884088246399,-0.20176989683659552,-0.1887611988739661,-0.29116413682439773
-0.5713916967554291,-0.5843041604599419,-0.5588933882658997,-0.5705425224251797,-0.1422573191886139,-0.2001736397960973,-0.18906358721882965,-0.2932075663505996
-0.5720087349007045,-0.579815317433193,-0.5425686261793505,-0.5635087731864545,-0.14460518672113207,-0.19362016310264657,-0.16505210980023244,-0.29576581560092835
-0.5691497180610747,-0.5931045767645071,-0.5625150328823957,-0.5672162858822349,-0.14693407119153973,-0.18992922559829414,-0.17372582999800074,-0.29947348055054596
-0.568821711233755,-0.5983618020190831,-0.551283107719564,-0.5680540520519819,-0.1496407387511849,-0.19659073230120935,-0.174051927052893,-0.30839580624418744
-0.5717134270388387,-0.5879044280642994,-0.5498878239047532,-0.5691720501714885,-0.1415416266581182,-0.19877738382566207,-0.17830230467238134,-0.30679646821226
-0.5741102294200405,-0.5805082672777339,-0.5300264184955369,-0.5637296065661057,-0.14017160207958682,-0.19133023834588123,-0.1620735235839825,-0.2970607311574518
-0.5658118685858056,-0.5964910563537972,-0.5448045838416089,-0.5635591039664463,-0.13575388564661975,-0.19128531180446637,-0.176414123101232,-0.30408931936593686
-0.5763462476143609,-0.6018186764452192,-0.5542039335496115,-0.5845339455284851,-0.13990850393418677,-0.1887610162707884,-0.17860683790259818,-0.3016136916524704
-0.5786777264709752,-0.6123663954625715,-0.5704440750841184,-0.5774719020518618,-0.14769140488496443,-0.18793359292505868,-0.170001553520456,-0.30795643549429697
-0.5714543192089032,-0.6017307942588916,-0.5427614972945929,-0.5723434422571585,-0.13808009955127876,-0.19028088815410166,-0.1731120001895042,-0.2969948856373873
-0.5858187056062679,-0.6150400948517624,-0.5431478672268246,-0.5781913791105958,-0.14321764823052302,-0.18127912161111384,-0.15511503769558158,-0.2881285220413787
-0.5751987871095722,-0.6207666255962782,-0.5542919442106324,-0.580860219297333,-0.1491709627168513,-0.1860819548096467,-0.17962121549473622,-0.2922700082550038
-0.5776600021864375,-0.6482711520968872,-0.5346993687924012,-0.5677250643723926,-0.16010429716567334,-0.1941975759605953,-0.16984503669961043,-0.28042703980710787
-0.5758803157818887,-0.6295395327900943,-0.5338871662852017,-0.5854988563847084,-0.14671818473426315,-0.18735480710049607,-0.16833010025533393,-0.2730779675090398
-0.5849481864089044,-0.6341236827398151,-0.5222779389216119,-0.564952170748527,-0.13793479222515526,-0.19775607274080212,-0.1778940791599794,-0.2624313508115531
-0.5735256237086178,-0.6313404897005498,-0.5208898461217304,-0.5857633537058092,-0.14958302802334797,-0.19251445060677178,-0.16828584247981104,-0.2602170585469253
-0.5774013905270378,-0.647614332078584,-0.5135206370029596,-0.5733160914744128,-0.14941598879890902,-0.1864977756814841,-0.17102112621303284,-0.2623940015596727
-0.5828033334482889,-0.6322949287958193,-0.5300350161216127,-0.5872368369972888,-0.15306270800656152,-0.19053697466154276,-0.1841969708080172,-0.25697730500289234
-0.5749281521547837,-0.6423166382443778,-0.5206744995567052,-0.5883707334720606,-0.15005263323219087,-0.18394193450828908,-0.17853213755067643,-0.25339389674290214
-0.5792718486040485,-0.646175553810032,-0.512883657066339,-0.5891267567091708,-0.1470320068796411,-0.18907910251463492,-0.19203172925063755,-0.24878058384934762
-0.5687319206675471,-0.6393697535497102,-0.536470333356391,-0.5951437183771257,-0.14390064052205065,-0.2027129275844148,-0.17746786443991547,-0.24895215521176567
-0.5787717321319186,-0.6433536863757744,-0.5144784883630936,-0.5827740218682363,-0.15351530324195262,-0.18474117311167498,-0.17497361250869334,-0.2551670507228254
-0.5803331553276372,-0.6496557099925582,-0.5288290173120764,-0.5955488750524202,-0.14182444685674858,-0.191205257428505,-0.18025101498000828,-0.24220733478780382
-0.5794666040060961,-0.6556086392174005,-0.5352665428875678,-0.5844860194895242,-0.1514700168672928,-0.18897289482221705,-0.18719515659444452,-0.23027593698775028
-0.5832491787124818,-0.651890831172082,-0.5355766626161995,-0.6099172211452453,-0.14631313513395414,-0.1868419168815382,-0.19266532375914383,-0.24655167460128644
-0.586145978135213,-0.649359862356944,-0.5465767045135974,-0.5907289789482546,-0.15265422552560876,-0.19720584655219078,-0.18205146386013743,-0.2513555631915267
-0.5793907332580366,-0.6364373977133304,-0.5310411908908971,-0.5897559830600365,-0.1471462462602265,-0.20053639606281037,-0.18471266254700475,-0.23572941755188037
-0.5706125576095266,-0.6428019734345602,-0.511449719704344,-0.5811368932227778,-0.154021828614265,-0.19958085759940797,-0.19347386386328108,-0.23829454595912347
-0.5720369308776803,-0.6358419386474989,-0.5206497638355077,-0.5899714552047358,-0.14860905220401419,-0.21268175052936594,-0.21270439400083263,-0.22642216261673248
-0.5704735071332542,-0.6567626935443165,-0.5085542159068978,-0.5697326259514012,-0.1654315466717119,-0.20466636215571435,-0.23083393615245956,-0.19883601936918108
-0.5730352497843627,-0.6748046817999366,-0.4871580353188708,-0.5727066486697514,-0.1481573776404252,-0.2117111269899841,-0.23083379606944165,-0.22526935063843812
-0.5733622484405151,-0.6392908734783549,-0.4985741961324635,-0.5823856413055198,-0.15519545480951008,-0.20552758247810704,-0.2184125830361859,-0.21905834065272664
-0.5789707733120608,-0.6398163830783111,-0.5066326101396742,-0.5716923154494697,-0.15974574562733931,-0.21112510321493924,-0.19995019814941334,-0.22705844819083015
-0.5821446457090689,-0.643429025421548,-0.5109823989164861,-0.582036184948265,-0.15847883830460793,-0.21323353893682795,-0.2173081431850464,-0.22079852236724953
-0.5877113457543244,-0.6651720311346909,-0.5441436468382791,-0.5910517038577248,-0.15754093339058833,-0.20922646978619458,-0.19890392382996055,-0.23741449732714445
-0.5863141506510049,-0.6492419847287354,-0.5146579412778062,-0.5850008094830734,-0.15867321742481189,-0.19738058933294897,-0.18788266818231875,-0.23105211852594632
-0.5896129816212878,-0.6353973943430383,-0.5319326847651576,-0.5955122125970647,-0.14559728280557982,-0.19477138214687653,-0.18899484848923845,-0.2447972591889295
-0.5960038440724231,-0.6332765922294439,-0.5512305159182991,-0.5975327804008408,-0.14856190601505473,-0.196763915828217,-0.18813296925739076,-0.2518843009574507
-0.5982571567906707,-0.6421251610494147,-0.555079516675915,-0.6050093501708181,-0.1606740793975469,-0.1991797363785896,-0.19861906570180687,-0.2642833991392463
-0.6027751833448917,-0.6345116487694762,-0.592241038772859,-0.6084647632451735,-0.15624399586059,-0.19942224879730866,-0.18636765212150697,-0.27274774771052945
-0.6036305735030907,-0.613204505263647,-0.5774277264197241,-0.5907366713921544,-0.15474316616118033,-0.19413524521676798,-0.180334591943021,-0.2801137911362613
-0.6034009365805465,-0.6028657534665973,-0.5822362799401102,-0.6066573066288483,-0.1501987701699325,-0.19962630112642796,-0.17208245259382787,-0.28900018340062333
-0.6051941985774885,-0.6037750149002663,-0.5962987992466335,-0.6043200153116487,-0.16756889323101426,-0.19753603977722473,-0.19500668136269714,-0.29602776618944054
-0.6067094530528806,-0.6084861307224941,-0.5796218763332657,-0.6104150553233708,-0.14958409508227347,-0.20312263756464366,-0.1909417679538566,-0.304247803801925
-0.6040010607773909,-0.6207013813836739,-0.5948931947139987,-0.6155052026805926,-0.14746290766409575,-0.19941653764704642,-0.19147723448348397,-0.2991604224683597
-0.6075550980986774,-0.6139247169477263,-0.5843703907075726,-0.6066665898278373,-0.14814775985989398,-0.21126048817773108,-0.18775147549231888,-0.3033232202677167
-0.6171448150926446,-0.6070955386784379,-0.5822601294811023,-0.6152925292182178,-0.15901922803109478,-0.21293285071022006,-0.19003742959339542,-0.28885658534746206
-0.6159029945761696,-0.6079965637663209,-0.5994738970661956,-0.6239950800550028,-0.1544903022235566,-0.2074241105088246,-0.1976699640207066,-0.3119719881657281
-0.6182521332778773,-0.619709782383451,-0.5872636983847921,-0.6209758481772576,-0.16196496539497654,-0.21570250895867896,-0.17651978177550073,-0.31211743208924025
-0.6199371366136887,-0.6094526961840582,-0.594242843521581,-0.6181801853051236,-0.17258677046396687,-0.21221230297329557,-0.1882391287134943,-0.3150470919626086
-0.6247749679552769,-0.6251413841839355,-0.5774252991998167,-0.6097531213885452,-0.16062688026198424,-0.20374688741949304,-0.18815772755194257,-0.31819584595419775
-0.6131638150555038,-0.6231984267458989,-0.6059896938633208,-0.6213148326716776,-0.16247986511837226,-0.21033313754177307,-0.19100341177776947,-0.3054958641893583
-0.6149853228246885,-0.6228194636919221,-0.5994615755911556,-0.6214106452815454,-0.151919067641566,-0.2230297777391331,-0.18770837595568252,-0.3084663721404688
-0.6096400279482425,-0.6171800053569291,-0.5913214946071311,-0.6239257491785071,-0.16744671963839713,-0.22393346622493032,-0.20112987946975902,-0.30786476722995737
-0.609701136088983,-0.6273419586600884,-0.5754531126367199,-0.6137216550351141,-0.1664810498295029,-0.21512935895800137,-0.1885591547142962,-0.3173355791374661
-0.6075181859475657,-0.6330662735846655,-0.5889742219368116,-0.6132019162678632,-0.16742439888397964,-0.21933736375535504,-0.19384076425656574,-0.29588861293536806
-0.6052012243210774,-0.6131503291983058,-0.5610095997756449,-0.6028434525130243,-0.1637876794180373,-0.21139693680956412,-0.18626856713062573,-0.3030754832592742
-0.5881400923710799,-0.5894808136504999,-0.5653757123237617,-0.585429803624108,-0.1687452244011318,-0.21168167410332722,-0.19487874833217825,-0.3054003465549913
-0.578172962016758,-0.5709240201094099,-0.5521296077533615,-0.5616709657175,-0.16768372124935377,-0.2148521524236657,-0.1936722622305257,-0.32209971494918954
-0.558412460626529,-0.522694060220821,-0.5471036416850793,-0.5837830112250689,-0.15499875719336098,-0.21480815376838747,-0.1794084598324705,-0.3169126170039262
-0.584328365048536,-0.571414564807247,-0.5801581140229245,-0.6009399719361813,-0.1643937911966748,-0.21090457095826518,-0.1927229746020286,-0.3365209462476345
-0.6073918972682265,-0.5947213803485906,-0.6006441527910352,-0.6118895754376746,-0.1635354340550033,-0.2143539887297336,-0.1899389763816863,-0.323469863663357
-0.6057002489538734,-0.5966411988863356,-0.5937766439737865,-0.618773890501672,-0.15494806036571754,-0.21499911516222892,-0.1979621127778673,-0.3186662009403521
-0.6140018756180684,-0.5991879216204523,-0.6053565252315306,-0.6160131446148768,-0.17484618682598213,-0.21181950462871402,-0.18113554420233588,-0.32674499434480736
-0.6230668311013263,-0.5989090049334468,-0.6236950317373905,-0.6284141694614984,-0.167869718592699,-0.21226975097816794,-0.18705085491386705,-0.3192946365073565
-0.6204555046303233,-0.6064472684585455,-0.5986832228125794,-0.6371119467129284,-0.16018440615423152,-0.2119043324258749,-0.19486467579318667,-0.31150224562964024
-0.6294559195925647,-0.6115351042906342,-0.6101327883420757,-0.6358292861960042,-0.15560658927358634,-0.20587716141684967,-0.17042950876420376,-0.3098074674614866
-0.6265770384685927,-0.615615986549187,-0.613637440838464,-0.6384735411020154,-0.15376652443908273,-0.20425671609947063,-0.1896613223145796,-0.3269717764061436
-0.6231938101723313,-0.5952388814020813,-0.6056219131510214,-0.6363345246526266,-0.1526729576060675,-0.19001323274213716,-0.16578776804113463,-0.3133664008937924
-0.6225910878233228,-0.5998448209805803,-0.5955411886464047,-0.6170305635435851,-0.1579153170235633,-0.2029303862634688,-0.19371336321313562,-0.3150162712783534
-0.6224442667005767,-0.612037535689006,-0.5969408112157857,-0.6260785706438556,-0.14821062802642349,-0.20900923204646601,-0.18669395907847022,-0.30641774710865427
-0.6198603010742847,-0.6148138974480016,-0.6027005819088552,-0.6184567186054537,-0.15622602055981494,-0.20948919096619925,-0.19298380646965047,-0.3066521785375683
-0.6172147606924326,-0.6136548332390674,-0.602821107458985,-0.6092649539896368,-0.1482443338002937,-0.2124873900046319,-0.1706319680614676,-0.30303129284713204
-0.6144783468998255,-0.6053396143332843,-0.5970486931005669,-0.612656321819758,-0.15526566344650974,-0.1976363733592945,-0.1650673767306257,-0.2992101671752241
-0.6187684473204209,-0.6034406841383565,-0.5905033585960129,-0.6184752676595608,-0.1509441873082043,-0.1954744286035098,-0.1686796642987774,-0.2900354398956947
-0.6127988783631932,-0.6072250771970135,-0.6161266065427597,-0.6251746380629208,-0.155671288297848,-0.19612777289913408,-0.16712967209065546,-0.2854797697469894
-0.6187403550570545,-0.5879224516031505,-0.590872304157219,-0.6160237127901959,-0.1534703681134276,-0.1940674291120282,-0.1669252653899861,-0.2988903392394482
-0.6116035818267983,-0.5930770552600205,-0.5981838446968676,-0.610996553485622,-0.15546969873396144,-0.19651899872732598,-0.16674601573864356,-0.3051146368240822
-0.5886806707042495,-0.543558153165266,-0.5595185706999506,-0.5915682526545386,-0.1502777763830968,-0.1927759391660532,-0.16342126128860407,-0.30793169022811745
-0.5580348644118778,-0.49435159120564026,-0.5572104477691469,-0.5526273600879251,-0.14497166029445446,-0.19664788922854887,-0.1729300861491817,-0.30066183123423346
-0.5646422493427368,-0.4965960189788262,-0.5605214783169151,-0.5729480261141349,-0.1595834490123292,-0.2059926243335601,-0.16118453664718502,-0.3063588676034396
-0.6003865525777948,-0.5746661532684614,-0.6115138518138243,-0.6238430676534986,-0.1565106633259233,-0.20637843368229655,-0.17620190996768526,-0.3162166969107426
-0.6100824021474603,-0.5692002797622121,-0.5949165890769047,-0.6224598710070857,-0.1504805903663336,-0.2189481639120932,-0.1765322126931916,-0.32848432786281206
-0.6170774500425248,-0.5566976344918464,-0.6323853636911448,-0.6295873185558553,-0.14948652731293977,-0.20933006231518075,-0.17818154928991162,-0.3109554964002504
-0.610903069020748,-0.5665067580269206,-0.6266114356155591,-0.6475166176966224,-0.166250314799849,-0.20969243204749877,-0.1722003338396549,-0.30978999635940346
-0.6142346992972825,-0.5744297490830323,-0.623836220194191,-0.6510810782951634,-0.1644845394685168,-0.21029546735166257,-0.19553402588914767,-0.29886566012656385
-0.6220187106072494,-0.5838778174847388,-0.6173188202721283,-0.6507333343128364,-0.17261065104239245,-0.22566473039452029,-0.19452329630679305,-0.32059545593951416
-0.6162480166235621,-0.5981352685095789,-0.607972170292116,-0.6381885889781996,-0.18119593632951445,-0.23390375099715624,-0.20974829569493036,-0.3155080509900412
-0.6117534549802534,-0.6283814866318145,-0.5747269653017414,-0.6294378198719,-0.18504598076930154,-0.23672072256577617,-0.23192965033567356,-0.2912057943330868
-0.6209556621955834,-0.6650834170313374,-0.5797166364905525,-0.6468840782101942,-0.1900748656574022,-0.2516674975675035,-0.23910302869200661,-0.28779764307066197
-0.6152278610110614,-0.6951214135149757,-0.5780833792207702,-0.6464744505702273,-0.1827215079825533,-0.23658361687021467,-0.24076185753972987,-0.273536245863386
-0.6124012725117657,-0.7195909196698789,-0.5556772476124674,-0.6476424909863056,-0.19230460210141823,-0.2575236508796443,-0.26576068610070935,-0.26161896712799126
-0.6091010342211426,-0.7455024290582345,-0.5451091656285241,-0.6499604151542575,-0.18670280972328598,-0.2651568128289682,-0.26905173130412396,-0.24477213587362057
-0.6260794288949829,-0.759287510327573,-0.5492152731525284,-0.6497421457804021,-0.19577668253285588,-0.27137101371932776,-0.27814382890899,-0.25572288547873107
-0.6136051428310977,-0.7997808673322667,-0.5299799498853062,-0.653490370308089,-0.20152185036016174,-0.268034242418882,-0.3028427297930948,-0.21589084444079104
-0.6211096447390986,-0.8058132809863104,-0.5226721191038779,-0.6482521578407251,-0.2092987180749093,-0.2806635967367753,-0.288557567659551,-0.23785066303635946
-0.6112389294648328,-0.8119207831938313,-0.500665577982578,-0.6302702459752273,-0.21399035054078713,-0.29346197558901715,-0.31586543406702366,-0.21941696140573774
-0.6119470604511585,-0.8212800074748324,-0.5019100925135141,-0.6251599642585424,-0.21942603507987726,-0.29022051041567004,-0.3279886569082107,-0.21645521538054122
-0.6193668590458746,-0.7984187315231209,-0.5162358576698934,-0.6283802350330179,-0.22160778140567133,-0.29515955667771104,-0.32774583826710196,-0.19834268637400126
-0.6341543585553292,-0.7683812916521657,-0.5447147320462055,-0.6576879119898162,-0.20815652968667817,-0.28542267473959043,-0.32308570021290717,-0.202162407521348
-0.6243875010136988,-0.7328816153108059,-0.5599811490214633,-0.6286165489417338,-0.20359318198911797,-0.27323250176458747,-0.31748698550237936,-0.2042860307113607
-0.6164991338968691,-0.6755064651239802,-0.52470172353611,-0.6261382882531095,-0.2096719209763645,-0.2691184561064006,-0.30848320979944266,-0.2037546079628387
