0.07941349843347198,-0.2341815159071747,0.0158805528098048,0.07555014748405159,-0.04492848951377795,0.001990603620371484,0.037714868675204516,-0.026807767607353775
0.007367291347284942,-0.23914860336454236,-0.04996120422493533,-0.003650349859914498,-0.08271034156753947,-0.086104358290381,-0.05500511873316645,-0.17083219469430544
-0.062135971515143815,-0.2549368199536107,-0.09834437948105168,-0.05860383668986706,-0.13575446970912133,-0.1293369685366549,-0.14836929561946482,-0.25046917615582964
0.059842261234795094,-0.10453982814647429,0.05854482644465213,0.13054992571993382,-0.1216014071902389,-0.05927318292394711,-0.0603577553225028,-0.22041999517831395
0.0366089830679308,-0.12336297540582819,0.012080262109639764,0.07989722629241755,-0.09489848832463896,-0.05445082142445418,-0.024477184482469688,-0.13943198985648156
-0.014428305616196985,-0.188239405974308,-0.03210582432730795,0.016903240831426913,-0.11787166095870052,-0.04598180283923313,-0.06376667184078616,-0.22450462668556476
-0.08491833606259377,-0.1908134410100128,-0.11170568963666998,-0.07959371028262359,-0.13531702253700922,-0.11892232008493547,-0.12293275266133996,-0.2609223838253074
-0.09292271300442806,-0.21453838650137258,-0.12551177576963218,-0.08856497235239029,-0.15310465992706265,-0.12339637383718546,-0.12524597840532659,-0.17195504307861964
-0.013533070541297043,-0.1832845423623016,-0.02413079650861155,0.02305346325939117,-0.09652262759699805,-0.0390498545086469,-0.0158295108491113,-0.1622932936020271
-0.049338152279785205,-0.19889143533553313,-0.07282800292415231,-0.027958242149172585,-0.09194922286269967,-0.06028476768617157,-0.025638961701126617,-0.16120238158248557
-0.0893306982957531,-0.24728915047129865,-0.1217575297000063,-0.08484164049654279,-0.10545388618801277,-0.0697754341447299,-0.05412291192647467,-0.20551337378142437
-0.15857120511852849,-0.3184578753164875,-0.21652989387315968,-0.1652750912813833,-0.16304065751471122,-0.15014767349132532,-0.14729090822905988,-0.2290932961232084
-0.14422453804187835,-0.27277496466296147,-0.18438806153115722,-0.16884646535339493,-0.16676606433032004,-0.1458767572001773,-0.15911154646941786,-0.25270493212037465
-0.044520680793958364,-0.20228945860744502,-0.08783239456453948,-0.027543279378206748,-0.11463145683663765,-0.038777743244209115,-0.019020212503443518,-0.14893773743127545
-0.08121318969494302,-0.25991639426824853,-0.11425939888846817,-0.07888255697077672,-0.10950823390811572,-0.09279738667353718,-0.054939011897027074,-0.16105419731586149
-0.1657511892485768,-0.3054384370300482,-0.19402266614940522,-0.14196143353792096,-0.17673570064219607,-0.1452586990750977,-0.12648432136162943,-0.2255263428321994
-0.21232906648002733,-0.36432705782227287,-0.2705900844007231,-0.21527421061884672,-0.17323221722704396,-0.15769439209758265,-0.1633605783209383,-0.1881060414229757
-0.12657967088021094,-0.2967256748191627,-0.16182976444286198,-0.12791567893041333,-0.13364566824802618,-0.10765681882106495,-0.08822661824541077,-0.14054845198364124
-0.037541278888447965,-0.25381271442188835,-0.09793639420205177,-0.04970727602461275,-0.10572737673419022,-0.056476520564479896,-0.025471033662558012,-0.16893488621585978
-0.08519133790006017,-0.27049166187969664,-0.11687228609516308,-0.07038000640993072,-0.12941297821938436,-0.09217670521297655,-0.06034606762299907,-0.22006246572099653
-0.1775148088596959,-0.29201854788070075,-0.20112733271717215,-0.17042415178182296,-0.1471654424503465,-0.10930473704512697,-0.11668427534375235,-0.2173553103349782
-0.260769786641448,-0.3379968130800469,-0.3024009531359657,-0.2774297050642054,-0.1701295337936488,-0.15220843158020553,-0.1514278980539005,-0.21009689037960644
-0.16110163204778294,-0.25926771604186066,-0.19416435444398683,-0.1918106693210646,-0.09962073881202588,-0.04319847914225615,-0.023838411987974067,-0.15582395186311934
-0.15846634466798473,-0.44340502209261934,-0.18937026334341245,-0.16553156908462902,-0.01128741385141549,0.04834085142496715,0.09184514724321885,0.04443198379956126
-0.18504006374892149,-0.551745977650689,-0.2666762867840149,-0.25106338434832987,0.07290102675521602,0.1321417980121814,0.1837404571198291,0.23963654428231076
-0.23726816881032678,-0.822487993193572,-0.3425035681684042,-0.3384858836735027,0.1085227656083047,0.14157491427824215,0.17055671499874958,0.4732272880286037
-0.28903290785836755,-0.8855145699376423,-0.41521052393707125,-0.3926560554094353,0.019403931225998303,0.058032448647978546,0.08276778726166137,0.4399987183799716
-0.216455478637993,-0.7193513116884543,-0.3092299552635356,-0.23567160855074493,-0.017609187237978698,0.025132599684847795,0.08349363337791825,0.3586585574603864
-0.21127267302429759,-0.7282222166810806,-0.3048750801468764,-0.19134684215836995,-0.03404815282654859,0.017160062301930817,0.04483410105112784,0.19970074698030787
-0.2922248927012413,-0.6768222164300991,-0.3314153871892352,-0.24985148731433016,-0.09291911248708698,-0.05032257710253539,-0.012850077970632937,0.1651560199420478
-0.38530459814302664,-0.6986284829981543,-0.4174600281947571,-0.3442608278593884,-0.1367804543847563,-0.08977961830963041,-0.09037988193309977,0.10316256551136879
-0.4326077735340593,-0.6975366741070275,-0.5108800304234746,-0.4218544587019027,-0.14147485081384356,-0.154969767520634,-0.1525024567837571,0.08047882896865638
-0.355965478948923,-0.6403022332728241,-0.3929482516430819,-0.3036938294802221,-0.10919854159916956,-0.09237915883009998,-0.06757260527569309,0.1342244580605133
-0.3265904462876979,-0.6085198965294101,-0.36971848262719204,-0.2596172024912567,-0.08776084121417824,-0.018912706281645847,0.004692572144950807,0.14781039786481148
-0.3409492249190804,-0.6391756182481355,-0.3759067393296047,-0.30757573646271963,-0.09790769860735948,-0.0217340018763941,-0.016013972723736572,0.18763308269287665
-0.3964839157436626,-0.7193798442801402,-0.45814139374286783,-0.3864350352294674,-0.11733784512411088,-0.06954188257203553,-0.06850579408162563,0.150165273656694
-0.46033644151323416,-0.6930069149006212,-0.5472555530712864,-0.45165034627321554,-0.14687723894851062,-0.14293090238704445,-0.11916402025101516,0.13074190279474593
-0.38641334346550893,-0.6737941152723201,-0.4379980802713075,-0.33557089858487604,-0.11113098309982526,-0.05691070621527366,-0.03828389564356072,0.15850765158963206
-0.3327118925075712,-0.5655916185149082,-0.3800459557841678,-0.29292223768420755,-0.08396481110631306,-0.0055430735612514576,0.013179359577940614,0.2130470235906438
-0.3528386169857592,-0.6000795984150437,-0.39253991850596137,-0.30073033628958434,-0.08999512464507108,0.013266888276172006,0.009870102873096004,0.2325176277158957
-0.4029483740127787,-0.6544231400950203,-0.4674051389442881,-0.36998086341996306,-0.07796612712202955,-0.06771451506498521,-0.033343838822617614,0.21159466486380957
-0.44344180714393044,-0.7054730551411507,-0.5441517967327334,-0.47537502298774126,-0.14871191476182405,-0.10093235954261442,-0.10752185374887496,0.16800313701491726
-0.3995207171000274,-0.6689989838606042,-0.4630628589412076,-0.37503979005985716,-0.12098864958474573,-0.08586229458536854,-0.06408031044677942,0.17241477231109045
-0.33768816342730096,-0.6671033138322605,-0.3749219029512427,-0.3002584734757651,-0.06578665358443242,-0.018421183346850376,0.008778049761544018,0.22090086208430687
-0.37552698511813176,-0.6594609463429895,-0.43101225123629244,-0.3539670070826401,-0.07416193166315901,-0.005170958171282519,0.008918474307677393,0.1731930729540759
-0.4175997289565782,-0.7209388666709611,-0.4799389146006554,-0.4195991793363009,-0.10310915259877387,-0.04946212077184071,-0.04949985450320127,0.19683990714978514
-0.4939417568619653,-0.7617837476848495,-0.5782025800922992,-0.5051164010950817,-0.16366421221221383,-0.11949171432571537,-0.13749337097041647,0.144580945951685
-0.43706473346533387,-0.7340930896099572,-0.5169893258328753,-0.4406751323306571,-0.15168981845197627,-0.12265348791225641,-0.08287793240076707,0.11755476990109431
-0.3637952708370553,-0.6650210086840134,-0.4365256265732842,-0.35516170687315396,-0.11199742758592685,-0.027862840048356013,-0.0076723102294624645,0.15904318687791283
-0.41178349893391886,-0.6816856333868192,-0.462584873217162,-0.3805913101165974,-0.11177868636843387,-0.06589225584271635,-0.03698662239434284,0.17067152756249307
-0.4476734783596854,-0.716689120910993,-0.5231970646726064,-0.4420018892310766,-0.13703171324260177,-0.0870377929942507,-0.09285958721088824,0.16553164755742075
-0.49472820868864004,-0.755085617438743,-0.5743921512924555,-0.5283314036498661,-0.15968028547839713,-0.13569128577374795,-0.14832399109795813,0.15332394999918308
-0.44386109511863125,-0.7037291140763836,-0.522697046468404,-0.4119208162266933,-0.16910335346219887,-0.12303664851973248,-0.10888680181727972,0.15097953341363637
-0.4009074746027524,-0.6790282850598813,-0.45811059305390905,-0.37165366366752894,-0.1286124620996542,-0.04965731823292975,-0.03701787931309452,0.19510494416484078
-0.41818606748352827,-0.6854075194415893,-0.4850306218594407,-0.40210415906311503,-0.09698865167879127,-0.06623675804628401,-0.04685522986384978,0.2298235464808557
-0.4679391633601343,-0.665035086369852,-0.5535812424009494,-0.45613900334543933,-0.16064488195695542,-0.11274492621143956,-0.09651529482119242,0.15158452699026392
-0.5292236571622129,-0.7502239940218606,-0.6350054136905157,-0.5608925332911954,-0.14376153021006446,-0.16747032571376996,-0.17044302062598735,0.18837777688676244
-0.47329896373736435,-0.7634421972356714,-0.5386625311770147,-0.46137890101765877,-0.17174381464830568,-0.12918075351015204,-0.1120969769675831,0.1922590917469438
-0.40673693275459255,-0.706915300915385,-0.4528942409689386,-0.37758699904408227,-0.1147762318163817,-0.05889566811395959,-0.04144380781962754,0.14749936830534943
-0.4286172343087914,-0.7337013328020656,-0.479679660440435,-0.39305060921219176,-0.12426243864080841,-0.07553574762145802,-0.047256518754229676,0.2103062134025646
-0.48905467979167605,-0.7751844998272528,-0.5516028241868757,-0.48378852732747135,-0.17355346823185058,-0.12177849733573874,-0.11928421713683579,0.15035199163132362
-0.549980594419491,-0.8036551304827793,-0.630700554252166,-0.5560856000751849,-0.18100270158077741,-0.1551311593192382,-0.17957485556180536,0.12410332828247023
-0.5112080946400008,-0.8193102352365103,-0.5537993219726052,-0.47220023503425756,-0.19071148189481063,-0.13830732912179539,-0.13660668514130409,0.09775162309821259
-0.47358246315758623,-0.8097739666180361,-0.4971299586520481,-0.38994222303881837,-0.1499678148014214,-0.09276618065613874,-0.0541372454900293,0.13560433279849052
-0.4817748407408129,-0.8032458763003405,-0.5226077511482814,-0.42393916801628695,-0.13248506497180712,-0.10641180579638743,-0.0860735431477436,0.1708620466162887
-0.5385570506744565,-0.8406502680558723,-0.5718573161811985,-0.4937912766045184,-0.16252931287070252,-0.1141394420376935,-0.1326438025321808,0.09687243054209749
-0.6221623092657458,-0.8755453433784581,-0.6618922198864444,-0.5829756903743326,-0.20329753453977295,-0.1742607676095333,-0.1932723451814553,0.08855349733251511
-0.5864469669512657,-0.8372674716871382,-0.6149707982800787,-0.5491216225596303,-0.20272136465651025,-0.19398525753082668,-0.19923662752393226,0.09438522522192616
-0.5053823895250753,-0.7757066524854137,-0.5308782878362489,-0.44572030746076086,-0.14250545564289918,-0.09784427957241595,-0.06788138447719057,0.16392492904888564
-0.5212543747036502,-0.78832300031524,-0.5262092868284556,-0.4504760364450839,-0.1423335404172947,-0.07790265646559423,-0.08482819623313058,0.15518168640626273
-0.5664886123052592,-0.8345968648648081,-0.5718129111087451,-0.4990959965953665,-0.16558666105938213,-0.1286971490340133,-0.11493024769488454,0.12691748900852784
-0.598366187255294,-0.8842513987237504,-0.6166688621405664,-0.5617112867297587,-0.19593272609695261,-0.20154462739039408,-0.17358321416758135,0.13826600192270036
-0.5759655592155397,-0.8341782280594366,-0.5584650334133929,-0.48961906579525066,-0.15424309580529094,-0.1383602660506575,-0.13046688544455137,0.18691251399984282
-0.49462135086486236,-0.7913863384182377,-0.4976130851746089,-0.4172924818757899,-0.08918845783960619,-0.031912354753382444,-0.013164672203699865,0.26337061045618326
-0.49126282579189445,-0.7897315599216324,-0.5004148961608064,-0.4242615270311578,-0.12695313304725755,-0.0778242179699454,-0.06778261854618775,0.1847679700770545
-0.5288952548679516,-0.7888063460675122,-0.5395450556686496,-0.4603352977118832,-0.18155003248448132,-0.15054935867285985,-0.1515576738015721,0.0876051500360017
-0.5658042576648201,-0.7869997639218245,-0.5951870147883076,-0.5269908566299444,-0.2040511479426496,-0.18008455029153986,-0.1946562806145574,0.06941838374366413
-0.497719331029698,-0.7551797304096635,-0.4983272410835202,-0.3832264902107644,-0.18588930109547314,-0.16259991880414593,-0.14027467634368673,0.08065731689065855
-0.4608305257157051,-0.6587347235769028,-0.4470806406586336,-0.34477780819340553,-0.14582403846057568,-0.08394688984991001,-0.06692720891101392,0.12957599145274237
-0.4633636495695364,-0.7823124180114033,-0.4692996213902882,-0.38367581986266364,-0.13254957070289494,-0.09589537233989207,-0.09947492462421037,0.12038614677678422
-0.5161241216290466,-0.7400316843036182,-0.5254778392950903,-0.43637055623826027,-0.16598500687646828,-0.12731285152298524,-0.1264132487959288,0.1202869206345844
-0.562305843686332,-0.8356650685657461,-0.5830621056975098,-0.5031561441235528,-0.20101623576189748,-0.1840697466361939,-0.19321605148977927,0.06721276332969486
-0.4744593985119407,-0.7674942263607999,-0.4675190041619039,-0.3614907472256851,-0.16002471639763702,-0.10735597254389356,-0.11182255767694761,0.10570640082562532
-0.4647902195731719,-0.7003435699355831,-0.4426371993732282,-0.34355180361822807,-0.12226750954183657,-0.06889151394597808,-0.05199602629763592,0.13404733104641572
-0.4848139768158978,-0.698389353041615,-0.464750194241193,-0.3741202269007896,-0.12409216851905945,-0.05449734214178087,-0.0627410061086905,0.0903134939186199
-0.512024458316515,-0.8089976671693314,-0.5236857730590694,-0.4397230347962729,-0.15407584860212203,-0.11919485069609285,-0.10338247758153388,0.08877889362699257
-0.5919085913046482,-0.8371556726521263,-0.6118961406748893,-0.5209827734477344,-0.19799506717661608,-0.18198122528256344,-0.16712793344311955,0.11526686482054369
-0.5118652255878873,-0.7771073428366009,-0.5179260910789105,-0.39197932612991593,-0.1553581027436387,-0.12316323268845397,-0.11284336045956656,0.07128269131074796
-0.4888437452150098,-0.7409919017336766,-0.4829146917991857,-0.3866275572148516,-0.12675719319449308,-0.09326466800453559,-0.05651866981606504,0.11778490471723829
-0.5311233870409344,-0.7482251443470271,-0.5329068968622814,-0.4110369693518124,-0.1296910952302299,-0.10279972781076657,-0.0899040520525622,0.1362108549805992
-0.5696928365746772,-0.8027448198396421,-0.5701599838395729,-0.5099179096597907,-0.16488659142980208,-0.14724197194620214,-0.1328453959844654,0.09104261673985892
-0.6279826087344906,-0.8657685421421867,-0.6430780691965641,-0.568524600656072,-0.18092042229564495,-0.17037155040742535,-0.16968614202051668,0.11252927560775797
-0.550085063163148,-0.7907605819046919,-0.5375717537043833,-0.4394130925070681,-0.15463146586589674,-0.08166937616480836,-0.08006885294859059,0.13175450168312466
-0.5802421409898112,-0.7930987474264868,-0.5405863862653799,-0.46321658124717435,-0.130680760193063,-0.13697715608170938,-0.08893978480446363,0.1391116221175503
-0.5999726062938586,-0.7780995681567208,-0.5772269998221216,-0.515998397595298,-0.16964359205851784,-0.1540049900847628,-0.1313524246602741,0.12265808907855241
-0.662146593068901,-0.83051831600586,-0.6579861283111018,-0.5913683031795245,-0.18695858892301204,-0.18795456673794478,-0.18972902105109157,0.05714513889059497
-0.6533416092492481,-0.8163599779125573,-0.634480072307533,-0.5610660136299037,-0.19602959169776465,-0.1931907477775213,-0.1987151008748739,0.09285185426562853
-0.5571063655857658,-0.7357101058583346,-0.5251290693872843,-0.4748986233332262,-0.1441420256929741,-0.1219470963973552,-0.07672136391125124,0.13464429873927045
-0.601944093276904,-0.7719822476227172,-0.5594994452042918,-0.4976724088847033,-0.1522837159351517,-0.13936856474774856,-0.09596613557790923,0.14509584490978147
-0.6249211069826817,-0.8312227521348481,-0.6232629473302498,-0.552412977707204,-0.17418782274091285,-0.17486680792256312,-0.1527259818672484,0.09190899005601491
-0.6827802115417678,-0.883601482534565,-0.6842240741218013,-0.6201530515188117,-0.21160714052224344,-0.24239267954800062,-0.21698991287271086,0.06063858197702035
-0.6011774134852865,-0.804394479326394,-0.5521295444058293,-0.4827628641548237,-0.18548198592510234,-0.1725555895488186,-0.09951005555386919,0.07773837193650895
-0.5765080331755637,-0.7925808935651157,-0.5280877675098049,-0.4653044591824481,-0.16115533747916827,-0.12634470031356115,-0.09330837263441585,0.14701817569905457
-0.5807267489354404,-0.8489104578009254,-0.5441943268877057,-0.4873864270919776,-0.14956571516473224,-0.13882319309659424,-0.11436261677573588,0.10466515468283089
-0.6337806652609265,-0.8216432122117763,-0.6235407069642831,-0.5543045999212705,-0.17799618556046953,-0.19935455473282263,-0.15063532377514904,0.0917247810422312
-0.6425641404505422,-0.875392234249935,-0.6124448662929944,-0.5514499334849517,-0.21123981571534556,-0.1902633064163342,-0.15468698552438892,0.09535990598774008
-0.554414094951889,-0.7934647317167701,-0.49218739088052166,-0.4276530354266654,-0.12964425223281897,-0.14507692149763138,-0.06572194340067161,0.1459858356685196
-0.5712372273734707,-0.7884783598070957,-0.53604149262104,-0.4791677607836844,-0.1311771776911348,-0.143704176857858,-0.09973751421951162,0.13871967684865907
-0.6213602598112975,-0.8177530104859532,-0.6013928409917786,-0.5230894211829753,-0.1479712512249614,-0.1787193798024919,-0.16519392217197396,0.08046842232751514
-0.67292884798602,-0.8263085970239509,-0.6833928996030498,-0.6127422656473799,-0.20412275869434382,-0.22617924696785596,-0.20806888462003453,0.09049757242306997
-0.5938798834926132,-0.8164531728329547,-0.5509430961599776,-0.4768037133972009,-0.16610864958448657,-0.15107930892610796,-0.14042208184244334,0.11681801760912436
-0.5965433486204463,-0.801829562643598,-0.5383404673579935,-0.501432927048604,-0.14203509563767006,-0.14990594380097425,-0.09947746794074325,0.11285000958569635
-0.597886254776598,-0.8153260716412213,-0.57423559320865,-0.5131386041015084,-0.14700394448885679,-0.15144314951179452,-0.10949611213196435,0.11506293838656856
-0.656063819980717,-0.8461379174171868,-0.6550237284436895,-0.6041075130318168,-0.18674432701226518,-0.21241323468490164,-0.17677712946782695,0.10755088718099934
-0.634131082872307,-0.8832239972259734,-0.6173290142821587,-0.5647700804643525,-0.18670011630200872,-0.19676128442127766,-0.16510100807594627,0.08940604650584974
-0.5737530746276571,-0.7921186132869964,-0.559433266787606,-0.4918382981690228,-0.1478741702228519,-0.14111225416620818,-0.09759265210652576,0.11912495504605641
-0.6034886761489175,-0.8238739156494415,-0.5866177499972693,-0.5306600472683143,-0.15443152538297839,-0.16372787700536345,-0.09347548235059419,0.11511157556740842
-0.6405118847442867,-0.8575520758759395,-0.6393161004228101,-0.5903456331953615,-0.16492326707670454,-0.19158645485367415,-0.14406213848062135,0.04745000124483684
-0.6808116691102977,-0.8652676429456918,-0.6862783638257537,-0.6459727093798052,-0.20310475133617262,-0.22460992972698013,-0.1974551934930151,0.06945492973877204
-0.5713258831540091,-0.7750227176586177,-0.5448923620413408,-0.4999628941451598,-0.13284906910361002,-0.15877877864327278,-0.0766801308399208,0.1588916574569756
-0.5850711224606973,-0.849411002471883,-0.5582046512083785,-0.5192720559929273,-0.13484379477547379,-0.12077443990731097,-0.09160853582139727,0.14608393471428316
-0.6190462808301223,-0.8267392960447675,-0.6060337368142051,-0.5550775904624909,-0.15198032723313726,-0.16017978103882094,-0.09243040941705026,0.14675193776937065
-0.6721117124615175,-0.893301301222751,-0.69217264077173,-0.6308481753681648,-0.19181175740370915,-0.22573846639915976,-0.17354443626831917,0.0981599687533076
-0.6197764477241269,-0.8502755208133292,-0.6229912298060305,-0.5674365930542495,-0.18136961344161334,-0.20236291442004423,-0.15415886755331626,0.07547005565682435
-0.5799591488553877,-0.7843758928203677,-0.57633115147317,-0.5151205298579271,-0.14901453552877647,-0.1516528242629094,-0.0811583777141632,0.14100938379522288
-0.613432374742783,-0.8407233944210497,-0.6080085030806179,-0.5612581802102998,-0.17132333332709343,-0.14906920803416965,-0.08486911286025599,0.14521617713766138
-0.6500993899398865,-0.8223202144793944,-0.6569653251514407,-0.6220013628428813,-0.18636156903026757,-0.18402850220186354,-0.1421886342100148,0.10292722904675466
-0.7079189158959907,-0.8756983246957948,-0.7140142744273997,-0.6652058994157093,-0.2036288610641207,-0.22244649348703277,-0.19956461119613078,0.07226258450108752
-0.5944430241394256,-0.859269997603392,-0.6096634262764687,-0.5524252205389104,-0.17623060182195072,-0.18577693181520855,-0.14245909103177987,0.0997193622234466
-0.6326623991895264,-0.8401273091848716,-0.6509854832626933,-0.5880379395759063,-0.18449596226677445,-0.1922206474401359,-0.15668572630283958,0.08585435439997463
-0.6704381632137815,-0.8560542695924519,-0.6596776148595295,-0.6448799465174219,-0.19067733371941242,-0.20681868654415073,-0.14108827971091634,0.06480510117331431
-0.7167350366433084,-0.8832463442467406,-0.7343284455798776,-0.7172177031025371,-0.21388762948484658,-0.2690086165204889,-0.2199153840809155,0.05412101597204855
-0.6372327676234498,-0.8749986894248363,-0.6309605167656007,-0.585181622707698,-0.1946231665095463,-0.20677289854422998,-0.16957707435984265,0.0872618392928271
-0.6300636322162265,-0.8470774285003689,-0.6309762326776626,-0.5982727030700332,-0.17152801269604456,-0.1848481073736306,-0.11113663125157137,0.09613102381336477
-0.63607942855577,-0.895896884126081,-0.6561380301972535,-0.6336846187762522,-0.17279746983415462,-0.190559370224062,-0.14383959177788577,0.10502438269243178
-0.6906926398609707,-0.885305346504287,-0.718829838556261,-0.7028580389996084,-0.19250028090502663,-0.22245123249843618,-0.21081283232599968,0.06433537434088174
-0.6660014055305329,-0.8936984345066592,-0.6803052445264657,-0.6469125522133474,-0.21593589192762822,-0.23632277187398945,-0.1722575497073246,0.06100662111026531
-0.5821599635212167,-0.8827414759918206,-0.5732223055674996,-0.5475207769059106,-0.15659443824668606,-0.1495181752771085,-0.08686421127954644,0.12941449736848626
-0.5911318202658662,-0.8091561466227363,-0.5903477424700408,-0.5443314969912407,-0.16217462037767455,-0.16535988298357526,-0.08822286663599489,0.15284063099940634
-0.6071609770033091,-0.8408815782571234,-0.6178400361713622,-0.571311681256038,-0.16847154498566588,-0.162578665186282,-0.1235161638880906,0.08320632929794405
-0.5640427285220966,-0.8116979814968459,-0.5504312055613734,-0.5116846176808418,-0.1764934391223044,-0.22526230472025405,-0.17579203727237092,0.11691472818491355
-0.32233202119612847,-0.6521106389410383,-0.28626246993906757,-0.22549909700033266,-0.1481782552082929,-0.134549035339387,-0.06407578236923347,0.15124544799106762
-0.3865124981803065,-0.719865381679802,-0.33859482144964875,-0.3284483140381822,-0.11442706145801762,-0.1108256413544206,-0.06336676235699182,0.11968439076991991
-0.4417301317109825,-0.794984867276876,-0.4500954100676443,-0.4271542887433841,-0.1353800911805119,-0.12328512741202792,-0.09350853729342826,0.11358918544692301
-0.5735692855682686,-0.8587632578077582,-0.5821433043134228,-0.5890592608632301,-0.16562657179434362,-0.1835544471394105,-0.1497121329610001,0.07493462884662982
-0.5614623043521462,-0.9015415349153711,-0.5648738448065725,-0.538042568206399,-0.1734863941962611,-0.18162880419975405,-0.14123915947861135,0.04825000043164679
-0.5086097388604365,-0.8740073923662465,-0.4772181278120242,-0.4792239291884605,-0.11005959503973096,-0.11226166111361885,-0.045050495251588774,0.09805317733074204
-0.5267573301411524,-0.8612303258656984,-0.5161203754389179,-0.496400241918324,-0.11606304520005363,-0.10862794749116851,-0.045307212311797185,0.1310440990953174
-0.5621119089747578,-0.8492368025095878,-0.5815560664064131,-0.5446360109002542,-0.12660735447154237,-0.14488302120155738,-0.09974612261894711,0.09827832572892917
-0.5906276716729731,-0.9227250086661716,-0.5856009251819358,-0.5845222199311046,-0.16489932096165746,-0.17269450054448648,-0.11920968290860008,0.06340946399170849
-0.5116128590827267,-0.8886047393707321,-0.49311513137602997,-0.4831488461846547,-0.09544113158782883,-0.0988910218983659,-0.022339747503375182,0.11463062567116472
-0.5139988827010934,-0.8642039100206753,-0.5212902143023566,-0.5114584225244517,-0.10260879631677841,-0.12018478026152596,-0.04744592889559522,0.10001043522641095
-0.567283354905585,-0.8859177874510236,-0.5599735687391518,-0.5521615403099943,-0.11574555800830917,-0.13305009466317916,-0.07004845750392394,0.10210145468532272
-0.6132959794348835,-0.93419749108146,-0.6313583356426311,-0.6348695276087986,-0.1483670751073048,-0.18705332944879174,-0.1254696441522013,0.05138238154937888
-0.5490154826628056,-0.9048283350750147,-0.5187897633440314,-0.5015937397160348,-0.10456659555446493,-0.12879243429241966,-0.05083189093570792,0.10028909041863418
-0.5518511181279624,-0.8469013911310207,-0.5477168618787239,-0.527501883623984,-0.10493894178518831,-0.12271193025299823,-0.05477756288245575,0.09473222901444239
-0.57554753957059,-0.9063309707929765,-0.5804938036242616,-0.5816335980592431,-0.11777608806515176,-0.14943541727384257,-0.07980918403018818,0.11021312039206077
-0.6351173265617892,-0.9282487546247636,-0.6734150106599622,-0.6555010376370538,-0.14436891926245193,-0.19535683126553377,-0.14497425261785263,0.08216163216901007
-0.5914953001374323,-0.8945241308574233,-0.5844236562558113,-0.5874396107122328,-0.12229561488325683,-0.17387937121291208,-0.10865975642872652,0.08979649525376371
-0.5796030294792761,-0.8925771579723207,-0.5996439064381264,-0.5706981740984497,-0.11349023512306174,-0.1451810885677716,-0.06944250468287447,0.13322280082385435
-0.595736681050131,-0.9033958481139102,-0.6057979177892537,-0.611910614817613,-0.12998621552078604,-0.18372961604078314,-0.10253749044635904,0.08423356933443785
-0.6474686769648947,-0.9383296546053574,-0.6800353586259266,-0.6813048720561965,-0.14988101764778136,-0.17559936987778563,-0.14754857817899963,0.09739417628052205
-0.6693509944063979,-0.9596483928357158,-0.6844480343043445,-0.6911262208431119,-0.1651864837919203,-0.21965740466615521,-0.15330787246992825,0.08199090376889351
-0.6052101301302085,-0.9311162309478163,-0.6299499601114464,-0.6162786482280165,-0.14590013757614645,-0.15063921801846908,-0.09907130905069693,0.09121146755305379
-0.641294791693408,-0.9135361548874302,-0.6690794321104628,-0.6621970034190052,-0.1397953580358945,-0.19796611863639094,-0.115449417680122,0.03885827683918558
-0.6764721959332997,-1.0101038806845053,-0.7279958958657129,-0.7335755067335463,-0.1807596599293494,-0.20879504581023106,-0.17242816942740435,0.06106147050061905
-0.7375589860014854,-1.0262670554285025,-0.7835822249794202,-0.7969656519032955,-0.2134787686487728,-0.27394518136080176,-0.23997508572997095,0.04413241535503032
-0.6567136658606696,-0.9508208971370394,-0.6786641713783965,-0.6893629190704069,-0.19235673922796948,-0.2240808007856582,-0.15012908189843677,0.02504029642164246
-0.7038895518141943,-0.9984463699781345,-0.7351546683489693,-0.7368375746397955,-0.19657748788778295,-0.23812536626213748,-0.18098771759065177,-0.02310057125011289
-0.7223282512475442,-0.9999891420962627,-0.7855270587186891,-0.7798348431228458,-0.21356122475919587,-0.2851414992575072,-0.23189518410513932,0.0076896151251859
-0.8064800439511446,-1.024424137703487,-0.83196041025133,-0.8512688986070874,-0.2517951714519936,-0.34157391248334623,-0.30481903539150934,-0.02461660676951452
-0.709989197197167,-0.994404718931504,-0.7468025646538835,-0.7222989630964158,-0.21819088264508082,-0.26135514203270827,-0.20176043590238332,0.025556543006999
-0.7322342335845775,-1.0066576739767494,-0.7427649453567094,-0.7488581152096411,-0.22924718024568735,-0.2719624490694999,-0.2192310956600202,0.03144589639424045
-0.7557210379169208,-1.0279874932089803,-0.7729831396145086,-0.7656022997449449,-0.22590607916251954,-0.2761095913725973,-0.23341745902713049,0.03307254188082415
-0.7811867377886452,-1.049443970065116,-0.8262091665002035,-0.8494382482903311,-0.25407511812869477,-0.3415594806476069,-0.30932843258258635,-0.04607764401952688
-0.703243787139812,-0.9308927188242002,-0.7345506748662076,-0.7327319618690995,-0.25558996129189787,-0.3021925766018618,-0.23954018470969357,-0.06196808068644416
-0.6931771424427633,-0.9337161119910669,-0.7302478671321094,-0.7268111427944002,-0.22933417470291062,-0.2734436696738719,-0.23634957958760955,-0.0055488346353606555
-0.7124194785377084,-0.8949575110656627,-0.7285101987743149,-0.7682217745690558,-0.2288522518589691,-0.2831800682297947,-0.25182083923721454,-0.04257128529630039
-0.7535924896642097,-0.9911691935665152,-0.781459373559237,-0.817221923435117,-0.2547902734970484,-0.32931384440284045,-0.3023657827230668,-0.10581499528955751
-0.6696507920635361,-0.8313225734515758,-0.6818018243482182,-0.6825264614058637,-0.2446068407472684,-0.27052184703684473,-0.24709644398142233,-0.09594525980247809
-0.6435057118880241,-0.8241331998605228,-0.6451147061313106,-0.6640825341921062,-0.1991106557532932,-0.2492062279131043,-0.21406979001097118,-0.11881808827184703
-0.6630807866031619,-0.853852722264298,-0.687183638038749,-0.6770319875171915,-0.2228975599229603,-0.25686840696670404,-0.2196216706902254,-0.16941528862119182
-0.7030148766646708,-0.9122051114234966,-0.7029711508130321,-0.7209027960633758,-0.2576281389917795,-0.29154011588344764,-0.2694472377861703,-0.18253840446102254
-0.6181271790790951,-0.7976021286639351,-0.6209875580795166,-0.6140365807776286,-0.22054721920064096,-0.23631481927231407,-0.18023290824069269,-0.17458698719763824
-0.57253156651311,-0.7293186506989765,-0.5861914729673919,-0.5731346575975295,-0.15566703522027123,-0.19309854471953972,-0.13698772515375826,-0.13208568019207106
-0.5904047579979226,-0.803193819687017,-0.5733005697370546,-0.5854632127856647,-0.15644517220819676,-0.18582851502782044,-0.1438566821171643,-0.15645526147641273
-0.6317697212317511,-0.7742154222213105,-0.6388649311325372,-0.6413862788703621,-0.2027497857306872,-0.2134336793304086,-0.1679428156656205,-0.18078335282420768
-0.5818204639407148,-0.7892987897421447,-0.5705833631855166,-0.5636554895331479,-0.16565901133297906,-0.1932132400607885,-0.14454424943262006,-0.18881920663468438
-0.5086298123314692,-0.7234659710063622,-0.4961827805369569,-0.48886436189153876,-0.09943300963599541,-0.09613178828553218,-0.03103358800917716,-0.14141932990775094
-0.5093249946226273,-0.7454301672696024,-0.5022166854814036,-0.4893348461201713,-0.1235129045649317,-0.11399378660319891,-0.08314584877148062,-0.22059400381851113
-0.5432215746300184,-0.7838615655071202,-0.5554378311300467,-0.5261096802008957,-0.1779259703793184,-0.2010977195458746,-0.16473817884729697,-0.29255369803201087
-0.5376145791279733,-0.7395055590165263,-0.5370214998052967,-0.49487121794128885,-0.21178205713839648,-0.2127556845409629,-0.19008177152158817,-0.3538180459136787
-0.4521539808258373,-0.6257008652606706,-0.4166024570927291,-0.3838933554777544,-0.11583545807171293,-0.14425093127593228,-0.07865632010683568,-0.270106121738057
-0.46180361396558434,-0.6686735012356759,-0.46082045768359253,-0.40244736990463,-0.16233987359805752,-0.1260417098276023,-0.08816681469178403,-0.27354533524249774
-0.4801397642707716,-0.6835381399057862,-0.48108698234086006,-0.43056232419351215,-0.14663045681552261,-0.14661680529888463,-0.09608926102120538,-0.25892012528943636
-0.5140735338373658,-0.7327421760224107,-0.5237721648526569,-0.5263477276279083,-0.18692569639048126,-0.18700829105032388,-0.15628234860179818,-0.29993531934770623
-0.5045480223503883,-0.7226790754818604,-0.5033664853323883,-0.4646415446983655,-0.17743972865446028,-0.16334274489055045,-0.1294008206041646,-0.2616102855447566
-0.46329960501799905,-0.7694565108025407,-0.4563713258530984,-0.4003366274108822,-0.1420340303734351,-0.11071024702574866,-0.06729138510184418,-0.24016876680192986
-0.48157129045899566,-0.8103489494466064,-0.49169075886227837,-0.4426893799289361,-0.10040791801335346,-0.11250439199471036,-0.0641767259476515,-0.23337482874081375
-0.519155123264019,-0.8201547277774504,-0.5359033412922347,-0.4772491111756629,-0.12390136524182588,-0.13757938122596547,-0.09460979935649833,-0.2055156575372363
-0.5668589907155694,-0.9095140285088629,-0.595381663409799,-0.5598794147956393,-0.17041608702727631,-0.18670182213727948,-0.13001925685503976,-0.20061720286504742
-0.5255080366179954,-0.8267014997861524,-0.533073982553727,-0.4739178183717809,-0.11427939590432303,-0.14360613426658114,-0.07362368628529284,-0.13551150864552372
-0.5101066595714014,-0.9121261956595824,-0.523322023113698,-0.4705927890197724,-0.09534657430408204,-0.09077291945413676,-0.05358033413615068,-0.09966646022819828
-0.5457420226651567,-0.9014476162531746,-0.5502289669140484,-0.5058251034986554,-0.11432882185754578,-0.12012570712687852,-0.06351527213175981,-0.10808932751802702
-0.5893465999919482,-0.9602299403290631,-0.6056956606694899,-0.5803515658304143,-0.15078623030490512,-0.16460041237064318,-0.12905891102950134,-0.11840611571467698
-0.6234171438808654,-1.054899249435226,-0.6600766767211659,-0.6167528779111626,-0.17092407023530298,-0.21395706854029062,-0.1684927592216072,-0.08923790485331995
-0.5561374275592748,-0.9828711628790061,-0.5662530816798603,-0.5006906800358149,-0.12449400773404454,-0.13860243324475424,-0.060074443093861396,-0.052879347045241526
-0.5443616266277647,-0.967744639421789,-0.5568649988265907,-0.509117749314002,-0.11898837208684607,-0.14095900767462746,-0.07670283345371268,-0.020360620675077684
-0.5862291614505696,-0.9875299213447746,-0.5911405101208662,-0.5589922105116307,-0.1594332127889997,-0.17774503478935214,-0.09271531445842573,-0.05957473859703416
-0.6438438535378497,-1.067640514410116,-0.6536348429382148,-0.6374442029119213,-0.1721348821066533,-0.21253665127709093,-0.198627854078774,-0.054579365303165206
-0.6700655681642248,-1.02404938013675,-0.689265869703033,-0.653070583448871,-0.19993678898214612,-0.26318551836878135,-0.1934302898979895,-0.05895573382050548
-0.6050435696496157,-0.9826165138542575,-0.6070413277624866,-0.5677420351052259,-0.14718086364445468,-0.16086905498267656,-0.09802110837469216,0.008587603204786465
-0.6315124667728033,-1.006598826667773,-0.6486849784425507,-0.6308690437175153,-0.13667769351274045,-0.1808358093042131,-0.13257061493512023,-0.0524822079138787
-0.6586921496554543,-1.0672986956657466,-0.6682981305965792,-0.6743480421584362,-0.16373577115644294,-0.22356774837980095,-0.1562311190200079,-0.08271546334094135
-0.7109009731247666,-1.0803067784066904,-0.755938295471811,-0.7424119718257326,-0.20101734608808827,-0.2811899464942014,-0.2383483207847545,-0.11009525247386512
-0.6930816859588056,-1.030526669786873,-0.6923647822819567,-0.6834098785675279,-0.21510317851677915,-0.27233226024809865,-0.21963277291106537,-0.09958273583875013
-0.6439212767401656,-1.0624027853103784,-0.6589828019629356,-0.627154512726203,-0.1712642268988722,-0.2205171772677487,-0.1649752735047442,-0.08881280585350046
-0.6723502116512563,-1.0583677890107817,-0.6839869161947557,-0.6835549088821093,-0.17163718411482284,-0.25246446318290516,-0.20637956501934476,-0.07921665687953697
-0.7273620506874616,-1.090246504840251,-0.7372812407817458,-0.7555262352468287,-0.22006078146020086,-0.29566135475574556,-0.25877119729626435,-0.09986440788818002
-0.7530487933446615,-1.1324882549577195,-0.8169754046012019,-0.8131784459519789,-0.26096051657487757,-0.3638285493137029,-0.3298355467494854,-0.08670071961358414
-0.6922493668236638,-1.0735038197680888,-0.7132724987257546,-0.7073623691381365,-0.2258826154732947,-0.2812175868253892,-0.24494060160880754,-0.1040211756884104
-0.6861100619494583,-1.0730660293049528,-0.6774594297768708,-0.7109912781902885,-0.21667579882520677,-0.2823197802165012,-0.24234534748714726,-0.06535592911013227
-0.7237070484116007,-1.0768135584826735,-0.7250334928394258,-0.770854559369933,-0.23018362188333447,-0.28892672734112396,-0.26901370684586845,-0.11737220797198075
-0.7652797055846411,-1.1087582539927305,-0.8069602982749684,-0.8268972942736006,-0.263370413468852,-0.33151614519457495,-0.31275842084865474,-0.11468414719483941
-0.7972109550370974,-1.1789796149338538,-0.8240107695007142,-0.8654025437636729,-0.2458848723564649,-0.3673904581057286,-0.3193331076290037,-0.0919524778258188
-0.7222226441321566,-1.113758047839855,-0.7468869948553919,-0.763005694780801,-0.1795997462983737,-0.2583436966769455,-0.21705356479824153,-0.051312942562797115
-0.7578457101243528,-1.1542207225507015,-0.7593816995975278,-0.814065854293688,-0.18740086079483606,-0.26936735057144734,-0.22967664199512772,0.03178434998404084
-0.7887025072037673,-1.1961226698230187,-0.8146512527672372,-0.855706726612242,-0.1945199230720725,-0.27476473159154446,-0.23086346471270333,0.017253196291263484
-0.8407049636884216,-1.2461660563568948,-0.880415221248973,-0.9278871161695282,-0.23087389660292743,-0.31892462281664935,-0.3193801991534693,-0.03787627681704864
-0.7769711133038499,-1.201315265914455,-0.8176441204411644,-0.8540428370602409,-0.2084797099762303,-0.3116238909329138,-0.2527620334477388,-0.0057469611288964995
-0.7583456118828843,-1.2234478547052485,-0.7881977392791764,-0.8246996741774452,-0.20353330383102117,-0.2692926535601747,-0.2046939326959743,0.012037831299740842
-0.799018217824502,-1.1345236497172584,-0.8050585990748087,-0.8489000361239232,-0.19210887732018794,-0.26792258753689396,-0.25502964858896887,0.009456862148195744
-0.8202621631610948,-1.221737634968261,-0.884728014429617,-0.9221205292335267,-0.2335832757176866,-0.3152816706047941,-0.29847758626200105,0.005446199979448951
-0.8362524167141002,-1.2319630252520728,-0.8804897438319412,-0.9298254763133598,-0.2811029022524833,-0.34364758901892933,-0.302574215213902,-0.024406560688694068
-0.7594842871097789,-1.1813992089657908,-0.7767239243569799,-0.821169442372959,-0.1978526300523933,-0.24944038118192985,-0.18323896483303193,0.0087356026392853
-0.7644231557580664,-1.219263889718226,-0.8118190103653495,-0.862524123108048,-0.18974016775054653,-0.25991169619732035,-0.21451223596461902,-0.01622072492344795
-0.8025044522917615,-1.2746454738980328,-0.8436865440924269,-0.8923706340779081,-0.22304816126852478,-0.2926485678309471,-0.25964471314512483,-0.02086388814126583
-0.8517361982083052,-1.2638110532511173,-0.9145360281414726,-0.9576631685801011,-0.2415058798771694,-0.3630000945582231,-0.31756664600265055,-0.03710486250966927
-0.7857557671330893,-1.2289443713226236,-0.8017198243693859,-0.8425206725785583,-0.21705618853345213,-0.28273920311490974,-0.21874949692213833,-0.006909988609182793
-0.7636161474196594,-1.1824723669498982,-0.8108245355415997,-0.8450651952641757,-0.20847177731275263,-0.2541606544023131,-0.20712111193616634,0.014393489652843705
-0.7685113187951229,-1.1908448831234724,-0.8286576609338981,-0.8538986772081498,-0.1930542941439575,-0.27985910549736287,-0.21511177714873608,-0.029895545676189017
-0.8178192123285724,-1.268112382393485,-0.8850268599721584,-0.9190526537153925,-0.2300923516280931,-0.3136015023848279,-0.27704700693913326,-0.04015581292166315
-0.8182725565829067,-1.2219526682279347,-0.8447430429991953,-0.9003880557419341,-0.23725874824776824,-0.3203591862188618,-0.2756700111849201,-0.03801939872639304
-0.7576502199716383,-1.2042390952277966,-0.7958813673242929,-0.8172573642743914,-0.1885842804495064,-0.2547882206443649,-0.19029501987720343,-0.027252615656507773
-0.7855290391436053,-1.2539875584941749,-0.8126447660395731,-0.8420922031663964,-0.19000150161238777,-0.2438444631819998,-0.2177798933401809,-0.007767295695935317
-0.8118276825601883,-1.2260305050370746,-0.8615651204138854,-0.887440641927789,-0.20256737345275072,-0.27789868368176873,-0.217962891242764,-0.024704149860994284
-0.827659207166673,-1.2874652962531066,-0.8978660494235384,-0.9153611479873007,-0.229901624855903,-0.31609583978459965,-0.2862348676830872,-0.011212477378904684
-0.7486324297354211,-1.1806127362666787,-0.7403900529968009,-0.7785200971613883,-0.16339360921711968,-0.22773320849672563,-0.16779562236957846,0.012416972859659203
-0.7296842685589506,-1.18861686091526,-0.7645990178936831,-0.7863287438635241,-0.16247469380663795,-0.216028813343282,-0.15717795447527053,0.013666585323513558
-0.7525858864295074,-1.1917878701944276,-0.7744497355852319,-0.8144157254060341,-0.1640653592695678,-0.243434569527766,-0.1929350283541844,0.0054187324978617335
-0.7786859910395577,-1.2044625098715165,-0.8240182441102912,-0.8614019486899319,-0.1853859416464701,-0.2638335887614151,-0.22210398713884166,-0.025587503423415925
-0.7389714660695368,-1.2122256999221048,-0.7621202524500275,-0.7784006442812534,-0.16831518955539843,-0.2354115273544869,-0.16958783579384706,0.008459324893964726
-0.694243498865743,-1.1879956611496991,-0.7269915994336095,-0.7421426914759319,-0.1435958739893433,-0.16395609977337722,-0.0956179150833586,0.013148799131751987
-0.7286419437593804,-1.1991133571706847,-0.7472073743126426,-0.7568542081238882,-0.1485995346067119,-0.17168010942307393,-0.12278758967963532,0.022462868022291416
-0.758438217491727,-1.2512815094264935,-0.7954596499836083,-0.7982385823737348,-0.16757821646133159,-0.21900724054119566,-0.16591890882153348,-0.017824831726868773
-0.7668878378048771,-1.2195573267563795,-0.814336870081653,-0.8461761979898548,-0.19183306517715965,-0.24117620791694944,-0.20329922556584348,-0.026246961352595022
-0.6902346999485676,-1.1833500153443808,-0.7066779002215987,-0.708489382009617,-0.13359314025403118,-0.15453633616121804,-0.08305452235653019,0.04774204745500976
-0.6879078081046648,-1.1887842813924032,-0.7098787243302451,-0.7378256408150858,-0.13210232265311384,-0.16524041196381442,-0.08496944314598379,0.06185668386115034
-0.7173370650498833,-1.1989661953741502,-0.742201636667192,-0.7699969476950116,-0.14334106016587855,-0.1803653571543421,-0.08029726119692943,-0.004440676943296806
-0.7542882065483516,-1.2044982443630379,-0.7827975991570622,-0.8322144929003065,-0.15942945261531777,-0.21293585950312757,-0.14695676155165413,-0.0154499177854317
-0.7230502876613576,-1.2016085873340945,-0.7659496634027938,-0.7915220718086096,-0.15875911504113055,-0.21603612258807672,-0.13471606569370545,0.018447623981136085
-0.6723630864894916,-1.1540962595065152,-0.7143230384104697,-0.7176898196344517,-0.12569015364917613,-0.14569890389055185,-0.0867904023506226,0.0445907330732736
-0.7032630619713999,-1.169764789381234,-0.7219628660632493,-0.7333994593181468,-0.10292910207953057,-0.1340075973959877,-0.07740619704381049,0.03843537914681455
-0.7242715596513721,-1.197555566459533,-0.771001195892762,-0.794054195260812,-0.14606279115567355,-0.16395792542568932,-0.09914344663652833,0.03809966162492756
-0.7815610767344423,-1.247584407112213,-0.836605571909296,-0.8503872634969399,-0.17401631470398754,-0.25521994213767174,-0.16512951253794445,0.009121313364343742
-0.7026210556917974,-1.165451885211081,-0.7393080790818967,-0.7744564667906948,-0.1409200011799691,-0.17991687771499207,-0.10990864812697257,0.0567347005355604
-0.7009838223583098,-1.1778796775492437,-0.7241594735708503,-0.7566834394872933,-0.11514071043701718,-0.16433120812512725,-0.07718270150955348,0.03177552567117492
-0.71449004796775,-1.1950098368228201,-0.7493973914743806,-0.7817601912718342,-0.12904465294160472,-0.16918452064680783,-0.07029017087840964,0.054075058928905684
-0.7392481405759495,-1.2325497681016437,-0.815458386509303,-0.8402341993394696,-0.15605902518534792,-0.20243906009482504,-0.12570843783172858,0.041055478797533795
-0.7781618320428826,-1.278931353852148,-0.8174705362576757,-0.8478022585281775,-0.16482625216235425,-0.23742741308544246,-0.15233192079294794,0.00891789623902578
-0.6930480897179345,-1.1770045388437709,-0.711064999448227,-0.7435923030298133,-0.13018955821142128,-0.12628802480991835,-0.05603856792712075,0.04432479911100212
-0.6979204704154786,-1.2256644099700078,-0.7334512478109475,-0.7558493032598557,-0.10153260766866283,-0.13103020256839953,-0.03300673505552626,0.1324038289761762
-0.7046361521584914,-1.0961287418794816,-0.7402646601716231,-0.7558847718135793,-0.1318680564378718,-0.19635245368079254,-0.09005495051906756,0.029794493109408016
-0.7456273180460198,-1.1498704880894681,-0.7995523602621661,-0.797244735977229,-0.16832366058518705,-0.23083843512907956,-0.18066232889744108,9.418730052628277E-4
-0.6983404867672527,-1.1391009468809101,-0.7400789866377001,-0.7152856860244213,-0.19650667387362458,-0.2546755412993869,-0.18190985849278557,-0.0392435364174375
-0.6377425219310214,-1.0699391490923962,-0.6733085585130043,-0.6665126453586301,-0.13954651806309876,-0.17090249795138027,-0.09132692211451057,-0.014827803319692412
-0.6844748202083395,-1.0640035579202591,-0.7145689854309948,-0.6818759632371795,-0.1570450539685822,-0.1680559843651492,-0.08809396789898638,-0.02312416265020867
-0.732739757248555,-1.0623742051338785,-0.780818179227036,-0.776611813095859,-0.16899709823215608,-0.22194941801881007,-0.1429579741371159,-0.09412306884933624
-0.7798989740056981,-1.0727369818673766,-0.8314706132261476,-0.8518209492399522,-0.22027954748780246,-0.28427954648355286,-0.23340427795799037,-0.13833370201154835
-0.7144099966705062,-0.9901200281974656,-0.7091210163122266,-0.7345716717326671,-0.16184969292503018,-0.23080775167415624,-0.16097528200744676,-0.11328862711073151
-0.7284574334732213,-0.9543403896424785,-0.728312212973019,-0.7229570383468403,-0.18197265174641386,-0.19956759901052357,-0.14411347711975708,-0.16830369854106264
-0.7408807632487984,-0.9355226733569801,-0.73045246628831,-0.7675516002406998,-0.18199087021042354,-0.2407579796848341,-0.1787274589907558,-0.21978920941103897
-0.7581993697628773,-0.9072998341086405,-0.7602031661479133,-0.8260019748999807,-0.22018188789733897,-0.2999151253787032,-0.23420357682668844,-0.29927655346745524
-0.7640304856238298,-0.8672078372479756,-0.7732764732264563,-0.8201133160406278,-0.24873481428396185,-0.3254253634599629,-0.2836508720621036,-0.34780085987966003
-0.694525517145456,-0.7609952353624928,-0.653371778500094,-0.7035732529970871,-0.22765790641117542,-0.27939299693025627,-0.1867485352147777,-0.33182667433693513
-0.7109717222576935,-0.8218755258048143,-0.6975272032898129,-0.7280406858856595,-0.21202431686815434,-0.2827271167386726,-0.23762202967816287,-0.3476185726118853
-0.7389393692240078,-0.7878960212736155,-0.7337438093007072,-0.7782013270341624,-0.23045407336089463,-0.29981947056421404,-0.2588042109477621,-0.3497246432762438
-0.7851986346346624,-0.838427768633382,-0.7777825196720434,-0.8440250765960078,-0.2828057612538007,-0.3577554566002054,-0.3242748025374624,-0.3769069587258383
-0.7449480390655422,-0.8526149521978693,-0.7448992554245625,-0.7678895658463547,-0.244962298262346,-0.3245843627644302,-0.25446941980407295,-0.35495537219456735
-0.7059428501292404,-0.8167111589108667,-0.6781434994862032,-0.7179754024562536,-0.20997624997853342,-0.2656199491503359,-0.2160682738456869,-0.3952577069603029
-0.6993569185404425,-0.8061431609999746,-0.6922889580385978,-0.7210418738810839,-0.23233617422264305,-0.2819284792298666,-0.24743648661636836,-0.3920973685048962
-0.7465582000330389,-0.7801493205755529,-0.7282890595985859,-0.7700936245002711,-0.2848678752871479,-0.33071945947972026,-0.3126504787575421,-0.4122927105061268
-0.8111966050934825,-0.954682808948817,-0.8186998015976859,-0.846390611465068,-0.33673766409621314,-0.4231397960508095,-0.38366907452861204,-0.46176420380204697
-0.7367561261989548,-0.9497949955524176,-0.7111616148646915,-0.7302136683278403,-0.2646688455446062,-0.308146158960086,-0.27123713139703504,-0.4129771212502722
-0.7146744978411756,-0.9432534334199879,-0.7106887468496961,-0.7249273520487268,-0.2116037666345329,-0.2718723546569838,-0.21153559864637442,-0.2960076142409019
-0.7518466777750621,-1.0044634815483633,-0.7397864162177359,-0.7742071646571939,-0.20718883004766503,-0.23787673099508364,-0.18049867887492188,-0.2744243172640332
-0.8312975094210395,-1.1556957913152144,-0.864026787497034,-0.8954611904551465,-0.18803301440048317,-0.24068777217798704,-0.217288753472257,-0.22513510785944874
-0.9006573812281357,-1.1000010929865083,-0.9216574241813598,-1.0034777987567067,-0.17879407703606504,-0.2608991761011198,-0.2189987397832695,-0.23900520612609163
-0.8737202978885515,-1.0487036083762975,-0.8650201497442688,-0.9548673691759146,-0.06442296538799466,-0.07263291810011904,-0.0063091378148403265,-0.12286971020520393
-0.8933801362044376,-1.172205986477383,-0.927438376274264,-1.0042609351104488,0.002369739908874069,-0.033976964257751846,0.028194060807005705,-0.007929550906322802
-0.9050549846274585,-1.3014733672806376,-0.9406181809054477,-1.0246248843354557,0.03069338719348319,-0.0213613167559506,0.058280883184670174,0.08575248612268993
-0.8001128124639668,-1.4033866744924834,-0.8999210978235465,-1.0035415161386063,0.05588261940737099,0.013841230401839932,0.0701602826881125,0.27916708969798465
-0.26528193052104904,-1.2188393932448387,-0.6620236050799478,-0.8175291227676282,0.24368081791110346,0.18575192145118444,0.2547530123312316,0.6033185054988564
-0.11606458857184526,-1.1275855570604647,-0.5056989173546345,-0.6262719229389716,0.40219849976979694,0.38182592303857676,0.45053948713446845,0.832174172192629
-0.21594889991781036,-1.1947196051386046,-0.5785201106773658,-0.6908042600066792,0.4494803229848067,0.3868739478136426,0.4640670927239884,0.9186692735922255
-0.3326872935806058,-1.2578408501252658,-0.6608329560161457,-0.7419304085218428,0.4116878190180314,0.3352207182958008,0.43134652885728514,0.9732635401485557
-0.5512937069736875,-1.3592206928057482,-0.8076150473414021,-0.8847763297518032,0.3375477751736812,0.2732379321588438,0.3586191371871914,0.9355501894920706
-0.5936189595714632,-1.2666191283231498,-0.7585545782201158,-0.8573917969193113,0.34073111240984855,0.2625457402492952,0.3433160331378217,0.8953360258710059
-0.4826015877111839,-1.1184769606514082,-0.6493468026437402,-0.7162924483946951,0.2965592593898939,0.238623409821898,0.3470480794153843,0.7643998530542443
-0.504824310252615,-1.126522447267406,-0.6826695695449406,-0.7286534492781578,0.17028331753486273,0.09786261316583084,0.19661074192728828,0.5827687591936634
-0.5997735653402742,-1.0778987725974116,-0.7444263317724775,-0.7870151608626461,0.05495661306068539,-0.03843875713782688,0.04611636856340251,0.39255143841758444
-0.7517885508788051,-1.1394066204549653,-0.8889010527872507,-0.9065574415055613,-0.021297726294770974,-0.1395983814507614,-0.07328416050664291,0.30860065147043336
-0.6925560118843391,-1.0937007504046468,-0.7607940011394073,-0.764337634544984,-0.04192843067140889,-0.11742402283263537,-0.03476985835007873,0.33322863536962793
-0.669114836021417,-0.9920566491876028,-0.7275444302803576,-0.7279321218526424,0.015983309549375296,-0.041902185970698114,0.029663719069907724,0.41881231811966546
-0.70597296250676,-1.0512228332369857,-0.7452453048086126,-0.7542115320548426,0.01411938891174197,-0.042405868202919306,0.02229579392569475,0.36734816988828345
-0.7780220893260038,-1.1049429778039779,-0.8295401871555317,-0.853677749023406,-0.019028174322301555,-0.09485924063779094,-0.027981800669053425,0.41228640876440786
-0.8383200709476414,-1.167884342629904,-0.8910822270284218,-0.9414230575206612,-0.06798944527076628,-0.15780806747122264,-0.10710254609794945,0.3731826483609068
-0.7482449184987005,-1.0591953182415894,-0.790828479691654,-0.7832735382541813,-0.036001123376414396,-0.09503350920460818,0.009053093977948401,0.35870794254056465
-0.7416871334806743,-1.087525861362312,-0.7686296080111961,-0.7817223470754185,-0.028858506369499104,-0.07564535681228815,-0.01396496763474353,0.37420120732182216
-0.7737657195886469,-1.088904888208277,-0.7719562707454464,-0.8265417595550086,-0.03715735100485398,-0.09583882782380843,-0.022977028612597927,0.38255412034839636
-0.8177724417583846,-1.1370806967960898,-0.8632863643914012,-0.8947107410828385,-0.07152505119970198,-0.16266895127792774,-0.07341811052705294,0.33055804846306
-0.8655458071946758,-1.1277872049234863,-0.8971243847260741,-0.9264899643613587,-0.10221309848930968,-0.19234417593611433,-0.13546628901486135,0.2925331341452627
-0.7725793027519455,-1.0614160793089407,-0.760592652082927,-0.7694138782945764,-0.06991541371885632,-0.09379039762322436,-0.011068068281930465,0.3563118441549171
-0.7826980362170053,-1.0861962629617758,-0.7808207497184787,-0.795618029895337,-0.0510044349356098,-0.09308774493553176,-0.005350853826987467,0.32640669466685945
-0.8085638144568407,-1.0881161770819592,-0.8270865475753583,-0.8366890212786973,-0.07033030516329691,-0.11241874325130394,-0.016655501856730703,0.3515601616901075
-0.8664768705441663,-1.1336006798170646,-0.8880503392635581,-0.9243883218784433,-0.09154384832971785,-0.18329365181780993,-0.10429418413878502,0.2667499623071585
-0.8901879141652973,-1.2099154640783762,-0.896948748038167,-0.9323574151988221,-0.14742301440234362,-0.2310190819897872,-0.14314368411826223,0.24029151230904072
-0.7831845475147187,-1.0761660403653601,-0.7673819369177688,-0.7817690786886495,-0.09373420558453477,-0.11099064773800452,-0.024632974864432722,0.34206503541905925
-0.7809697570679558,-1.0570681209669694,-0.7689734320975758,-0.7785570228493411,-0.08347624805556886,-0.11192760721278006,-0.04112293218816346,0.29233478870103113
-0.7885824399728805,-1.0389772140364737,-0.7678460070240659,-0.8098725957552404,-0.10891392211161378,-0.15427495941515557,-0.061299750285491256,0.3132889406745078
-0.8412055986215741,-1.1154155888249688,-0.8353680527357398,-0.8568170536683456,-0.14635857682820058,-0.20996826154949738,-0.11914726632572828,0.30206883097555776
-0.8688741335188781,-1.1282487702685544,-0.8690546874900194,-0.9080482399468466,-0.18921289893745225,-0.2555076526085573,-0.18919205956366625,0.2365016707867918
-0.7537152132913405,-1.0017859505380218,-0.735537468626398,-0.7412660625205174,-0.12024873376256298,-0.1619165639227298,-0.03829875269265742,0.251196979287596
-0.7675315943646988,-1.0748688989981257,-0.7382887657073729,-0.7462206518876185,-0.12518342368698138,-0.1326474732040097,-0.0450972699906414,0.26771746012972913
-0.7839365660559852,-1.1079539400307428,-0.7608398154204965,-0.7732614313271847,-0.12179282919678625,-0.14745642420427105,-0.0924913263584573,0.2957968340939895
-0.8273552219524911,-1.1210538372863383,-0.828053505307087,-0.8221836666960736,-0.16537201576996943,-0.21209978599457513,-0.1226138361964651,0.22130961161827806
-0.8704867961551124,-1.1609323814156436,-0.8956076425639652,-0.9068810580790043,-0.19276940455036323,-0.27384879158334047,-0.2093601511041216,0.21494737550104503
-0.794939693392622,-1.081100427658688,-0.7754602729233034,-0.7510936284880663,-0.16798333647757918,-0.19311515832572423,-0.08493833779369742,0.2369251160888995
-0.7594942648225335,-1.1382134716911967,-0.7374974912620459,-0.7560266805548207,-0.12794287526066173,-0.13575153684098307,-0.07895353910359224,0.27187258197397607
-0.7834821421423179,-1.1329666889212753,-0.7830842202720268,-0.7667414934200382,-0.1263926832435664,-0.16302975726396624,-0.08373368895355296,0.2757334173008787
-0.8230582583406191,-1.1498996102525778,-0.7950266608239448,-0.8118723016977039,-0.15377200226976093,-0.19040383277976117,-0.12478263823744065,0.25513304461306324
-0.8568444256928143,-1.177299222967211,-0.8560680691398672,-0.8856953747737262,-0.18434237760911573,-0.25410330168306006,-0.18712993560650107,0.2518183402780498
-0.8039970463056402,-1.0648191445889847,-0.7864894686971544,-0.7933756750761415,-0.14835751126036834,-0.19592451594533455,-0.13068457859641688,0.2759939694153055
-0.7809401545184833,-1.0790268237998126,-0.7488514137417601,-0.7438023779305526,-0.15197245337150742,-0.14017072598168323,-0.07419937185297215,0.2702275318880775
-0.7840453114234667,-1.1181654859431287,-0.7706090525095577,-0.7724642985454407,-0.1620567553463038,-0.14229531687575134,-0.06709733157932068,0.28915778536794445
-0.8260812430661655,-1.1358934489105579,-0.82413030258302,-0.8092784856520554,-0.15766423070570665,-0.2028886262241229,-0.12197541603174167,0.26160428710151656
-0.8692438387794013,-1.1506179288148324,-0.8585703496157994,-0.882507069636613,-0.2065875362432693,-0.24063427691604364,-0.20907146186107167,0.22929635809075044
-0.7931224353812316,-1.085814636516317,-0.7682861512587685,-0.7769880108734057,-0.16903222324640277,-0.19842224293651853,-0.11679815742254634,0.27497199467647127
-0.7470294100449671,-1.0916197933490102,-0.7071370726267637,-0.7209910944030714,-0.1205692898556243,-0.14073396852959894,-0.037284410738421425,0.260768309037789
-0.7520856923773387,-1.102197361163055,-0.7520206957332456,-0.7248644490615251,-0.1230359783625442,-0.11121495946322657,-0.047570736293609195,0.28687445716335785
-0.774140312769031,-1.1077099938809059,-0.7702163267009687,-0.7825915319427383,-0.14970549554138496,-0.1614482847359317,-0.10173313804458223,0.27942153566546146
-0.8374546633088706,-1.1443565767897916,-0.8290216250660426,-0.8478832673149559,-0.19180278944863832,-0.20310472432032525,-0.15574536600751646,0.2535622385754573
-0.7931596897077802,-1.1344918432830153,-0.7612171168731603,-0.7798797949620782,-0.18403311871740322,-0.18791855549312478,-0.15134139182492187,0.2137968901330321
-0.7406490872921242,-1.1208285848267163,-0.688149144463728,-0.6922798483587255,-0.15769573156810593,-0.11953218803750029,-0.04232754900136748,0.263495924434255
-0.7492612327448498,-1.111820118830042,-0.7154749272518182,-0.6982326510853197,-0.12175717766487923,-0.09767886773537329,-0.05213116794070288,0.25566644097821184
-0.7795803989673884,-1.1038898600436273,-0.7465824886719352,-0.7315824129217043,-0.1299236172102964,-0.14313718061532754,-0.05457280996491834,0.26346785931567396
-0.8121724427354311,-1.1656585579305867,-0.775554087231463,-0.7910123041054589,-0.17605948329870988,-0.19117119471026417,-0.1290777909694082,0.2461118788839578
-0.7970997042032969,-1.1092486393651322,-0.7494772887008444,-0.7639195662658992,-0.16744753427986597,-0.18087115861436795,-0.11131401936315638,0.22903733239996288
-0.7055371984145618,-1.0595848742042029,-0.6759586211935712,-0.6436968788290816,-0.1248825446963622,-0.10024905161216224,-0.017014451558073684,0.2924549714657842
-0.7129148346256722,-1.1017095374059394,-0.6813244548258927,-0.6587534360065012,-0.12325633949603096,-0.08586523463289406,-0.0036912718998749483,0.308720071743923
-0.6792414902526324,-1.0706234674885153,-0.6659550920933791,-0.6674769064093353,-0.09524076933341487,-0.07457484763217248,2.2886312214243087E-4,0.31942034622563403
0.43637752664990836,-0.7012880365979608,-0.023286960939363194,-0.11796055061953525,0.5254833354200802,0.41006237996557204,0.4060992603564266,1.4707591117054815
0.6996618487252585,-0.6324365993113149,0.07701661108035013,-0.07482817399953404,0.48587703456725934,0.28908807378772977,0.27647429595699896,1.304798346935696
0.530430702745306,-0.6139166042232395,-0.025894535328263912,-0.14284158484413742,0.3364738966693146,0.2141098071952379,0.23565854325661614,0.7702797621056149
0.4856283311054982,-0.5943349464788344,-0.044386182861510665,-0.15758407084088502,0.3242543347334172,0.21577864540483851,0.21200782937665805,0.7681798293263948
0.24099630025370986,-0.6598359125209563,-0.18714227286162066,-0.2904922872342487,0.2428847772188136,0.14381776450147954,0.14598452630227768,0.6588050459327527
-0.09679645094379029,-0.6936468444270438,-0.3784911439993656,-0.48182198332778114,0.09384166673700144,0.026511291081785154,0.046085089517496874,0.5589566014361662
-0.22156693228847454,-0.737847591735473,-0.40793020746858233,-0.45686034161501726,0.05477560439465018,-0.01962172793488734,-0.017790640207009628,0.4945674784288649
-0.21930065626433493,-0.7748247108661939,-0.33328924577616026,-0.39562717009056236,0.06935724819529224,0.015219610472969852,0.05711872754662797,0.5342358683518909
-0.3140639855090762,-0.7957545396284228,-0.38265655512632474,-0.43961269689262084,0.07871203166576923,0.02242642474454626,0.036816401051763564,0.5589807372620488
-0.3876310508671859,-0.7677800923905296,-0.4487789527942261,-0.5043616903072203,0.04686378613197767,-0.017186774080042128,0.004410207485863904,0.5844025524410308
-0.46527145047724927,-0.8442720466691465,-0.505547081185408,-0.6016243292839778,0.00916662638986393,-0.0543299035621683,-0.07523949000485514,0.5699766104452162
-0.38021002157705525,-0.7505881437249915,-0.39684167597515824,-0.45971462263491186,0.048062234744007615,-0.009526752566217545,0.030189671387546524,0.5566931648408304
-0.4291691142885115,-0.7309336750258666,-0.4160567451012232,-0.47828403783369444,0.06858155308595884,0.023808597441189572,0.04463612736237019,0.5896852594433808
-0.47629853408565037,-0.7818124460521494,-0.4878409250685011,-0.5500722898580853,0.059221205410050354,-0.02383426170378969,5.162374581738627E-4,0.5227807179952739
-0.5945698903847942,-0.831002428393489,-0.6036639362252738,-0.67614711972044,-0.05432175644657865,-0.1194885824872251,-0.10709363212386361,0.4646349063739115
-0.6012153427497393,-0.8383469610347523,-0.6243685782287183,-0.7084330828994814,-0.11417326024424784,-0.1950129995158746,-0.17374330152150913,0.41849662472190713
-0.46380205465684515,-0.7250077565036974,-0.440903843433358,-0.5048267664326374,-0.04836062964155183,-0.05381282734246784,-8.357083951295308E-4,0.47058285608585526
-0.48028468440346983,-0.772525281924265,-0.4730469411699731,-0.5196349454378978,-0.03131899946061581,-0.03447988126901544,-0.004260840931410853,0.4488977817811587
-0.4891663163183051,-0.7538145135154023,-0.5193187982161035,-0.583515930345581,-0.04260532389599331,-0.035600359893302624,-0.011165776837776975,0.42439368140240286
-0.5293937364841232,-0.7594783750587886,-0.569075363003605,-0.6471259585990036,-0.08074883220075757,-0.10101217718889799,-0.06804604689329175,0.4409418472208058
-0.5960439171977593,-0.8119548777065955,-0.6501141717614568,-0.7185007933220546,-0.11326720433005635,-0.14916538588392142,-0.12545838308695373,0.3995340721963462
-0.4585975025290514,-0.7299247342271237,-0.4613104426225747,-0.5130164200507221,-0.055171227941070544,-0.03430670685080492,0.03652757993627331,0.44876918561070595
-0.4007563320262867,-0.7139259740390589,-0.40888653711260925,-0.47331454649769544,0.006364451869403431,0.046286247286583204,0.10870159250141509,0.5085671291613816
-0.41417605343599967,-0.6817910480281619,-0.40572335636342444,-0.48930107627685115,0.0241240124338776,0.04321836651638916,0.10256287307543446,0.4692285666487544
-0.4510969062309929,-0.7473057720390395,-0.4765384880150036,-0.5446495170811764,0.01640344901805066,0.012190475424345065,0.07034385562788456,0.46098338630987884
-0.4894671044677137,-0.7578717140777971,-0.5218004675963474,-0.5966910469343129,-0.028036666735609395,-0.03099714161879044,-0.0027002583219010168,0.4719280258053533
-0.401700383168619,-0.7275544853211323,-0.3996840885749281,-0.4331224027925963,0.0029406927129332072,0.02094507656306102,0.07337071590698621,0.5067453111126842
-0.3220729910313979,-0.67946595735734,-0.31426824547900745,-0.33586014486401106,0.06952892142064346,0.11885079211237382,0.17249795413996885,0.5564425380019482
-0.3210771675791385,-0.7291218859945618,-0.31388924227718307,-0.334968003311215,0.08367816850060908,0.14163143741125697,0.1788281088557132,0.583529966019378
-0.37115506070119136,-0.7159248434635741,-0.3780689174190373,-0.40248370030301095,0.07165338700368207,0.08068329255529177,0.12341200534420887,0.5688294808926719
-0.4222739715600072,-0.7809439446701738,-0.44000255450928816,-0.48759387463985876,0.03409659286663852,0.021579432432621448,0.04941487022292815,0.5703540136601992
-0.39096466759944487,-0.7390944538061321,-0.39775429348899227,-0.39249114977870325,0.049870290921045723,0.056568577940645765,0.09626292970810565,0.5256052969159316
-0.30541523483904254,-0.7003390247094394,-0.291311604054261,-0.29557614407035226,0.09425238222535232,0.12924853219067212,0.18797544862325943,0.5884608711532204
-0.32882919074851746,-0.6830282080984098,-0.3096373908710712,-0.32110402467112487,0.07311968782266717,0.0969456927428177,0.17187445263162726,0.5588281934361201
-0.35540880935053354,-0.7612767626039366,-0.3857902227271848,-0.4040839795783621,0.05040432316382515,0.04353909250628693,0.10810015499546372,0.5053089169544398
-0.4207646340478271,-0.773181970193779,-0.4465743454261503,-0.4883644431856183,-0.01989483631795677,-0.0405342929421271,-0.004746717474170797,0.4488030265417807
-0.434738571314608,-0.8661488591335276,-0.4804157721891247,-0.5123996143270384,-0.04182903409677298,-0.06071207656445246,-0.019755364999766767,0.42595297054738324
-0.335477327790861,-0.6778326408378255,-0.3515727782502377,-0.3539072424423308,0.030477419276733586,0.028403139643601055,0.10378206069344831,0.5149327883316335
-0.3399517473123471,-0.6873424936749806,-0.3599224522294968,-0.3774803860278385,0.022993476525005635,0.02957572598437569,0.08797127743849223,0.48303681521341196
-0.3871261381076032,-0.7544339745265269,-0.42247002385147137,-0.4187909967663275,-0.023936648556287465,-0.0013443686572228442,0.03647228934404961,0.5066445388846899
-0.4504292501770853,-0.7734931208459324,-0.5086816246282231,-0.525312125811142,-0.06289953404947203,-0.09909474344562366,-0.04282225581399546,0.4030095930069387
-0.4474314576445947,-0.7870964310930597,-0.52590983038983,-0.5473803535004689,-0.09904828101052128,-0.13290055099620782,-0.07645469650183309,0.4376376455449543
-0.3754676078870849,-0.7244383415677598,-0.4172163714748061,-0.4071839162962517,-0.03745616643745962,-0.034140470288881786,0.02195619990672304,0.43836917155109484
-0.3877000914483304,-0.7253112139121637,-0.45082935930131796,-0.47804955250915543,-0.03562250966624439,-0.06479573111238221,-0.006061458964044253,0.44199551537160503
-0.43071286772901946,-0.7514632174254673,-0.4955979814958741,-0.533815853489436,-0.08452113371422833,-0.09902887013039652,-0.04719058626988956,0.446382843936533
-0.5264075057634412,-0.8165822302733459,-0.6083640207031438,-0.6394611783862483,-0.1353469455916022,-0.16818899621382866,-0.15818416923233156,0.4334189580263213
-0.5181340191087207,-0.7767950625614721,-0.580178130553876,-0.6027357802286265,-0.13635713509318206,-0.1936818534780409,-0.16698086578106908,0.4185710517085737
-0.46362416158371345,-0.783286983921829,-0.5157961835765856,-0.5370300283402072,-0.08394768569622849,-0.1582642854663145,-0.09058346002642907,0.4296791109626292
-0.4995334696903988,-0.8095189227520715,-0.5456950646750793,-0.6122660061819987,-0.08932811500145851,-0.17192714900581257,-0.08792710856973149,0.3866087336199439
-0.5527508459149233,-0.8960463037435868,-0.6194277085365767,-0.6741080753363563,-0.12560171525768857,-0.1985554580330981,-0.16296646167599016,0.391182313151854
-0.6030575516259675,-0.8544145346746905,-0.7012738462382369,-0.7587739357989972,-0.19239794826456508,-0.290237585164972,-0.24885455994105482,0.4035666744946555
-0.556176659026153,-0.8941687608185467,-0.6377614442634426,-0.6737049870444296,-0.18429773697318952,-0.2729987805616265,-0.21395486007141634,0.3842934540843029
-0.5378038199463138,-0.8452538225172049,-0.6182579037298352,-0.6852814999550187,-0.15283012125224857,-0.2676182117691483,-0.18912839806093465,0.42631498255988287
-0.5452257594946965,-0.8569902171178654,-0.640692527638476,-0.6993087743432751,-0.164905946674561,-0.2737751650406214,-0.20643417283079504,0.39132914281404496
-0.5923136453598693,-0.9033079631350226,-0.7029540398012518,-0.7624868010670832,-0.18828493280609968,-0.3177104348751423,-0.2638150760378162,0.38093869242424555
-0.626964886045848,-0.8863002639466214,-0.757423682359657,-0.8371189582784037,-0.23887685738839393,-0.37975239695699015,-0.33701098830491955,0.35040375482957187
-0.5398108150808223,-0.8605501552129957,-0.6521794436735695,-0.7002208107310248,-0.18370537516161733,-0.31039906380868143,-0.2185835815089896,0.40408544596008705
-0.5600335889201141,-0.8291425855712544,-0.6769821671555861,-0.7170870088646131,-0.19639274341224858,-0.2933492631384416,-0.24316952373058262,0.4125632423688579
-0.5731475285951533,-0.8392125307178112,-0.6963878018797094,-0.7526998943391342,-0.19418226091719903,-0.31075501604014766,-0.2765144729035615,0.39721508109568904
-0.6348296892872471,-0.8520100307792272,-0.7380755420738643,-0.8132120946010228,-0.21949561712536936,-0.3683741431415386,-0.323984141242366,0.355749305383877
-0.6587565127578541,-0.85872915078992,-0.7648134199734995,-0.8478945970590216,-0.26456406827473017,-0.3917983760867245,-0.35763780276233026,0.37335718189347555
-0.5485916346904898,-0.82599927045334,-0.6632505470676215,-0.7022566896846213,-0.18459555192013838,-0.29790615265128895,-0.22391842222737723,0.4030178255774396
-0.5784173732851168,-0.8804622171404857,-0.6925698080780793,-0.7363360539440944,-0.18744555382669673,-0.2922676633767491,-0.24983174285033152,0.4038876975183283
-0.6039809669652434,-0.8671072176758392,-0.7152718779468095,-0.7529848941594504,-0.19517125410336253,-0.3398128746683452,-0.2697307682430144,0.4012350027328966
-0.6434319331309789,-0.9144985722187495,-0.766152001443065,-0.8262005062440421,-0.21669839921255113,-0.39014871224635506,-0.33294146924849183,0.3421296615885164
-0.6163323183783683,-0.9152155872279316,-0.7257359459219501,-0.7776302142035394,-0.23125557792144558,-0.36203416362746244,-0.304740321177635,0.3667125979867144
-0.5475488354641559,-0.83601168817726,-0.6479489036612256,-0.6929959150814471,-0.16461536730680779,-0.2766988610384337,-0.21408435974370713,0.41484508429793115
-0.5525684776524646,-0.85592334559807,-0.6585373776435895,-0.7037718487353986,-0.17903293568962464,-0.2927075041351501,-0.23774350790814877,0.38302735256762543
-0.5769014997790732,-0.8379605453603151,-0.7080736718742024,-0.7505217188569986,-0.1954320449325625,-0.3062827749787851,-0.26863121095987363,0.41429459940474167
-0.6322571920282722,-0.9004693980240885,-0.7539873402859946,-0.8079299591640827,-0.2180935588182578,-0.3530007505688043,-0.30461284105921105,0.37938950098079954
-0.5666767680357265,-0.8026431779905221,-0.6801169814469197,-0.7084033437033482,-0.19389858823355963,-0.29432456052779704,-0.25830712361710517,0.39541814620548893
-0.5176372180954605,-0.8356873840619293,-0.6378273974419045,-0.6714331352511096,-0.1367942554023714,-0.23593826235126913,-0.19889946642822653,0.45135787253138754
-0.5253828081581848,-0.8167038084140337,-0.6403329392880419,-0.6881185735009198,-0.12945355766112662,-0.2608809714270228,-0.21616676817361344,0.4509462257250806
-0.5635744813434372,-0.8490456830955622,-0.6821053005238168,-0.7440765841062129,-0.1573660467191202,-0.28350608073227385,-0.22290423414363353,0.40110879845871983
-0.5737284031783277,-0.8802027056375009,-0.7291944169801718,-0.7742751326383367,-0.2061803106433504,-0.3182389036765075,-0.27693883322511453,0.4177259516582328
-0.48107921830648986,-0.7949713839722206,-0.5992154803149576,-0.6384243975475332,-0.15593013995163543,-0.24608833131303356,-0.17332836592550468,0.4502404276410137
-0.4796921949355941,-0.8197369286057017,-0.6100701707936813,-0.6675781182230862,-0.13516807365081734,-0.22924410116116042,-0.1720515440825706,0.41859764854127757
-0.48083020497471796,-0.8165502384765728,-0.6332250422017678,-0.6601637071929485,-0.13493018819909686,-0.2314033334674539,-0.17159081071101673,0.4610160022921471
-0.520556809019626,-0.8189657143688875,-0.6688208443689142,-0.7204801840669577,-0.15870287127036514,-0.2509654393110659,-0.23606109884075224,0.4206944639536431
-0.5341932714076516,-0.8293027133202391,-0.6583005418833082,-0.6863396801693249,-0.16291529261020668,-0.2828404975833195,-0.22987040191519204,0.3946164503832268
-0.43369359700104015,-0.7659566274118823,-0.5674156896519644,-0.593473847429261,-0.11963374078081052,-0.20877324650523832,-0.1611311558222967,0.43495515758683667
-0.4467543608204103,-0.7872511779472438,-0.5829463460253825,-0.6085639691131661,-0.11205941025024853,-0.19758647204793145,-0.1656413816453028,0.4344099098793965
-0.46336742079707655,-0.846388351463049,-0.6038253636799599,-0.6371919892087387,-0.1299897098708271,-0.21628877694760654,-0.1758486900108325,0.43296074095357495
-0.48927442224713175,-0.820476403596577,-0.6891055596113677,-0.693449491401974,-0.15989719379787876,-0.23946671475366849,-0.23164981673978988,0.3716799418979609
-0.4611124349465837,-0.7877990868410428,-0.6098302027046267,-0.6381347140600889,-0.14338799205459016,-0.21206839054953044,-0.1614549187393383,0.4204889267183173
-0.40122727930122365,-0.7825178214078883,-0.5322605220467138,-0.5614210857052763,-0.09503744941411876,-0.16689568774394672,-0.10770324027161558,0.5052750089865663
-0.3377285463913355,-0.7170546807630838,-0.48239843108342345,-0.5020500867280459,-0.10486683503013339,-0.14960271545602888,-0.11623175261293828,0.5193175238622921
-0.32711513659500785,-0.688186453210313,-0.4801066422465858,-0.4920880717364523,-0.12298105068198276,-0.17550314045818205,-0.11668573738778168,0.4659351516880807
-0.37096641675849135,-0.7807026087195209,-0.5427800204764301,-0.5682026591804785,-0.14171337173814977,-0.2280147615460153,-0.1956300240261632,0.47741618989894485
-0.289632206241687,-0.7664894194032466,-0.4148459340770247,-0.429051207491394,-0.13161775800421763,-0.1933764586914957,-0.16470190696534576,0.4883419490674836
-0.0956831973860808,-0.6831621904648407,-0.2057728663784125,-0.19644307157487484,-0.09454066803015745,-0.14336883066620798,-0.07487440424813732,0.49943238381918625
-0.24072255706053655,-0.7483159199321341,-0.39652176092649644,-0.425467496359984,-0.10274719147952226,-0.15000358529129706,-0.11150241846778286,0.46946398971658776
-0.37934774579427,-0.8129846523849235,-0.5468126073414626,-0.5625951767523399,-0.11494258157866107,-0.20487811327858102,-0.1561333152337478,0.40235173492709747
-0.4305542629908653,-0.7972466034505478,-0.5996529560193387,-0.6075565193562795,-0.14420426917996415,-0.2345890414417104,-0.2098928026192484,0.43683617924140355
-0.20480800626631157,-0.6707912421956683,-0.3042910602726462,-0.27951564682011787,-0.1180948311477983,-0.16166863256742336,-0.10326254943215733,0.4284700663671822
-0.11199753536751864,-0.6216262184205057,-0.20336206520139516,-0.19733223512291234,-0.08733100037725713,-0.16897525468308774,-0.0709670185180435,0.4105517629837848
-0.24155022704645923,-0.679473887822561,-0.2977560804697077,-0.28815302631928674,-0.1131446927036972,-0.15104725706366678,-0.10633195196867279,0.39474593194385954
-0.27383859332403354,-0.7772064808089678,-0.2795994083063511,-0.31018468281975997,-0.13203070479992754,-0.22388344090812354,-0.1836832356858539,0.32479097558890385
-0.4740071686338392,-0.9598515175949154,-0.5218485616034961,-0.5306765081932181,-0.1817399893410283,-0.25666410026956354,-0.23639481637461457,0.2653044429317622
-0.5441629308446516,-0.956229197298593,-0.5517662899924833,-0.5573050322372298,-0.11390169552228226,-0.17436511295507653,-0.11828268032802927,0.30555966066935697
-0.5564583091909703,-1.0355527739656263,-0.6093645817647549,-0.5854976252269012,-0.10954524970880604,-0.18144227840777974,-0.14617679938143438,0.34521541413888446
-0.612431812647426,-1.0748140451081303,-0.6573834101066223,-0.6366785555952295,-0.17144215652811728,-0.26042483393898613,-0.23043845094204102,0.35635638168238426
-0.696607178453828,-1.0959508779765255,-0.7221722972895459,-0.7224860297553917,-0.2512196722990534,-0.3377237657150789,-0.34511921864929873,0.2424287858086417
-0.5732842000208846,-0.9953200023021784,-0.608217678663231,-0.5771214091050734,-0.21077958819180947,-0.2694729442433089,-0.23030051717524336,0.2912367575598424
-0.5857313905741117,-0.9714296370008971,-0.5928914774403943,-0.5659956626460513,-0.1804222864182016,-0.25659659289830555,-0.1741021021976011,0.26674173182867084
-0.605788032036986,-0.9279753727230935,-0.646074035398364,-0.623289873480703,-0.1606277008503,-0.24572599019296815,-0.19130244870976104,0.30636192765535747
-0.6590125840912681,-1.0026906308935912,-0.7218286005392441,-0.6983885132076828,-0.19540517779160166,-0.3144420129681551,-0.2778365132273308,0.29122797944393275
-0.6409878032627847,-0.9767084378197484,-0.6862973955510824,-0.6400969741060556,-0.2093195785779719,-0.2993838400982512,-0.28245803150122006,0.2432258397911154
-0.6000454817527211,-0.9761787338909629,-0.624264386181864,-0.579670322179776,-0.17322243348601724,-0.23958209324079752,-0.19870545536273904,0.2535948220488335
-0.6168706076635994,-0.9647765081552144,-0.6436662566915248,-0.6021159725551346,-0.151075903634856,-0.2546266518742989,-0.20486776912494187,0.25412422980327026
-0.6730193672357214,-1.0294815070804413,-0.7215909448496655,-0.6643562192649031,-0.19336846766575796,-0.28468580773281765,-0.26195359496349846,0.23007264347987894
-0.6950670868242395,-1.0175564896700575,-0.7437605864576305,-0.7041270163583501,-0.21951817023914405,-0.3025561889263746,-0.2950726303825699,0.22254197929215708
-0.6353288255800309,-0.97083398626832,-0.6590297460955828,-0.5948450925774008,-0.1637217018992813,-0.2485465138379807,-0.19961229146278123,0.29417793411977894
-0.664022874657025,-0.9988329477928121,-0.6869670321553025,-0.6183995395669749,-0.18487800498242302,-0.2777902376063347,-0.20603630252399063,0.24667408320464312
-0.6963955053407318,-0.9926879063790413,-0.7399454903633348,-0.672611489630867,-0.19687497606841886,-0.2894167689438152,-0.25353187289268636,0.25168891951579186
-0.7595653399227568,-1.0502195192694042,-0.8073007566251293,-0.7525951643429203,-0.2563152928415865,-0.382694909831116,-0.34261376652104525,0.22075846316856912
-0.665552153097227,-0.9757922499658431,-0.7039071308317881,-0.6536987649618998,-0.21699740958243338,-0.32350640882711834,-0.27165416998791303,0.22946293129612239
-0.6616490746400604,-0.9609743759901146,-0.6633571087529065,-0.605307853548738,-0.2013656164801676,-0.29526048962608065,-0.2266883673670844,0.27485377230874874
-0.6704356310230097,-0.9873206719501872,-0.692656194456794,-0.6214437774651197,-0.2000027683352517,-0.2852978934897221,-0.22362164337483773,0.21926917328007478
-0.7073000740928566,-0.9688546245637075,-0.7376099211737385,-0.686493788519288,-0.22392228073247422,-0.3272160547114075,-0.29561757386900067,0.1749370129006913
-0.7404203301675903,-1.0291912758815642,-0.7786928880189711,-0.7395881898526842,-0.24571018847356801,-0.3718898426764431,-0.3674054402056084,0.2065273125062143
-0.6542418323563881,-0.9987237017005095,-0.6573737067591835,-0.589843310047146,-0.21211433401129798,-0.2996315136970875,-0.22780639517277854,0.23597240862643537
-0.6672579207008191,-0.9763793254751503,-0.6798652661790554,-0.614671565842554,-0.20482422987419197,-0.2932144886117335,-0.2334793184113271,0.2669726983825017
-0.6888773177554006,-0.975840160788294,-0.7182013260404748,-0.6495463003630919,-0.19945835207183532,-0.2990597724089155,-0.2590124548373979,0.23219546229781668
-0.73168644644436,-1.070213255085083,-0.7743596411739481,-0.7265047966315972,-0.241829874954884,-0.35827449862582494,-0.3198454201944598,0.2147379105592856
-0.7551987963348066,-1.076832060354341,-0.7955221087737028,-0.7446809718636949,-0.2823535676605956,-0.3907190019774773,-0.37167672971174925,0.1781151379396208
-0.6613935792036952,-0.9825679984107074,-0.658875819667875,-0.6089539167653317,-0.21512952798227347,-0.33859287857851195,-0.2312765499803682,0.17291057514991526
-0.6835050671161141,-1.0009260927272998,-0.6989167963220078,-0.6592964148162374,-0.2235976589665402,-0.29895294479179996,-0.2470425229688787,0.2362814762828273
-0.7102797195088666,-1.0363926456944168,-0.7351960654288887,-0.6780241341395115,-0.23084413243197044,-0.3100633244615896,-0.2740061692456018,0.22302654232630148
-0.7569332764550484,-1.0592108679430627,-0.794568182286496,-0.7578184552633636,-0.2504576639085655,-0.3947602774583816,-0.3593820834751532,0.18508037512133474
-0.7304083943177597,-1.0339053494135535,-0.7698930401211145,-0.7244655412197938,-0.2893087920711267,-0.38435997657605436,-0.3710713480323963,0.18060298047749473
-0.6753713915023063,-0.9919768622796536,-0.6991973623399029,-0.6295649878634604,-0.2204770331193356,-0.33979083539878263,-0.24040555355608978,0.24268262920559297
-0.6919652545986504,-1.0201278084535192,-0.6947352877622466,-0.647787871280138,-0.22727381815180064,-0.31590573431104263,-0.26929964574669085,0.25257193504307285
-0.7308600538329016,-0.9905599642202849,-0.7622437716665189,-0.7226663750866371,-0.23992277152369976,-0.336987933539677,-0.29909297907276755,0.25582035792483726
-0.7871952584041536,-1.0740017295431334,-0.8248370880903946,-0.7937675011650838,-0.27490513204225,-0.4093941228607556,-0.3993564135343874,0.22966319986952388
-0.7390759299870924,-1.0314358589716324,-0.7616070895404154,-0.702441332428384,-0.25305016648180284,-0.38652389215025185,-0.33464833817354767,0.24523679054929887
-0.7246356902899965,-0.9931318451169433,-0.727034423015135,-0.6715616770255496,-0.21543370929897526,-0.3319209333059018,-0.28420472319028484,0.24916167405541478
-0.7120043339110027,-0.9842167646498519,-0.7324531503802233,-0.6722083879686399,-0.23139351504805475,-0.3280817135149057,-0.27874496386696157,0.2560915233632571
-0.7118173572296509,-1.0311406037330353,-0.7324119818871262,-0.6963984539737886,-0.25870169465329895,-0.38073607091364126,-0.34560412774016236,0.29337623077210684
-0.7290282734525932,-1.0416552396591432,-0.7651175174715488,-0.7128050700418262,-0.27787212839837794,-0.4233890267521018,-0.36154311994353505,0.19904926353858104
-0.6544871065427093,-0.9904781813945123,-0.6741289670165028,-0.6125086110772964,-0.256816087750534,-0.3799393708126161,-0.29587110308737136,0.2176572161910577
-0.6787874666418666,-1.0194368926610196,-0.7001012563873785,-0.6206408069604399,-0.25678070280352594,-0.32814957857477833,-0.29014128056137184,0.20586309739526615
-0.6832951438614693,-1.0278156030901993,-0.72205554210984,-0.6424510054098249,-0.240183573425146,-0.3392566330089969,-0.27481772923863634,0.23747303445947254
-0.725476946933745,-1.0586628545386623,-0.7808730989326823,-0.7064546871979864,-0.2721846412076975,-0.39161369773108734,-0.34895487525784097,0.24472275089320705
-0.7377063343080119,-1.0618405753864282,-0.7505764741491523,-0.6865262477782743,-0.2757555181614697,-0.39930878869924324,-0.36759330565099646,0.18539428846427292
-0.6333297454727473,-1.0476269294432308,-0.6558595434664981,-0.5857220030150259,-0.26632061585308336,-0.3398960026277618,-0.2992376153640812,0.17255295329700487
-0.6755811187289749,-1.016148085177683,-0.6726164408534224,-0.6038310035806027,-0.2692527644427991,-0.37207003082485346,-0.2939087067907265,0.14728287799365575
-0.7000230984585154,-1.0607440545138853,-0.6996226608985406,-0.6349952127307913,-0.27030139849368734,-0.35528524592547917,-0.31703338741165576,0.16740991013148737
-0.7078930397792209,-0.990128519709828,-0.7122831395997515,-0.6411680937822452,-0.2774571929746027,-0.37251518137793826,-0.3533886527496991,0.14426671372549926
-0.5082114323024719,-0.9526390801511604,-0.47697436321478215,-0.3805350293062091,-0.26847719669666303,-0.33102839353235114,-0.2886220521410265,0.17992299507113285
-0.4089475083176016,-0.8901873435192537,-0.3728110921471179,-0.2735894395873889,-0.23109147744638547,-0.288975656746421,-0.2626069112240611,0.19027915233684828
-0.4971656146559666,-0.9223506447040732,-0.45428591927752204,-0.3899185216841046,-0.23651811646052806,-0.29520117126832834,-0.2753481092026061,0.17564238163057633
-0.6408362490926246,-1.028249546365611,-0.6443964811486462,-0.5823687564703185,-0.24039158869576432,-0.31616659135326847,-0.26427784999355813,0.2614196424836325
-0.7288590763292369,-1.049052357799236,-0.7108393630191219,-0.6400001498792115,-0.25102552999122324,-0.331339731077525,-0.2877301994703494,0.21246811616517491
-0.7337384026473837,-1.0479346760131083,-0.6673886145372294,-0.5797597758834332,-0.20624866563633804,-0.23900233850157598,-0.2050489494557885,0.218044220534376
-0.7604082433408155,-1.0577131823814112,-0.7156469712357466,-0.6342102914804824,-0.20108675035676624,-0.26589809476504056,-0.21428158950468948,0.12088484396489269
-0.7535776808216756,-1.099279402063957,-0.7269664540918159,-0.6463133829755197,-0.23778124316407984,-0.32109263841943425,-0.2665362131880995,0.13769909944487774
-0.7811967633773222,-1.0385698070153877,-0.7830475371994664,-0.6845656628049351,-0.2482224327413795,-0.32298864035166786,-0.29061740874878744,0.14927097199265005
-0.6850933783387871,-0.967728758854461,-0.6592744243368253,-0.5669095802553048,-0.23646149303607536,-0.2419811543410766,-0.19066042631258376,0.14953209697580983
-0.6965744633620351,-0.9691944407000607,-0.6629967709326395,-0.6009196283613737,-0.18569106077774894,-0.24862832418615832,-0.17860096372473352,0.12347776455289067
-0.6906345640091949,-0.9200719731041436,-0.6668091984361925,-0.5918070306691173,-0.21069667866979525,-0.24549341816759,-0.2130535522172989,0.12774172941809703
-0.7252269587030916,-0.8961701203454436,-0.70396354842526,-0.6249457737218461,-0.22520246148835155,-0.29650345291397745,-0.28094166396313835,0.06238071715069471
-0.6453741836641754,-0.8560129258720719,-0.6130804153149022,-0.5215332842584651,-0.24372608790106298,-0.2885519340694974,-0.19957016213848938,0.0684714714729236
-0.6619663408461182,-0.8303935222271379,-0.6213782325459154,-0.5199183870054618,-0.23386202394760458,-0.26484573360899377,-0.21545542539190937,0.03686255860862156
-0.6647155073073157,-0.8258656599925647,-0.6251053081218343,-0.527322765983895,-0.2488056809744739,-0.2554067407253306,-0.23684729747672334,-0.0411375997696205
-0.7169225352708042,-0.8998182215971755,-0.6702002281215078,-0.6174522833683914,-0.26949675319005206,-0.33128836612907026,-0.3112447172062761,-0.0751837061343412
-0.6516351323489014,-0.8285457373459879,-0.601897866060177,-0.4939594409137029,-0.24420722013926408,-0.2758330167888521,-0.22383255797293108,-0.03573685201945445
-0.6225769644736074,-0.8010416129088835,-0.5523631884540029,-0.4672768958906046,-0.1966480464259585,-0.19879637623291727,-0.15655007881231303,0.0035996868817903815
-0.6321380757970226,-0.7520222837079716,-0.5820098355011027,-0.4923805929888309,-0.20044645202360217,-0.1804921759523801,-0.15873560510431478,0.003136514729592449
-0.6754806072926645,-0.8087569667350735,-0.6481335570810817,-0.5597778071836066,-0.23839185086679754,-0.24728677008918984,-0.2204109532090904,-0.08001278630369929
-0.6687389084400839,-0.8634300537945763,-0.6058721171630874,-0.5084998904006156,-0.23411403339920078,-0.271084304135373,-0.20477320614938313,-0.06006180467536962
-0.6272733747458435,-0.8164793049497392,-0.5545786127876905,-0.4584598253165389,-0.17840622445109863,-0.17758211119367318,-0.12427568723766791,0.010291732806432308
-0.6339436838061192,-0.8562072139260754,-0.5935705058594988,-0.49432503979774955,-0.16515603516706243,-0.16953228233128384,-0.14134182456468264,0.029521665871977687
-0.6758499284713949,-0.8937597271543496,-0.6281479525289664,-0.5529772771792634,-0.19862568571466835,-0.20000502773832834,-0.1665444511744528,0.06832516583970272
-0.6803257375389691,-0.880441359938676,-0.6457790663891179,-0.5580855585489964,-0.19684380210679808,-0.2208713894947751,-0.18684537890774958,0.004040398334784007
-0.6173504735157167,-0.8697584333855793,-0.5642554383593734,-0.4558854531399984,-0.16382928656971135,-0.1426767850929631,-0.06699035428305716,0.07076354758576778
-0.6513106564070734,-0.9052184806908227,-0.5895657093569341,-0.49303367499500816,-0.1418405031257484,-0.16386347274378113,-0.08450385783908818,0.1165199787772464
-0.6585564556874803,-0.8611812928218185,-0.614582039640553,-0.539748183720962,-0.1505614628224739,-0.14784567750636599,-0.09839097238205159,0.13558459271027962
-0.7113390591141282,-0.9071225946616777,-0.6818245658906723,-0.5658678374345155,-0.18423416624277633,-0.21012600315606408,-0.14724520668255453,0.10005173192766742
-0.616689874544072,-0.8899273220592071,-0.5706662642258239,-0.4650709959236482,-0.15729163652713513,-0.11637012783513946,-0.0457363647081733,0.1324353595320978
-0.631069291984496,-0.8602713030925963,-0.576960002484693,-0.4779782336492969,-0.13540218587485556,-0.08345313009014238,-0.050506115985379185,0.15754793608226142
-0.6367294967598569,-0.9015578818378223,-0.6144344290067516,-0.5060440640746642,-0.14624359995329897,-0.14448394688975474,-0.0788899503128894,0.13336278368457588
-0.6874078518030935,-0.9135539727849751,-0.6472364629155634,-0.5558680441353439,-0.18280326530466426,-0.186302793660919,-0.13834396589858533,0.11174024402352367
-0.625619213786929,-0.9643393141935039,-0.5849280192246974,-0.46320951587357617,-0.12096237430435926,-0.11508316568558669,-0.01848761788756645,0.23919041406455416
-0.6112863120638586,-1.0386605514819376,-0.5648483911622179,-0.4676882271339764,-0.08086644350327311,-0.056832670325887014,0.021477500190397403,0.2636065515087032
-0.6373637823632539,-1.0555756442443225,-0.5976458989802982,-0.47264823288085367,-0.10603336876524752,-0.1122382880163323,-0.014174841191442078,0.27209700432231365
-0.678650427600567,-1.0959455285835658,-0.6510670122590098,-0.544346603910747,-0.10072036392224092,-0.12703696280217203,-0.06002485257652704,0.20939966646318786
-0.7050821520130398,-1.0016870609016642,-0.6627324556888603,-0.5381226904761057,-0.13894778772910116,-0.1632025722875844,-0.09147002800326945,0.22948668086903962
-0.6320151713691292,-0.9912767619734828,-0.5699824664812748,-0.4660735691133958,-0.09169472685449034,-0.09648749247671712,0.00301580166808621,0.2539539493069757
-0.6634775027454871,-0.9834380281753499,-0.6403041938066945,-0.5044835737923539,-0.1378694949335177,-0.14768307623654514,-0.05250193021098973,0.2099556569712765
-0.7027380662547783,-1.0333569291200524,-0.6874178250844972,-0.5618865648543805,-0.15119734464567053,-0.1832584552973074,-0.11733071733406768,0.1971204443041028
-0.7357062637459588,-1.0656941326202323,-0.7342239393788431,-0.6273338060443974,-0.17864129084635122,-0.25138193620796134,-0.16694185542835835,0.22199873464869418
-0.6920726925095456,-0.9952086794558441,-0.6646282819550206,-0.5343870920771894,-0.1635316964915329,-0.16406908520230715,-0.09095059700573882,0.2500479846066771
-0.7066732212550934,-1.0358160948108097,-0.6856166128481092,-0.5828084733357126,-0.1597174928544822,-0.1902409806307914,-0.09033084936832311,0.2250155441827988
-0.7341667101085256,-1.03310969013068,-0.7404652324758785,-0.6233552159486997,-0.19779416753120466,-0.2237491265004947,-0.14847494322019078,0.16682264730650093
-0.7874324616259454,-1.0380048720402584,-0.8033377301092336,-0.7113631976027921,-0.2341151462463386,-0.27775880270123715,-0.22643314576309476,0.1536958630310899
-0.7653711722086801,-0.9996925649492823,-0.7526419829807452,-0.662003621806707,-0.2316943392806671,-0.2711787460076917,-0.205468922313978,0.16403652920376444
-0.7550257592275288,-0.9452480461542574,-0.7241388089818241,-0.6448784232860358,-0.21260354158284855,-0.26778189232801464,-0.19575845419894458,0.13991393292939047
-0.7630211116320457,-0.9721514869587297,-0.7502570378643912,-0.6696845579840452,-0.24385307766713699,-0.30677208634332087,-0.25805930810892574,0.030852975982777253
-0.8005866260691157,-0.9780589483842788,-0.8020227194322712,-0.7234140221671245,-0.3170315017811113,-0.3662849790654128,-0.3368830975827801,-0.03655340374704863
-0.8081780144486003,-0.9232829259497461,-0.7972616094235245,-0.7326457034217725,-0.33890883243101855,-0.4036274566021949,-0.36227466020884597,-0.07002764859509558
-0.73665752350191,-0.7708979551299979,-0.694151922091147,-0.627796807936507,-0.3051125587830632,-0.3487424364344233,-0.29228115403108396,-0.12475574948981313
-0.7706686495561544,-0.7567012604721579,-0.7221062076209149,-0.6711107332885743,-0.30533126024013635,-0.3929955776013831,-0.35320376662337666,-0.2008042679639331
-0.7938618811711644,-0.7414283435163653,-0.7742322563150295,-0.715769736862348,-0.351580702104737,-0.4363298115716354,-0.4103281530607992,-0.2568409755084494
-0.8288411164599168,-0.6871957222101519,-0.7808128398470775,-0.7373835321622096,-0.4031135463070037,-0.48830484517752437,-0.45805299797963145,-0.36852727644966976
-0.746925222469579,-0.5917935343815205,-0.6891327268873678,-0.6214871333050231,-0.3521618508368659,-0.4273162824992856,-0.37381341165212983,-0.32270076983610163
-0.7639511241540597,-0.5724290970395922,-0.7014605659891973,-0.6610857013405624,-0.3553719852734998,-0.42462593548766947,-0.4066214409606891,-0.3588259339016566
-0.7780144322063387,-0.6035431858652798,-0.7330670144772558,-0.704579445247302,-0.3424843900487148,-0.4305296446341048,-0.4051092391560851,-0.34296043086160244
-0.8205468858225264,-0.5975902346187685,-0.7887389906886348,-0.7724883219689905,-0.35274107347362216,-0.45522435698254016,-0.42594669028347193,-0.36099830218838364
-0.7342682739294877,-0.5106093678451786,-0.6866287378244624,-0.6435309181843505,-0.3075166836297979,-0.39684596703029085,-0.32794588205726166,-0.3021440492695783
-0.7342597893220245,-0.5446714332206507,-0.6840973279395106,-0.6566415028259834,-0.32219149568764854,-0.3749190089120905,-0.3297721716861367,-0.3292433507717954
-0.7658849202062754,-0.6337352581264247,-0.7158197091101142,-0.6834164487380713,-0.3013411606223698,-0.38122594975675295,-0.33428564949580436,-0.2862378158164608
-0.7983878727818339,-0.6420271882130756,-0.7556649432469835,-0.745525255042043,-0.29970907478649533,-0.4079559548521301,-0.3783104304979827,-0.24378132097025632
-0.7161898803487824,-0.644197213718001,-0.6586645105415047,-0.6213045465005455,-0.29885702005006215,-0.365066979404856,-0.3095002702051728,-0.23760438935605876
-0.7397880257059027,-0.6661707193472401,-0.6907587161948768,-0.6422914300280907,-0.28833668621785213,-0.3916277864768887,-0.32560793153251943,-0.25819626022982883
-0.7539590224415137,-0.7450846911442695,-0.7457389547410054,-0.6771503251802152,-0.30259227770255037,-0.3842166324413403,-0.3558639832851195,-0.22269127584453982
-0.8246209265322608,-0.7678850760758753,-0.8070656924567594,-0.765744832241557,-0.3376177384019825,-0.4432769406850771,-0.38424530442423954,-0.25457157467862335
-0.7533855339255058,-0.7204010374098593,-0.7371621672240255,-0.6532379317895328,-0.31267196550246396,-0.40310040765687427,-0.342203746057898,-0.1652200552300338
-0.7644000734497715,-0.7857613768062581,-0.7506741140184205,-0.6873101468665357,-0.3165375168491804,-0.3981697111968334,-0.35023189999752136,-0.1637767614689577
-0.7785406987658341,-0.7658479285868502,-0.7777279719362471,-0.6962406768095096,-0.2995387561708711,-0.38098847230836064,-0.36191707428474185,-0.23327281464128233
-0.8337154251104515,-0.8209386473271659,-0.8414093593341067,-0.7764655767919925,-0.34121043744038304,-0.45378720031925757,-0.39528741514112853,-0.20458561141528814
-0.7658407203025828,-0.8525076650782482,-0.746774997144375,-0.6911821862885135,-0.3398821750938076,-0.42680154964206973,-0.36081851768024137,-0.20564888448705515
-0.7558437923024788,-0.7794523805072798,-0.7549146860559044,-0.7020721619370505,-0.2925304882827181,-0.41946521655967006,-0.34905196258016136,-0.1857027146488975
-0.7727818824010746,-0.7536923752353031,-0.7773833988303349,-0.7302415829237066,-0.3122172303334998,-0.396950467996335,-0.36253364410697636,-0.17793272647177694
-0.8016008209525062,-0.7787232911971553,-0.818866872110501,-0.7601890160030743,-0.36844785391803264,-0.44990204330193173,-0.40954762620473895,-0.23097235880931316
-0.7458731296370881,-0.7324279623344603,-0.74044955792148,-0.683396750469096,-0.33352193539127317,-0.42837479716668164,-0.3751968024466944,-0.1781360883538426
-0.7320204019085337,-0.7411878390224997,-0.7281496481341957,-0.6816728985869315,-0.313221804999805,-0.4100807249327959,-0.3322740438066193,-0.1558471331702638
-0.7422085522498747,-0.7498559880154655,-0.7365315771390544,-0.6859799773504616,-0.3101971255139617,-0.3999585689911539,-0.34924133742193497,-0.2066881769735684
-0.7802763566288324,-0.8003679439168631,-0.797583498363484,-0.7405062605042212,-0.3346348177323417,-0.4893685538371858,-0.41990961180299263,-0.20070363651699644
-0.7105864294873725,-0.7844275644747256,-0.7115930487175712,-0.6562873953821227,-0.31101880217651157,-0.41129293642578624,-0.3249910613594723,-0.18469519545533963
-0.702677144298046,-0.7015833760376233,-0.6942050254818755,-0.6437431634696383,-0.29889259528352996,-0.38293873521561483,-0.3104842207767621,-0.20767653655214133
-0.7156957603808636,-0.7492376192852219,-0.7267803052682664,-0.6712526968071403,-0.296108474387913,-0.41268105371094665,-0.3310004857145976,-0.22035173566451535
-0.7653372295770635,-0.7587935733180422,-0.7979065184108802,-0.7265095517141061,-0.33851595668226375,-0.4705967536831558,-0.37146391757113817,-0.23184917804954625
-0.6969388884521864,-0.7298507180990175,-0.7093085151378355,-0.656250204084565,-0.31885537826430393,-0.40721622613326,-0.3400433182409624,-0.1879111063041956
-0.6694528912109106,-0.7427036249932515,-0.6831264001122636,-0.6108280669055044,-0.28031797819770965,-0.3770553252124126,-0.3134352117557144,-0.1858020112528058
-0.6951229416511646,-0.7488780857457704,-0.7066591703793728,-0.6444311937572244,-0.29289659042432376,-0.40323219834464513,-0.3048832018900213,-0.2562225582591363
-0.7308254213512725,-0.755210164181796,-0.7412219787838703,-0.7113312441125621,-0.32880334947227197,-0.4400694222991217,-0.35545810294048436,-0.2286931004279717
-0.6742972568401728,-0.745470795545578,-0.7151219729317512,-0.652902905511964,-0.3261519274304976,-0.3924287783193935,-0.2970277568713732,-0.20963340696562707
-0.6507626877322701,-0.6553789482297453,-0.6555971778532812,-0.6029857240116869,-0.2709936119386293,-0.363176195814493,-0.2919008915451063,-0.17612139775490254
-0.662601411265672,-0.7223290169316291,-0.6786849883976627,-0.6227736017203633,-0.29382981647501516,-0.3799833188010422,-0.2924982847736288,-0.1726181682486171
-0.6817068161971673,-0.6890545162135857,-0.7105676960426079,-0.6508762726497411,-0.3293619306653577,-0.41655009269879695,-0.3767759078407081,-0.2273324499219609
-0.6776897636964778,-0.7195711834142893,-0.6943960345888665,-0.6462551863663811,-0.3113616337657297,-0.4437890829986535,-0.36134061407579965,-0.20007090383601595
-0.6185455859706365,-0.7030875409822568,-0.6439182973577472,-0.5717086689936961,-0.2487279862519594,-0.35384976067178,-0.2439850640867069,-0.15582438035535517
-0.6350359662130314,-0.6598079543643511,-0.6373916589758366,-0.584993976916929,-0.26575123139924606,-0.34755990014620236,-0.2478609676526806,-0.19952357509325813
-0.6660983311684925,-0.6385461289748899,-0.6775176911650349,-0.6596252005182519,-0.2529075116330437,-0.34459393514397313,-0.2624342341082735,-0.19887424964045197
-0.7014112968181724,-0.690760424607729,-0.7272814155748918,-0.6847832735754374,-0.3003732359314816,-0.3994939281784362,-0.32708238472051154,-0.14691802666367254
-0.6287564546079446,-0.6346000753334586,-0.6453346056316062,-0.5930866726686248,-0.2525864734590935,-0.32590079128964355,-0.2589325407596202,-0.1442995118832145
-0.632592255395677,-0.7080357275214837,-0.6325995867308362,-0.5850194806010424,-0.2215945192560046,-0.3424035425098103,-0.21303770571953926,-0.16366378754042063
-0.6625254010046623,-0.6603223778721907,-0.6580823561554434,-0.6283484988334997,-0.2286094187844127,-0.33645151300668086,-0.24500466905400642,-0.14673246294610115
-0.7127100524052868,-0.73622397797135,-0.728154238730707,-0.7078252880851361,-0.2527002978169532,-0.38254101788624917,-0.3208944793408194,-0.21052363629537377
-0.6962154781587553,-0.7454884405328158,-0.7194065835421048,-0.6544160757081254,-0.27606160883637276,-0.39591409147512024,-0.3021633074356779,-0.16753507035350762
-0.6780104808318129,-0.7548377647384373,-0.6772090800805922,-0.6318546491574627,-0.21832696864996623,-0.335250164592997,-0.24430422417406117,-0.12756609585987905
-0.6937687164974049,-0.8052418839756278,-0.7191621515130107,-0.6881973699222768,-0.23617586822053854,-0.34566208855789043,-0.2510671830107485,-0.1644221926411489
-0.7439748592087587,-0.7978931118378216,-0.7732762655299614,-0.7255562840622644,-0.24353723476258782,-0.38076228511822796,-0.29689893342219725,-0.13200578018125783
-0.765126133395311,-0.8370609481247919,-0.8045528999001086,-0.793264267812242,-0.2903792779938121,-0.4210107636281204,-0.36282628498307834,-0.16009022099849585
-0.7024638778772988,-0.7516907467135461,-0.7142955730688945,-0.6983691483779774,-0.24268250330581936,-0.3485911005820099,-0.27526583501888513,-0.09767711548556485
-0.7299058612164444,-0.8041804354539904,-0.7576601835687691,-0.7184351563465431,-0.24612694026405532,-0.37298013826224097,-0.30345287080886707,-0.14482831313971056
-0.7472700451664929,-0.8044182512970819,-0.7919723851239596,-0.7682070470194233,-0.27504053537895073,-0.40085825212740733,-0.3432382504427105,-0.13954268507777653
-0.8019341846939492,-0.8380067125881507,-0.8503685575647384,-0.8198164980958115,-0.3120695633333535,-0.4672702989317776,-0.3972090899800086,-0.16596174052396256
-0.7481729487988965,-0.831095895946609,-0.7768535975447045,-0.7523508985386442,-0.29308591392573036,-0.4288233132190618,-0.36250158628599227,-0.1726781421483875
-0.7292553208388239,-0.8125245974431259,-0.759581140882341,-0.7352150990861486,-0.247420491130356,-0.37783993614727396,-0.31585931038841664,-0.14717216991020446
-0.764556802848982,-0.8330680148489757,-0.7872796463435259,-0.789985455911673,-0.2487194717753847,-0.3902208294039319,-0.31799379166174596,-0.13881710988891016
-0.8170231747322145,-0.8826115861357113,-0.8766241936535104,-0.8691976625938493,-0.26651126439122763,-0.43526366969066366,-0.369649329889047,-0.06064144144032152
-0.8140674375283053,-1.0098437999466383,-0.8514283591154257,-0.8583282689462592,-0.2868869084005065,-0.4087948154971173,-0.36081191070826546,-0.04197832616171798
-0.7681272003149441,-0.959655795579804,-0.8070726867450256,-0.7804444369524172,-0.21008496319141046,-0.35072750494562177,-0.2661516282537815,-0.011723154466930508
-0.7732870256192975,-1.0571896224779143,-0.8261426027709622,-0.8201444815718176,-0.2231323726359261,-0.3648200029275216,-0.2958137259381434,0.03149493019536298
-0.8216912358678374,-1.0529582285605135,-0.8717607451997191,-0.8670412852517949,-0.2305093814092698,-0.3974131876037633,-0.34262544370288484,0.04649742094018261
-0.8559419842122775,-1.0937517787669901,-0.9232395045147157,-0.9236787705829155,-0.2763435037733586,-0.46199726962532717,-0.40238314535757846,0.03848588939086306
-0.7791363847077597,-1.008779198782821,-0.7975923020944065,-0.7920694181447723,-0.22076353572952828,-0.3821961583496245,-0.2808236128364435,0.08525057680289799
-0.7786985037641394,-1.0393542082760037,-0.8338577946757075,-0.825930324531247,-0.22050795370713805,-0.3737035850975899,-0.31252634762929277,0.08714832955652896
-0.8091391088230533,-1.0835967270146842,-0.8623935779279082,-0.8775914102119409,-0.24698739423052718,-0.41814574861386644,-0.3313504688372457,0.1025295031598723
-0.8646076059927028,-1.0909893332568366,-0.9214343987701334,-0.9455692311762993,-0.2718939978507629,-0.4822156396582272,-0.4177026215266495,0.025641770724881885
-0.8069447584176799,-1.1140590886639776,-0.8722814381229531,-0.8695825708900164,-0.28390183385823087,-0.4445585280014304,-0.35907674628234965,0.05721720528268748
-0.8071914374135232,-1.1120639238185337,-0.8591756764859335,-0.8629739881726497,-0.23418235208478289,-0.41857878983180863,-0.35986792836592063,0.0497332852758961
-0.8285817974840725,-1.0895921223340796,-0.8961409533607683,-0.8747613497425539,-0.2582699570271021,-0.4496241845676501,-0.36728695297905745,0.06063927128610225
-0.8735310173280824,-1.1327936032438553,-0.932412141189999,-0.9564534511259646,-0.28875017615872994,-0.48752231645724153,-0.4163500976823748,0.07391638907988424
-0.861593825593764,-1.1386893263601001,-0.9430524894700896,-0.9496551470662817,-0.3248535308031627,-0.5206536758103071,-0.4450734664783021,0.04207683445977112
-0.8127458068896505,-1.1052684778090378,-0.8543211403899026,-0.8828245159874122,-0.2807500383679674,-0.44264444254029933,-0.3633408545998347,0.05630395934926169
-0.8398740158771958,-1.0987842821549405,-0.8933152232037447,-0.9209274589241246,-0.2986507648124129,-0.47673306945582383,-0.37395834440031206,0.06363230630348327
-0.866251563891597,-1.1535004985900892,-0.957657528856819,-0.9521878359557565,-0.3199685198806088,-0.4924091334427498,-0.4386788572205817,0.031957957900237755
-0.8981833626216791,-1.1304530935941848,-0.9702477179010218,-1.0110960275154421,-0.3367190854077329,-0.5445153374718066,-0.490063847807927,0.01280799404415267
-0.8309705654896518,-1.0496458613164945,-0.8733371381226902,-0.8956484772083577,-0.29099688209954033,-0.4558169353200448,-0.37979052636101795,0.05746051691331744
-0.8328279628615993,-1.048397691481335,-0.8958521125173036,-0.9306710057995465,-0.2848837765364565,-0.4514647733114101,-0.3899353897752185,-0.011279795849256868
-0.852536760805921,-1.0484530432327566,-0.9064207197118637,-0.9507507654169178,-0.31190113567057776,-0.48961339067703835,-0.4195851985591723,-0.013721886024276653
-0.8851199211169487,-1.0139615210931086,-0.961639424765738,-1.0058009864092916,-0.3267370062407435,-0.5416543913027213,-0.49483789709656256,-0.08798377726204806
-0.8215162453785816,-0.9702934637524261,-0.8581210769688586,-0.8792317701722883,-0.32434345805622167,-0.49811361968110385,-0.43747926945103277,-0.0781169224712531
-0.7945097120887542,-0.9139519025612144,-0.8286644434988493,-0.8648970422294822,-0.31043457189638185,-0.4458275422443182,-0.381662665098329,-0.0824343769632731
-0.79956509746373,-0.9267984550481654,-0.8475300238357912,-0.8861581032312815,-0.3044236480099102,-0.4731347090567677,-0.40972830592922527,-0.1281549646363023
-0.8375722420243419,-0.9271995231651629,-0.9021865487396985,-0.9287491341623784,-0.3124223293066417,-0.5163296530295414,-0.47981431286386983,-0.1290141231267247
-0.795750094620107,-0.9334884560140378,-0.8424416329919058,-0.8610254077813521,-0.3084899876340109,-0.48403625937349315,-0.4220575969121878,-0.12747422150506044
-0.7657340722637935,-0.8615325207979185,-0.8103288427646567,-0.8119038738886278,-0.27390012352163484,-0.4220052714509067,-0.35012510791581597,-0.11561876748372263
-0.7628010331342017,-0.8556546049972866,-0.8127947034306929,-0.8263977479948128,-0.2694630269988362,-0.4364477993688276,-0.36079400065398365,-0.14521906379967947
-0.789319736657252,-0.911725340149405,-0.8563477533481931,-0.8728761077200247,-0.286445272101453,-0.45422074413082103,-0.3994252063225009,-0.15879317210535712
-0.7937468594856285,-0.9070523411113437,-0.8367131149809808,-0.8747509168877485,-0.3116654773148966,-0.45573774720429644,-0.41111861752178414,-0.13272125014515185
-0.7134103381510855,-0.8375706381916908,-0.7672831383091434,-0.7832605539715775,-0.24542473345512733,-0.3867157671826539,-0.3149102662946511,-0.09900342195432224
-0.7247716512372349,-0.8001652643117583,-0.7568675167537096,-0.7993158945384653,-0.2554895891039308,-0.3858799505037641,-0.33085418603938455,-0.177842335609352
-0.7568787200758537,-0.8586677668613716,-0.7857938963655096,-0.803534111609747,-0.2676245587020515,-0.4319319508521685,-0.3352432516972789,-0.16167817804209955
-0.7781592261668726,-0.8843214931523256,-0.8290011187866511,-0.859841761661456,-0.2905400273094465,-0.42867102586912437,-0.384398395535974,-0.14236471749422097
-0.7016875427033895,-0.8477183324539922,-0.7394993933663655,-0.7414670967655447,-0.2674971260823439,-0.4086116700165062,-0.31195951080279394,-0.13994138296573955
-0.6563311087196375,-0.7738325471220997,-0.6950498793929676,-0.7056492595136662,-0.23720621530818387,-0.38843209102516163,-0.3262324804347254,-0.1717902756756369
-0.6699148389840286,-0.7603318456403227,-0.7088524867311373,-0.6942893125188193,-0.24665525929022963,-0.399698569378815,-0.30947908471756724,-0.25640368170337857
-0.6949322547286263,-0.7691241187990723,-0.7437176796193942,-0.7237185350125267,-0.3169729005158595,-0.48656796519407963,-0.42800848486009246,-0.43920796660739225
-0.7044096437698524,-0.7033435238168644,-0.7583070850322557,-0.7620058528860252,-0.3647984518102098,-0.5151357164690491,-0.4752270274155812,-0.4037156612750804
-0.6331968838729591,-0.7444470960036067,-0.6578182399116173,-0.6462156587786195,-0.27097536494391816,-0.40300548898697464,-0.33985782633727757,-0.3041552021988681
-0.6491527610191106,-0.7625485301873575,-0.6901659015529903,-0.6796288475869943,-0.2676373467359801,-0.41270479519176917,-0.36334400707725556,-0.2692686350649748
-0.684504226155488,-0.8173943415122088,-0.7188592423023344,-0.7333821294331815,-0.26616800954071157,-0.39010981223736996,-0.34549540998501704,-0.28357266834891337
-0.731937233191045,-0.8093107406032392,-0.7916815561422121,-0.7972513206059779,-0.2661322645390832,-0.4181637014078722,-0.3633670701679804,-0.1917634731226152
-0.7450260053112006,-0.8891302694298169,-0.7862392723349317,-0.7972139975129657,-0.250096618392933,-0.397433742494395,-0.3287523507029506,-0.17805599689795645
-0.6984619489375643,-0.9196903245020268,-0.7441064604201296,-0.7624139709299359,-0.195284324161917,-0.3023913416453507,-0.23749095205939852,-0.07676120520124186
-0.7251099936953881,-0.9676810047072606,-0.7546344680301212,-0.7682231495191677,-0.1816638705422549,-0.3247330163778002,-0.24975074457963464,-0.04563139636456012
-0.7510693634881904,-0.9374196377094165,-0.7972395646175569,-0.7955504266942837,-0.21040723069595024,-0.3735290161809029,-0.32054568495562785,-0.09563013089656225
-0.776052640578928,-1.0468914588675315,-0.8320067921787173,-0.8766946537594487,-0.22651359647439445,-0.4243771483550257,-0.3542194425883822,-0.08281119275125617
-0.7316040346265636,-1.064685461746596,-0.7636921290965791,-0.7736830262865891,-0.1689278437238754,-0.3226176240561773,-0.21336076764080403,0.08670111568721967
-0.7400536672401989,-1.1067648673161696,-0.7709387744309245,-0.7675030714282853,-0.15159812962453956,-0.28225145351300723,-0.2021709215395725,0.11201870689353549
-0.7667554854260913,-1.124954789182956,-0.8239636331979296,-0.8203245120377607,-0.1407531093618204,-0.2901289842142198,-0.21933550609518243,0.1431748643116172
-0.7922217180892204,-1.1789183809229316,-0.8731147283725786,-0.8680163713208757,-0.20429000038623812,-0.3444586722602443,-0.2723933696847808,0.11382516389783753
-0.8032983362660469,-1.1183854854053275,-0.8674526942008272,-0.8629208901891665,-0.21350356483831587,-0.3943622057461134,-0.3189464892389148,0.11687160342957692
-0.738635574027348,-1.063110209200289,-0.7750313977179065,-0.7853575189884786,-0.15664893044676736,-0.31800954576765916,-0.21266904893899513,0.12713926896183386
-0.7397416651858314,-1.1140272505981308,-0.8117420490379265,-0.7868103165805681,-0.163995858016705,-0.33805799796498265,-0.250935159237826,0.07126468021274257
-0.7806070546721104,-1.1489125329601397,-0.8323319384976094,-0.8371568424501608,-0.18016504721630647,-0.3637147046580559,-0.2803322627405712,0.11084047132890923
-0.81637634033629,-1.1658769784714855,-0.8984922822392456,-0.9253737425704165,-0.20035455123880705,-0.382865088815443,-0.32742926434033937,0.09657935970837606
-0.8151609044086847,-1.1947654020175504,-0.8792175145220237,-0.8931382071103457,-0.20922430996983715,-0.3799439316966565,-0.302443247128767,0.09980267269378523
-0.7668702967556772,-1.1323762498790781,-0.8230286831604555,-0.8386427741347594,-0.14742231385997984,-0.3273518482223102,-0.2533794218951192,0.17686817552128775
-0.7851332571414312,-1.1321596106857599,-0.8496852945486829,-0.8741510347557166,-0.1800748257661654,-0.339726412515617,-0.27213013335809294,0.13529015438894348
-0.8116461740316537,-1.1767842521142837,-0.8805650591790767,-0.9012187241658993,-0.20226885164625652,-0.36707936846492395,-0.3058881443844865,0.08803344310166622
-0.8502585180173903,-1.168857477477472,-0.9215828209741421,-0.9333901020035283,-0.27208641216065343,-0.4330842432901293,-0.38068918195794843,-0.007316231762664938
-0.8150384270292723,-1.1109123565154368,-0.873039348969607,-0.873247834034691,-0.27512191949568077,-0.45780480790254063,-0.39374258317755556,0.025768868219456953
-0.7695174803679856,-1.0657450935196342,-0.8281956413403944,-0.8298201344167475,-0.23818483816595848,-0.4189801361942344,-0.3305548830627446,-0.010950625083524679
-0.7462084695898734,-1.0696508763738661,-0.8081479588108038,-0.8129334376615599,-0.23449878042408584,-0.38680132633077513,-0.3167807349863676,0.0354380981741394
-0.7167789325514885,-1.072411650131988,-0.7762216371264139,-0.7883759395084678,-0.2411213384953147,-0.43070106664126917,-0.38388856288827666,0.03232673631569799
-0.6753902110501925,-1.040581114958227,-0.7407169065285577,-0.76110053465625,-0.2785187685729716,-0.4669077131130732,-0.4466986169691193,-5.47110483793356E-4
-0.6150499750289348,-1.0950069372948348,-0.648556180100148,-0.6721913008196649,-0.20693925146079267,-0.39246729662944524,-0.3097192476606289,0.12440082010357334
-0.7094769813631973,-1.1533752301157172,-0.7816785569652883,-0.815686793793318,-0.22003002110155034,-0.3869213490615546,-0.3150080535489531,0.14816268702372515
-0.7761694602087639,-1.2061138300871388,-0.8568054627850592,-0.89936794922664,-0.2211793261398688,-0.42237625023791847,-0.3460909649335497,0.0945320597860555
-0.8180921361374931,-1.2687623488244957,-0.9137226002918504,-0.9371538561126771,-0.2834222463162933,-0.4684373114907546,-0.37354713244524756,0.04777873337996241
-0.8430206113869027,-1.2707098902492557,-0.9151515392360963,-0.9463333705452976,-0.27805506758419807,-0.47305376856059345,-0.40040385471360146,0.07567172134962585
-0.8026598834450479,-1.2392251277302884,-0.874443997444424,-0.9153680881864317,-0.23976217221072438,-0.39897858772581873,-0.3351006371161116,0.0793934179544783
-0.8159422937861606,-1.2424831467681834,-0.9114620633546802,-0.9364797643260208,-0.23506010434762936,-0.40175279347745535,-0.32053129268073177,0.09403988041149669
-0.8498644791907408,-1.2741681542811265,-0.9406655773783028,-0.991678466338225,-0.2528549357632323,-0.4292483146846374,-0.36934491750508014,0.10123038295059528
-0.8731828687698711,-1.3299284411497672,-0.9956459369247195,-1.0345029030128812,-0.2755310955892324,-0.4598638176252813,-0.41224001488033246,0.08830362282463916
-0.8283569928092757,-1.2743613584662898,-0.8904782945780558,-0.9002327738042458,-0.2085807703836454,-0.40321115746770353,-0.32390820999515063,0.12482693347635349
-0.7677335044150415,-1.1971274147422897,-0.8288449332340916,-0.8635366007035037,-0.1702842860658586,-0.3493759433156852,-0.2576914963515479,0.16985787060385082
-0.7803523431788292,-1.1778847243498738,-0.8523971228132634,-0.8620235676886049,-0.19286760422264537,-0.3322156141936304,-0.282979565387537,0.11045719961935291
-0.8109138604487305,-1.2097922806558854,-0.8749500860466888,-0.925472053412658,-0.21744589010948845,-0.3886566673527941,-0.3202139126955639,0.06689294047817845
-0.8116950076641836,-1.1679706283520792,-0.8992208808501739,-0.9295339139769051,-0.2548296205336859,-0.3976018855148115,-0.36777932071632347,0.06773863166094268
-0.7322733136034894,-1.14999845177086,-0.7896250233608058,-0.7930205056997277,-0.16066496927111437,-0.30664299971916603,-0.24293890864851855,0.1455547901064741
-0.7332678714514612,-1.1238316647664994,-0.7658233346382142,-0.7985370059204222,-0.1216168368322431,-0.25793592004613686,-0.1982434777916773,0.18960497043927688
-0.7375722257369445,-1.1635371029563482,-0.7987299836401167,-0.8088185388320521,-0.13293245545220184,-0.2564672367959818,-0.2091808647215512,0.14535495674481635
-0.7541380781577677,-1.1744639552716136,-0.829636263191437,-0.8269790554273563,-0.14954649058700747,-0.28893543041084524,-0.24048299016721378,0.16075928759427355
-0.7412680180583116,-1.1430975640140262,-0.7929858280464486,-0.7879614733200012,-0.18218860609216345,-0.3256972134310262,-0.27784190775961026,0.1430569073313362
-0.563904511827419,-1.0505759656078912,-0.5841094157570865,-0.5680357486070648,-0.11623129408622877,-0.21684599005976604,-0.15644114157539488,0.22591058678166626
-0.4410330999050663,-1.0241606406704662,-0.474359774443179,-0.4350921073280034,-0.11358036090056114,-0.20351760916641856,-0.11055756962645759,0.2128393096701348
-0.47206969687449646,-1.0518182662418716,-0.4836461857516268,-0.49690556862949187,-0.09429892364157003,-0.1943682878482061,-0.1390597834323616,0.2382088856969839
-0.6547735811455881,-1.1393146269175949,-0.7134782714358926,-0.7224208977370666,-0.11902480354919862,-0.25610954039180195,-0.18422302082461856,0.21712903986555254
-0.6888111249118398,-1.2023353475429859,-0.7595804198917896,-0.7484922504389346,-0.16108446507289614,-0.2904660759483601,-0.21283554079671438,0.2130133699831856
-0.6028869260648495,-1.177980490113102,-0.6570551097098382,-0.6784137117081812,-0.10759152825921273,-0.20182022569818728,-0.09647965274822827,0.21914538027959524
-0.6292936086124802,-1.1770264108440116,-0.6927739714671048,-0.695886680182368,-0.09680488097526598,-0.20562992265860117,-0.14455154706179651,0.20708832004647576
-0.6701254952948488,-1.1851490226573334,-0.7280296080970818,-0.7194922609677543,-0.11772129173595594,-0.21777400044043826,-0.15736166901026805,0.13279786393440624
-0.7072895945696709,-1.2008469964857995,-0.7800321111929875,-0.7825574316536835,-0.14007671750959505,-0.24970868327885587,-0.20857318486928955,0.1392481468236053
-0.6957834792728352,-1.1636906943909642,-0.7457160074051945,-0.7404796040250337,-0.19912547077870044,-0.32367297171469767,-0.2926241259991159,0.039999250779438444
-0.6391456728827904,-0.9506926379602341,-0.6702109412289943,-0.632071667929923,-0.18510143654686928,-0.3154778404536579,-0.2290438820510097,-0.06003123931616866
-0.6458494155560482,-0.8970496992450996,-0.6990033655212176,-0.6830125918467012,-0.23521094626038186,-0.3486454555511176,-0.3091377717157037,-0.19417727077639702
-0.6996422702428797,-0.8218336528251631,-0.7255486102778014,-0.746394656775788,-0.2602409081028511,-0.38252162277620205,-0.3457884327175001,-0.24169043052320793
-0.7526125768121391,-0.7871172298935873,-0.793465634356175,-0.8037522323892132,-0.33748475839656733,-0.46461810353864785,-0.43567538409870255,-0.41197610862049916
-0.7092492899988233,-0.6434631158080478,-0.7068158622358233,-0.7101716184217542,-0.32493862634833903,-0.42925002772490795,-0.39927046807529964,-0.4402804733475551
-0.7099231885914017,-0.5911648003640797,-0.7191902586457247,-0.7426080420418059,-0.3165392133038163,-0.4175337616381313,-0.38803065158644595,-0.4076554031561543
-0.7239868563023387,-0.5032316606359105,-0.7317933903873151,-0.7550964883680917,-0.36229305836260384,-0.48965169846334294,-0.45580820946492573,-0.6338269479416698
-0.749106775949951,-0.5018851496741834,-0.7770217749891694,-0.8081251026625356,-0.3962948700827701,-0.5418532219060351,-0.5290048887785883,-0.6264856889324276
-0.7631372696935397,-0.4443035795324829,-0.752795453869074,-0.7880250339847893,-0.47815727573460437,-0.6193090213783004,-0.6106547616408495,-0.7923279567333844
-0.6915653330316814,-0.30851350348006945,-0.6712913584738818,-0.6923836244095064,-0.45381697553160216,-0.5841512418479863,-0.6026823038824938,-0.8257895420464522
-0.703683214123146,-0.41704179819466014,-0.65761552013388,-0.696263389674482,-0.48191171769809377,-0.6102636934754355,-0.632868517545675,-0.8751020857512242
-0.7325712346926957,-0.6223323344404211,-0.7374632823587055,-0.783797089909016,-0.4493410095993642,-0.6058598251404901,-0.594502910985691,-0.8510636600257384
-0.7361243018215342,-0.6904205887599253,-0.750081260804879,-0.7710703595143462,-0.4602818178046041,-0.6159373854962116,-0.5983560103305352,-0.817001039702079
-0.6282730966433363,-0.7209434445934378,-0.6012864374794087,-0.629567322470116,-0.4175858990313972,-0.5719955648635502,-0.5687781035673632,-0.7656555060530571
-0.6995657843805272,-0.7807769112877241,-0.6865108955070226,-0.7383726718601271,-0.3643397659787183,-0.47649052928445124,-0.48917065443888924,-0.6302032222124638
-0.7717465108981565,-0.86695225933388,-0.8005748501724547,-0.8344243279955992,-0.29858197495535127,-0.4502136654015395,-0.40197929994319803,-0.4289649830909272
-0.8501686475269005,-0.9169237084892781,-0.8833540325565913,-0.9388734344997265,-0.31991625183922734,-0.4840437436012017,-0.43895182392051824,-0.35352505191859984
-0.8677918618997633,-0.9690832859559065,-0.9063615838945537,-0.9576819620198349,-0.318405704815793,-0.48551583995890074,-0.45256608198111936,-0.31990064566546256
-0.8704246936165185,-1.0348144888446753,-0.9066196796164998,-0.9866662233632405,-0.2492668040858002,-0.4180419833300251,-0.3729682211463087,-0.2803168831306486
-0.9344993500585337,-1.168252144845677,-0.9699863371891955,-1.0469497970305564,-0.2881635223402609,-0.44794454242293713,-0.42325239466043696,-0.28675894330206403
