0.033000901691954604,0.02141652984677032,0.007916639240928896,-0.017096374745067908,-0.004872725849979134,-0.026569991122807904,-0.026012088367400807,0.029195165856086693
0.02631075185116989,0.011352382495879403,-0.002895087501582699,-0.0273329206292744,-0.003100926300708593,-0.02904965976227611,-0.029951373823005226,0.008779725172670148
0.022160048472458498,0.0035941078091938036,-0.010266279655079766,-0.0404753218975135,-0.015526190847461978,-0.04617464820332898,-0.0462532296711764,0.009194024205800793
0.008453288343990383,-0.013815813176049886,-0.020696654002450868,-0.04461514386487194,-0.020088100420050003,-0.05877863134102712,-0.06104199033557769,0.0038174921825664646
0.028796611781816785,0.013143223370077516,-7.985201072776637E-4,-0.036991634848204856,-0.019678647948974184,-0.04619827021841363,-0.05301015482373724,0.011287460680443064
0.018861980023584426,0.00915624137329756,-0.010056091757707237,-0.02875353951516061,-0.016673733384162184,-0.04730110145711283,-0.056738267359358614,0.02278978765507543
0.021939520101159023,0.005382913955616316,-0.006754993603910773,-0.03524420363528052,-0.005658967683328038,-0.03858937344999178,-0.046184534079550435,0.015823633835546226
0.015834853309707138,-0.0021924663232328868,-0.02262273045097023,-0.04593484021004347,-0.024282021956918913,-0.05692063445907803,-0.052158668696984635,-0.0056525236180775705
0.006725628075564782,-0.021161236690450905,-0.02380062509808745,-0.054140246338518654,-0.02407643509146297,-0.0635367943071626,-0.068971432665226,-0.021762311292936355
0.017697474854184762,0.0011257245422844216,0.0014052170188522913,-0.035115181964055796,-0.009931777649803375,-0.05250513331402157,-0.04988348015205196,0.011384908566702505
0.014531062933381399,-0.011107325745547457,-0.012144572364423808,-0.03721007932672044,-0.014868777069093474,-0.049070362517192795,-0.03770001815836812,-0.0027048504435345775
0.023226499271267628,-0.017591171661281248,-0.023310774498012193,-0.040220065353707986,-0.009708488717271256,-0.05440887953977731,-0.06258600667814392,-0.006265230652478595
0.0016293948602066329,-0.021742046270441413,-0.03520607039854552,-0.05987000201198622,-0.03494142524039275,-0.06771009591881753,-0.08144926492170372,-0.0210757007290759
0.0023466641950892044,-0.019530846033181132,-0.03369640066920746,-0.05971877288863658,-0.039395745610790255,-0.0792350350735594,-0.09011529945105114,-0.009757977932976308
0.016505761030499236,-0.002814891435954685,-0.01568696895127012,-0.04297443719286591,-0.01665614923618049,-0.0583841950417769,-0.07771667744196438,0.005737042177088404
0.009686546834344894,-0.01539091715834756,-0.02740223140454639,-0.05802736322957959,-0.032592460645602755,-0.051582409734126256,-0.07212566768640157,-2.1798429291608918E-4
-1.2694658570716258E-4,-0.019865320507896467,-0.032223865547300765,-0.07356158053454337,-0.0293036534580374,-0.06416270555013595,-0.07207288420191156,-0.013595605239407726
-0.010558857091649724,-0.028253208680164777,-0.05009821269133271,-0.0762650616739919,-0.03239953041534244,-0.073726326770487,-0.07046591308677726,-0.03459262026155135
-0.006701885174982249,-0.04675521412467608,-0.04983490327461465,-0.06809797364518386,-0.03650492340134245,-0.07824007485804071,-0.0705666925044425,-0.04338338567821021
0.010809432788313405,-0.027334361179718037,-0.02962809594743785,-0.05454490250864552,-0.01938654311899357,-0.0548704770320888,-0.05517234192640978,-0.017198818372301635
3.133338158093187E-4,-0.029237183682301424,-0.04000138556777957,-0.05804251607403814,-0.03315578442256105,-0.06258632690584694,-0.05383870456722865,-0.028902802633789814
-0.008639920043603392,-0.02098487941628454,-0.049103175160095575,-0.08077978291217978,-0.03438407721523308,-0.05512378053045535,-0.07700774496570074,-0.01958231822560889
-0.02128638849444955,-0.047709661501920915,-0.059777349910776136,-0.08293940314298931,-0.0313087686530931,-0.07762457434539716,-0.08610253159717898,-0.037862207937954896
-0.01555915316457009,-0.06934697787784457,-0.06875918458524345,-0.09107482887320897,-0.03940929296000999,-0.07853671425151999,-0.08438123777357737,-0.044503966489626144
0.0023592454614048248,-0.033560808691038446,-0.03896739549792767,-0.06707979075646785,-0.0347215293197328,-0.07055665230783147,-0.07111716298921686,-0.009376828754854414
-0.0052511779961305965,-0.03776798142293407,-0.04553908960062369,-0.08107194810481466,-0.022301320130948956,-0.0750270243374726,-0.08304095947045306,-0.019083495672343843
-0.019199117266610534,-0.05006599320018971,-0.05475563224889809,-0.08614750033079298,-0.040912314702982025,-0.0734456579180561,-0.09135995472743551,-0.02919616799353217
-0.01963375122360331,-0.07569500328082572,-0.07109212311533497,-0.09410452019220082,-0.05038352963577555,-0.08274431931400414,-0.092705893213184,-0.06534054991010806
-0.013422440342601746,-0.058746330156212834,-0.07132987237411291,-0.0848347355891204,-0.03760458011443518,-0.08194704217261732,-0.08764525057577734,-0.051625402081876826
-0.011400661030719074,-0.04904672369713097,-0.057354919066737536,-0.06802890585424322,-0.036457693021778176,-0.06975131456916257,-0.06808674719030154,-0.0312421870207713
-0.018193602926495234,-0.04553736036245565,-0.05593735203835374,-0.08374890047855801,-0.033184070831508844,-0.07216151977292018,-0.07762289069250528,-0.03058837554490734
-0.023380016673776097,-0.056005605748331286,-0.07206019577033548,-0.09250951134664315,-0.03952796472158388,-0.07814170288498996,-0.09088258169970774,-0.04560145974306112
-0.033812479748507644,-0.08434860656094628,-0.08591373774697195,-0.09921159416569555,-0.05162130938560049,-0.08719208408452138,-0.10741349310279052,-0.05651558953950102
-0.011190623415514652,-0.06493196723766513,-0.07409736721485635,-0.09184608042482412,-0.05232575015039707,-0.08833037577891453,-0.09596651773957281,-0.0510103995858686
-0.011544785108468545,-0.048341693981539036,-0.054882203371351516,-0.08143750451537005,-0.04029133620847729,-0.08142186793650183,-0.10013283579744844,-0.01074660865595825
-0.025602751471627768,-0.04643589128992305,-0.06589648871635445,-0.08251894681888952,-0.03759552261532973,-0.08274660357151357,-0.09172366310726895,-0.00981623712796934
-0.0307993882787995,-0.05318243982865456,-0.07234913753977873,-0.09048658765005772,-0.0378595066921426,-0.08218917097007053,-0.09203464747848862,-0.008755514902090863
-0.030035839269342914,-0.09529261234700644,-0.0816888073299363,-0.10421186757813991,-0.053582560443038225,-0.08209769827848679,-0.10328944123579048,-0.048169052016799954
-0.029097283166180047,-0.07405257131572698,-0.0704565648794673,-0.08615401368593484,-0.054622970201883794,-0.07919912408112004,-0.08580679055972437,-0.04326515307778803
-0.02829596502114816,-0.041956275056368786,-0.06327705327102581,-0.09971646502676398,-0.03984749472166657,-0.07209037401571311,-0.092002561502463,-0.021866259042454907
-0.03311003360570338,-0.05714873143777156,-0.06555142308374272,-0.08955169304974649,-0.047041974509100866,-0.07411375402510875,-0.07996559727799968,-0.020074542094171255
-0.03746437218544283,-0.07717927273319146,-0.07792873501831116,-0.09765627931241988,-0.05032436253593572,-0.0810207647371837,-0.09034341902102176,-0.048116365050533946
-0.04684669623810549,-0.08617603439718301,-0.09795711623868072,-0.1135241362099192,-0.051822928468952194,-0.08528492117897826,-0.09782148750691616,-0.06309575164196418
-0.021193159458306708,-0.06390688940937465,-0.07569556465453255,-0.08342773612725944,-0.044341801613450096,-0.07302403233405105,-0.08667117153769477,-0.03285649525270931
-0.030076164521305803,-0.06964405727729765,-0.07335942533730586,-0.09121520858027624,-0.04330228264707846,-0.07006109107667173,-0.08718605299389452,-0.02764988169582566
-0.03481548079010663,-0.06325026967339192,-0.0721570725782436,-0.08379006439568754,-0.03846073541261426,-0.07551464662723001,-0.08668357772926953,-0.022709175945878672
-0.04125645542783232,-0.08547464521870297,-0.08425939590956447,-0.10500468339784631,-0.038398171776046826,-0.08193927691892786,-0.09916091139466389,-0.049085656107193905
-0.04401242454163859,-0.0805654044989978,-0.08432207982146214,-0.09654100736437668,-0.05291017428663914,-0.08340153985066356,-0.08935671682213238,-0.06571310872380454
-0.024698375990827984,-0.05184243902914717,-0.06610367578851538,-0.08878916858289364,-0.046513483150153474,-0.06833153672709714,-0.08893206357952113,-0.029250532501231528
-0.03224455328421924,-0.07470626277352574,-0.06981307997300436,-0.09128095865308941,-0.038320091560344105,-0.07567982594990301,-0.076111395473425,-0.043489452547756664
-0.0439742780357914,-0.06646851279824675,-0.07236498122451061,-0.0956103138523804,-0.03650092201793648,-0.0642481359916355,-0.080939172949772,-0.04720565468254392
-0.0453380862397119,-0.0866688161531257,-0.08635348882928516,-0.08860467925642214,-0.04862985738393347,-0.08036274057787123,-0.09169900073125624,-0.05481803868628268
-0.01211033636485587,-0.07308137592935794,-0.06030109247584073,-0.07665717753957667,-0.03891994411537137,-0.06626417795296168,-0.08240709832405833,-0.013426699041316147
-0.024939750745804345,-0.07779904122372043,-0.05847547465499242,-0.06340678416071548,-0.04069016561209893,-0.06987190018548141,-0.08130114053018192,-0.005575398628363483
-0.02720480715006785,-0.0816713838955731,-0.05787541144904649,-0.06538126833088974,-0.04059432034821708,-0.0692055645321023,-0.08714103356750157,-0.007919919939616046
-0.034857900932683705,-0.09313773726267403,-0.07996348557506858,-0.07833349797110534,-0.04997982972848512,-0.08272302304582364,-0.09626466466401602,-0.02367487875662987
-0.03151557689931734,-0.07713094992788753,-0.07035092188211364,-0.08777108899343217,-0.0420265957921322,-0.07113610925314598,-0.08008695317298646,-0.02576198521983195
-0.03175185689719862,-0.05924399041625999,-0.06442639916581408,-0.07611178001957569,-0.03373532585454613,-0.0645256222111082,-0.06515330517304167,-0.01720249866075746
-0.03482099315254861,-0.04999659270144359,-0.07183552441646504,-0.09385332341088795,-0.03449211812404153,-0.07272159666648707,-0.06973063736388184,-0.042525703324323934
-0.04293089688288199,-0.05471326614824615,-0.07963516403652551,-0.10198581955394448,-0.04728085968670572,-0.05900883871772071,-0.05672045535712137,-0.06014458796328162
-0.04137302490322722,-0.06792275640138062,-0.07146189223552253,-0.09133513310205717,-0.04578690144571225,-0.06289619894346006,-0.05386280661763162,-0.057202017474342476
-0.026639184779031547,-0.04504635185254724,-0.06708650743415827,-0.07948974395635944,-0.03400714910129717,-0.060389258959510854,-0.0553791479372452,-0.02843090365792326
-0.033121560000133984,-0.06189313752946084,-0.06638449672961683,-0.09102798878751366,-0.032085087274429665,-0.06868602079930343,-0.06412816019907598,-0.02097935699548208
-0.0387777168823848,-0.06309460809478465,-0.07470449063660625,-0.08678395806254022,-0.03770722921957654,-0.06338952509969704,-0.07471707907820686,-0.025101956854107852
-0.03551017484837126,-0.07610141710855017,-0.0743678935915195,-0.08093141488349997,-0.04338274050138014,-0.06987332144694243,-0.07781601837819745,-0.024109087933249077
-0.02244285630152318,-0.05696552947828982,-0.06281064176095426,-0.08266648375517406,-0.04223818526997305,-0.06199060320559876,-0.06341548952986352,-0.008949529606013229
-0.030555048108615684,-0.06641856281104414,-0.06622106436371292,-0.08329310808186671,-0.043193092599389325,-0.07043319672897058,-0.07712445354415885,-0.016448803783327966
-0.03394664871761481,-0.07247599603669046,-0.07371975027982904,-0.08987222234037825,-0.04168262142906058,-0.0660945768871844,-0.061151567682361664,-0.025544447439288926
-0.03984009122511269,-0.08758179498681708,-0.0849483504098298,-0.09179312833463012,-0.04730512703300224,-0.06800200744189783,-0.0731562886191144,-0.06197936350051831
-0.024411223613574146,-0.06121148325319611,-0.06526402923034165,-0.07790086625488846,-0.029506146886386465,-0.05572472394896751,-0.0547442971949004,-0.030180466579297665
-0.027160020122965853,-0.055201376387112436,-0.06513678337809667,-0.08395953999819096,-0.03833198783309843,-0.061441201748690596,-0.050414165459520974,-0.02179670442090776
-0.030292539459316183,-0.06538634455266056,-0.07005489860483743,-0.09009135756381793,-0.03717516580578048,-0.06804481069863232,-0.0717261890040907,-0.03728428731815529
-0.03909073810828824,-0.07794310758201518,-0.08810777162131642,-0.09802548943187722,-0.03995508650348743,-0.07213089070808172,-0.06884326470069006,-0.05394413749131624
-0.030597663679618633,-0.0683521826837858,-0.07630480067344204,-0.09560702992189889,-0.04381109934261751,-0.07086609692290655,-0.05684235598719046,-0.039572778586036673
-0.0372663988298943,-0.07047890727131438,-0.06045061687465684,-0.08414864506743545,-0.04088267964005414,-0.05155662874486961,-0.05708529674380362,-0.018352834962583234
-0.03143904373940779,-0.06483924109594297,-0.06777835625302726,-0.08695883179271774,-0.042720584203178945,-0.06442601251032204,-0.05940409887594495,-0.029586464610576773
-0.04250763162343358,-0.07331109191175118,-0.08252143592473374,-0.10920910356275079,-0.037454318031841294,-0.061376993608463215,-0.06721327804125739,-0.04172005937631586
-0.051893658670825876,-0.09377477366412204,-0.09421336671778428,-0.11988452726018396,-0.04038068941122746,-0.07195930904010724,-0.07035100000315093,-0.06710104922502655
-0.038896656542855,-0.07508201047554545,-0.08109035477387465,-0.09884939331479185,-0.03720786746842773,-0.06226411264352123,-0.06850843121144674,-0.04462589015146392
-0.045221636614288914,-0.06337551064442613,-0.07706705192881326,-0.09658313880873147,-0.046182912983560885,-0.07386604523572214,-0.06474818550786636,-0.03462580855471929
-0.03493546560027115,-0.07965934303970729,-0.08216013355064204,-0.10033551586215717,-0.04345496523307776,-0.06117270179374478,-0.06169970967881746,-0.041318125412081685
-0.0565508296382979,-0.0905663678565117,-0.09578830290484232,-0.11415625158261333,-0.056736218401849135,-0.07878282881038823,-0.07774267756913009,-0.03807151460779035
-0.05362099777394747,-0.09744710090641398,-0.1018650300098802,-0.11531590980958005,-0.05819686740472122,-0.07377475855614817,-0.0850230521326321,-0.05112121086099886
-0.0413823208876909,-0.07654520790391636,-0.08359126908649143,-0.10267160625261099,-0.05257824990665355,-0.06979473721457384,-0.08307721236190037,-0.017707556578975176
-0.04530691594018877,-0.08412762575026092,-0.08888574539143991,-0.10828097895939413,-0.04142247050070953,-0.06714955366952248,-0.07905448831379028,-0.028718370472683972
-0.04639126887199155,-0.10356326998922986,-0.09387482188020359,-0.10927153165660441,-0.04680476682810188,-0.0744437263536047,-0.08557266847736417,-0.026271256430627794
-0.04422589037702687,-0.09888448835951028,-0.09761789346550702,-0.12177394113110013,-0.05268959130777113,-0.07858728371986765,-0.09370144900450239,-0.046010093843290745
-0.0502801472369173,-0.11557040059925985,-0.10511528704445544,-0.10955347438658011,-0.04597795130811225,-0.06830869100117778,-0.08619413173003289,-0.045322033082398336
-0.037905928284554594,-0.09877843769803159,-0.09105140182331686,-0.0887134595348045,-0.04709882641179569,-0.06270950215595278,-0.0808333047987059,-0.02594591586827836
-0.04943822655591344,-0.09720192124212729,-0.091970793506682,-0.10667969930046799,-0.05019541415047813,-0.06889136880607351,-0.08180031787617965,-0.02293056163838063
-0.05751825096568446,-0.10859264747920785,-0.10031530381526721,-0.11839355101428621,-0.05682482209066816,-0.07035516515896992,-0.08298403228786619,-0.033744539741431594
-0.05784875320234752,-0.12810547449672063,-0.11049077870296872,-0.1176559506977115,-0.058071286778092236,-0.0783833898442747,-0.10064047268002144,-0.04612243195042254
-0.048836422470420277,-0.10844635378168237,-0.0961577536454048,-0.11091280575274397,-0.046688393266901475,-0.06766957318167392,-0.09021343971539401,-0.031527112350785196
-0.05447045603592813,-0.1071258500100709,-0.08960038973119612,-0.10988256324722541,-0.05009546881219955,-0.06367446005975255,-0.076199388024605,-0.028978161388198545
-0.052245819360967734,-0.10817543275074418,-0.10248284978224534,-0.11781792118126186,-0.051757249645174655,-0.0694303748092287,-0.08618581381265365,-0.02824208327883671
-0.06637132759550446,-0.12408665909917077,-0.10997000512445992,-0.12372564087050596,-0.04912522011262612,-0.06960461330586201,-0.08659264900513912,-0.036388177124682744
-0.06244151995361226,-0.11878549605621798,-0.11687946877755234,-0.12512633400068596,-0.06432468562484803,-0.0687332587240085,-0.0964633640919004,-0.04658387296783056
-0.04496481989424148,-0.11219535635365649,-0.10245082033820328,-0.11248570210211917,-0.04678208117345785,-0.0561863454984671,-0.08446751863841359,-0.01985776369250703
-0.05786109081301976,-0.12542614941117494,-0.10039231880933065,-0.1146503131199611,-0.04935996349304042,-0.07669981028939066,-0.09017017967083495,-0.02340494501031624
-0.06349068642167227,-0.1183916493128306,-0.10966036707354279,-0.12199246145612785,-0.05409591653593182,-0.08027449847627946,-0.10611624204467604,-0.026553780554343768
-0.06312329382191663,-0.1403491229697075,-0.12424453927977559,-0.13120639344883966,-0.0639356313125546,-0.08636633393620893,-0.11405285980369742,-0.03329612044282836
-0.05282571395966885,-0.12407521462883137,-0.10812448997127437,-0.11891284251001888,-0.05592839179596464,-0.08270419675184588,-0.10315397220187747,-0.022120811896800353
-0.0573428067990922,-0.11669694366396277,-0.10286251745131367,-0.11364222651338807,-0.05376364103650113,-0.07297967733671733,-0.09799973660687547,-0.011482235228691063
-0.05776309948378918,-0.1302380419673304,-0.10747988205596377,-0.12568156069384426,-0.05442760224560762,-0.0754659779842375,-0.09485352117829338,-0.025244672292064986
-0.063649063569174,-0.1292018945247794,-0.11491969497814597,-0.1243491457590389,-0.05917763672706619,-0.08317892974429608,-0.09826177175417738,-0.034020363498715574
-0.06306805837083856,-0.14146241140890084,-0.12070500745266635,-0.13894540832460703,-0.06487114251738961,-0.08183140060473551,-0.09687188272112514,-0.05118662097467622
-0.05808397153298402,-0.1177996384616263,-0.10693170158208837,-0.12235896685619396,-0.06121533166173645,-0.0739138758570388,-0.09487531779367776,-0.012754214494637503
-0.06545596658508507,-0.1250540666376841,-0.1121218971445153,-0.13312842916750484,-0.05127617597150478,-0.06954485538113933,-0.09828083901541365,-0.012998858453449115
-0.062671940970365,-0.12235570755080523,-0.11341669624513234,-0.13368047192364957,-0.054380458233660396,-0.08477750357123016,-0.11627802081366301,-0.019361594154198896
-0.07031517993286826,-0.12735822012648673,-0.12808075576776357,-0.14759767081769803,-0.0674177038392485,-0.08848667588804728,-0.12727363546912476,-0.0296068607797933
-0.0642915695443523,-0.12571498919861543,-0.11336130115257935,-0.13427929881665993,-0.057797776426239275,-0.08024054290327683,-0.10407724167180521,-0.022710904082850543
-0.0685048741407078,-0.1136512106360092,-0.11745999758700897,-0.13155918975299108,-0.05928749727122582,-0.07816799526649255,-0.09834803894272506,-0.015048149230952683
-0.0644878422215657,-0.12084447632529496,-0.11364718266064916,-0.1355783054289043,-0.051943354648949454,-0.07100102653578709,-0.09935658167668941,-0.024826487480870203
-0.08178686534807823,-0.13409081955374266,-0.1305819283953447,-0.13372348857191962,-0.06870096977017867,-0.08439318515360165,-0.09413679023800878,-0.04508951375222149
-0.06662589570024825,-0.15033202418719752,-0.12474699979507371,-0.13345854290603026,-0.055422860806732775,-0.07986538271465911,-0.09629087139782527,-0.04273804199791634
-0.06870086273961243,-0.12464677057093021,-0.11820894667487097,-0.1382138135924548,-0.05400530842561818,-0.0803564613556483,-0.09842090438936929,-0.02114223371491765
-0.07863945271893887,-0.12713063982920533,-0.12422158735053199,-0.142223521715968,-0.05547909340224441,-0.07941386622507174,-0.10367992982472603,-0.01833887120812102
-0.07399659992449624,-0.1356326036662542,-0.13136963905525487,-0.1368118601461674,-0.057829718681476926,-0.08420294525357463,-0.09367803812819646,-0.031900686066509906
-0.07735190094090745,-0.15871314085514193,-0.13039781674917333,-0.13520947555693388,-0.05553098128203574,-0.08709063813471782,-0.10573447956199164,-0.04959333317082156
-0.05609636600996581,-0.1397914766697687,-0.11258840974870306,-0.12163496335167406,-0.0588183277185862,-0.07059287848796425,-0.08087542238405786,-0.031140425922441813
-0.06597306084957166,-0.1415934809027711,-0.11633602915886485,-0.13614191036103626,-0.05431804114977916,-0.06444057593748126,-0.07940700214667215,-0.04061165773897268
-0.06244112995047048,-0.13355365235554625,-0.12247646167154415,-0.13931884447484136,-0.05589435842429266,-0.0720917159581553,-0.08584465638512391,-0.03918624322405268
-0.07686382614293642,-0.1559477986801669,-0.13017673695478438,-0.13126519037270956,-0.0642786350966805,-0.07549904111266852,-0.09648380621613363,-0.06445125247593611
-0.06283191493455029,-0.1334957735337743,-0.10755418570033091,-0.13330840085127849,-0.0686107294919036,-0.0719624800305719,-0.09126673637295545,-0.010834127894410468
-0.06323244813758458,-0.13663124620784808,-0.11930126766951193,-0.1311362599674537,-0.060914070896447965,-0.08098276086207797,-0.11208927382363608,-0.0069132371783086665
-0.07286055991949329,-0.1227540907686557,-0.12224622721959863,-0.13804717794182264,-0.06154170467243249,-0.08737808420041147,-0.12561425547330582,0.0011957937980819735
-0.07617640985024222,-0.1332929812851667,-0.13358949037864057,-0.1429150212513083,-0.07508980565938976,-0.08462620574279923,-0.11964855445793796,-0.0066824119692966725
-0.06759732812198063,-0.13924513518715878,-0.1199914102135588,-0.13614315548267017,-0.05668075070663289,-0.0798804196883775,-0.12007265289371295,-0.013340645683586689
-0.07348888596971749,-0.13663902130892125,-0.12352704547815625,-0.13930578714518618,-0.05783250617891839,-0.07728876891412005,-0.10813559072044983,-0.0011486702450033421
-0.07718787119831544,-0.1416024502977991,-0.1276142668617123,-0.13360576163949345,-0.0547627018630032,-0.07134544155262267,-0.10042167345286401,-0.019659786414973235
-0.07797089838599487,-0.14554868826726966,-0.1291605161417665,-0.14731724128759496,-0.056190746056499416,-0.07629685780654204,-0.10867081543050526,-0.038676375405461594
-0.07407004358939419,-0.14828081454895317,-0.1352827054233264,-0.15163191077119345,-0.06078426077534366,-0.07817097542707284,-0.09609810175189089,-0.046084889689536855
-0.07068046762883855,-0.14041253025267594,-0.12734168784750174,-0.13431769557713388,-0.05810518473048178,-0.0721289364805421,-0.08974507794933902,-0.013913941395032799
-0.0672510291371242,-0.1456352416905612,-0.1334210980238039,-0.15160376174147538,-0.07054078251258512,-0.07823044706775051,-0.11137791103530728,-0.01025367654045185
-0.07569506798739115,-0.1398995321798806,-0.131684670736302,-0.14576858553409958,-0.061043864420677586,-0.09648858041783297,-0.12722743531034092,-0.0200723422790037
-0.08476935415682922,-0.16412582807220363,-0.1373075537298818,-0.14842180110061914,-0.06850424651521744,-0.08817021915798785,-0.13164830866071014,-0.018660998585480336
-0.07362576907383575,-0.14158152383037917,-0.1276431305573042,-0.1460954767774061,-0.055015737684450214,-0.0817818617668926,-0.113319589078176,0.0020274412047716593
-0.07135238378649504,-0.14791217238098664,-0.129170941312176,-0.14095154198214865,-0.06420041102319027,-0.07818803775141832,-0.11347715272577702,-6.074071165689412E-4
-0.07185555219463029,-0.1435113375230591,-0.13078730653597742,-0.1435946188000603,-0.06259851422164754,-0.08095922916158016,-0.10450888516093906,-0.02529045059053313
-0.08750590956249031,-0.15974221282710796,-0.1487530624754246,-0.14794931229454447,-0.06782110043224687,-0.09357248697337736,-0.104973570200492,-0.043535803456663
-0.07103844305148335,-0.14867117219934928,-0.1374761769615468,-0.1502380784096598,-0.05762934408769302,-0.08225320994392347,-0.11432588052050145,-0.027418677903511712
-0.07562817952383166,-0.13752633774594483,-0.13040601670457086,-0.1575715066070369,-0.06068554120602016,-0.08031949009552193,-0.11276124109683364,-0.015289503539337558
-0.07758426398010261,-0.1568578450869113,-0.1399642649148431,-0.1515925933824337,-0.061475329918329456,-0.09667775158101514,-0.11896583362767596,7.414405129508195E-4
-0.08078346410100748,-0.16004859536749455,-0.14009703857658362,-0.15384490933559786,-0.07048974136285775,-0.09268118044891602,-0.1248179675949816,-0.013546110267473446
-0.08857347187813383,-0.16018304445523962,-0.15336957598592346,-0.15894191007275324,-0.07195283952898968,-0.09482743846428753,-0.12278879725866813,-0.03356097320272583
-0.0829234418661809,-0.1444286757658097,-0.1303816932651936,-0.1458840170384402,-0.0676111738783619,-0.08246056840380155,-0.11532436492735174,-0.012155672617616735
-0.0814261758793153,-0.14876828698034664,-0.13519643004600887,-0.15784608723511967,-0.06585711613545733,-0.0844118920461284,-0.11773051877225828,-0.026110392746242085
-0.08853937969425242,-0.15589156116663264,-0.14509432788636978,-0.15723570488675054,-0.06290404976165219,-0.0834543063612059,-0.1170135999682891,-0.02645377982244331
-0.08616852955117953,-0.17423842291036892,-0.15405652797314195,-0.16197740092961485,-0.07386962964842719,-0.09471692632367508,-0.11500123921173319,-0.05310394463655161
-0.07979959282074343,-0.1666099809036474,-0.14912041896978198,-0.15638980353138243,-0.05878984656825272,-0.09193569048185175,-0.1167476881606462,-0.04199000936147552
-0.076472259287388,-0.1638922294762266,-0.14936553959266022,-0.15265280722326147,-0.06267707938584446,-0.08987021263858648,-0.10962196093176667,-0.01954560194612526
-0.08170764714059581,-0.16846903101716826,-0.14549992667947875,-0.15637308725856774,-0.05751883925191678,-0.07978071484498905,-0.12030216787948685,-0.040922620926521
-0.09130182821883162,-0.18200890548662188,-0.1602094192068438,-0.17174572218578912,-0.07675051317910625,-0.08936937637152682,-0.11842129839860148,-0.05085782943300989
-0.09113709094721757,-0.18724657656610724,-0.15896089537703811,-0.16738298124812834,-0.0695637396919894,-0.10359448619768616,-0.12553969483939273,-0.056826542924257116
-0.07416692818425565,-0.1555881588545812,-0.14549080977095774,-0.14983637596135552,-0.05908579786665504,-0.08805407177727909,-0.12573222147500057,-0.019005172582684898
-0.07714091139590076,-0.15740466374319387,-0.14750393966830644,-0.14783792336821697,-0.0631306649807321,-0.0955300369736332,-0.1286740846891543,-0.025184099606291012
-0.08351914516406507,-0.1740996354306617,-0.15521844043555746,-0.15741926462284583,-0.0611441906452231,-0.0811772759193906,-0.1172385554965836,-0.03605570483869009
-0.09257742215804539,-0.1848962490613011,-0.1599639930326265,-0.1662105520189394,-0.06535921064529868,-0.1009514588798105,-0.12298641186998303,-0.05769978509706089
-0.08618596744662055,-0.17084566498602707,-0.1522139031903608,-0.15792890633970308,-0.061838328533854424,-0.09340205306157023,-0.127985166771861,-0.029701353629100837
-0.08487502208749656,-0.16918178281964824,-0.1451993426739899,-0.1466685991982596,-0.07111893925742992,-0.08847608199682769,-0.1285980821817957,-0.005344036878971338
-0.07775451127249144,-0.16602846518040612,-0.14517460547992683,-0.15477614008803203,-0.06686746924355283,-0.10058577066981589,-0.13962347225329638,-0.012315828055282757
-0.0839851130698786,-0.17652728721881328,-0.15676643251181482,-0.1595437349140833,-0.07633083304241903,-0.11231987377622787,-0.12813937178933463,-0.02487098253731353
-0.08499640395585008,-0.18001017762673283,-0.15587892695073602,-0.16851668821837948,-0.07541118785544457,-0.10055897002950986,-0.15288659196817891,-0.02553661847865061
-0.07854310963963512,-0.16906131216303652,-0.1506523284663168,-0.15830375091016843,-0.07477033288898798,-0.0971882217035351,-0.1529768256149555,0.011416550384182992
-0.0776179080592921,-0.1693750807950925,-0.1597518472422236,-0.14971184410660307,-0.06803259619683072,-0.09920465145367778,-0.14293360781443953,0.0015301981117304823
-0.08895284876137723,-0.17891834360224534,-0.15577177188981492,-0.16716845212602607,-0.07095705726063423,-0.09865348379643345,-0.13502925775778812,-0.019172620971696253
-0.09861915299266864,-0.18688055909076193,-0.1664555541158871,-0.16275282777357802,-0.08207050679819829,-0.09961359490829085,-0.14096503484175918,-0.04482696583167691
-0.08374133565778283,-0.1663769446966714,-0.1476896169216981,-0.1634453835521915,-0.06615258479260992,-0.09508277859132999,-0.1218536588269011,-0.02981115946639941
-0.08326956186734555,-0.16004259120897585,-0.1504397738977347,-0.16103276953157536,-0.06555074512324156,-0.093879028464323,-0.11939023882126708,-0.01481550484996386
-0.0833568889615498,-0.17146919170352407,-0.15466783412475144,-0.16747226032922213,-0.07414579797916557,-0.0974224991657199,-0.12430879294389152,-0.038136739239620056
-0.09294947198380303,-0.18326728210845916,-0.16538897416068388,-0.16697944447239074,-0.07516339485294034,-0.09269203253953029,-0.13674549269720024,-0.05292636005295435
-0.07934934505142806,-0.17390122866848354,-0.15410810365928082,-0.15026961405547268,-0.07546035919327011,-0.10636446027632589,-0.13928372462166647,-0.03354759597394511
-0.07997463217379844,-0.16822291726047478,-0.15142679670377973,-0.16546592144405095,-0.07160001640437912,-0.0982491012869985,-0.12888521043940235,0.0012027660333876122
-0.08002752598452888,-0.16356246200794164,-0.15060067648138137,-0.16117142978740623,-0.07285930870229577,-0.1001889767765675,-0.135910453733697,-0.005293818646288548
-0.09074616175504441,-0.1742110176605502,-0.1579062383980915,-0.17223415324023011,-0.07947910530900194,-0.10270732005611408,-0.1462358365681869,-0.012735022743015885
-0.0879368124185426,-0.17954532931511755,-0.16320692692847827,-0.17532538766505465,-0.07823117618410719,-0.10523747633701698,-0.14749547420959952,-0.03728101009467349
-0.07957325989347265,-0.16230573069818713,-0.15389386318349674,-0.16215657514555615,-0.06981411152554584,-0.0984551599826691,-0.1272446633842164,-0.00869683643378575
-0.08649556837231288,-0.16987506231841898,-0.15395588169120858,-0.16344641292610287,-0.06351759514068465,-0.09797547658104892,-0.13249342301129882,-0.003781186976189654
-0.08674548854804917,-0.18372354239176358,-0.15617857349404468,-0.17800989057263697,-0.07245540614646366,-0.10364826526515021,-0.12862069014367394,-0.011917700691781875
-0.0962930633369028,-0.17978313998310586,-0.1689731933390244,-0.17744676604334533,-0.08350476661410615,-0.11288904152412269,-0.15197906310406212,-0.023145405657209583
-0.09328266891855841,-0.17696886133508563,-0.16226565050255096,-0.17785419279225795,-0.07433837562960566,-0.10574265214305101,-0.16228557616230116,-0.00637580681075976
-0.08675873187385101,-0.15594520346071558,-0.1582726118237657,-0.17179237573887873,-0.07175079178977638,-0.11884979531878716,-0.16696185437058442,0.021110718519800353
-0.09157901567072252,-0.1576351017741331,-0.15850003084987066,-0.1813651932396781,-0.07223669792958935,-0.10474212411084065,-0.16734409771820308,0.024041942593493043
-0.09445306167410063,-0.15879700735805755,-0.1613908604102695,-0.1838021619347155,-0.08252329880811286,-0.11604551522754528,-0.1763499073486583,0.01887118563251838
-0.09797204572208237,-0.16281945298334094,-0.17038824989769416,-0.18206274205064024,-0.09442726933778282,-0.1242499003341908,-0.18099928565350237,0.016134824618201205
-0.09767964731931955,-0.138541684862327,-0.14572437773550373,-0.18451350687933524,-0.0825890253394325,-0.1138989225482727,-0.18109792340534045,0.04267444862225485
-0.09241825861793668,-0.14635566147273832,-0.1566523630421842,-0.184805546546947,-0.09287827258322613,-0.11365380772538182,-0.18218219490449722,0.047055852569334825
-0.09450365408675589,-0.15975818574897732,-0.15999026886505585,-0.1806563938707124,-0.08110504905532165,-0.10799206378445232,-0.16111178526473158,0.013796562558059318
-0.0976893831283855,-0.1701642341754107,-0.1664270899404955,-0.18320810109588515,-0.08661418812871567,-0.11191109317114553,-0.15265082315090633,-0.02281367940165193
-0.09176621679452113,-0.16146973046882462,-0.1595701331606563,-0.16408360673824698,-0.06843226004912141,-0.09480579593629034,-0.13759337364112154,-0.005545065576005691
-0.08923981885197098,-0.1592696365378677,-0.15470797521026106,-0.17221308984594602,-0.07039825906742571,-0.09605618863092012,-0.15203309881385232,-0.004796973353524307
-0.08886255676330469,-0.16462543157010323,-0.15368166412907325,-0.1686695202177985,-0.07855263602885848,-0.10038002318408251,-0.13845715812934323,-0.004265770335168883
-0.09623178170092175,-0.16560081352454123,-0.16955866470722133,-0.18091838293577858,-0.07995518028160092,-0.104922388671818,-0.16465701022814808,-0.001370150542303864
-0.10357310505544708,-0.1525940746078616,-0.16933168600896406,-0.17876529134688499,-0.08664553815448665,-0.11017062891958432,-0.17512765611692394,0.0026811616307723363
-0.0923638589966356,-0.14587360472723204,-0.16342453277329508,-0.17448337866929295,-0.07846921283771573,-0.10269359310711325,-0.16510322494046076,0.045071301425521695
-0.08736689534938026,-0.14382554318344312,-0.1583944188321963,-0.17375946371998524,-0.0760046799802732,-0.10636653518349491,-0.16240007232095863,0.03403815428569222
-0.10151046239593149,-0.15488716448009257,-0.16694291478102682,-0.19082344622195083,-0.08001141752466805,-0.10677612985514004,-0.16368107993187994,0.01444804325710074
-0.10229777803413162,-0.1616311504878031,-0.1788390121093962,-0.19628802201032486,-0.08015307813258413,-0.10685674713646263,-0.15966206558734122,-0.018238331007206007
-0.09122367941514975,-0.15394553593387147,-0.1616988507828031,-0.17241929690789465,-0.06673478739085516,-0.10137031578820165,-0.14090997519969872,0.011590198757972838
-0.09644284410480874,-0.1550511373504608,-0.16889049701190653,-0.18161449045439726,-0.07546735744533409,-0.10593052253134906,-0.1532552993507903,0.011142609446925848
-0.09411878062655393,-0.1487387181594089,-0.16068651311434592,-0.18735587855945696,-0.07989212113662339,-0.10372946016447268,-0.1653727372134523,0.019010615489245805
-0.10537225733212194,-0.15902987862402235,-0.17616153886140823,-0.19592026223491413,-0.08801121052953627,-0.12145727592782005,-0.18114851929913214,-0.0044479495144697885
-0.09309001533551609,-0.145918638723552,-0.16694028218988055,-0.18810655701117662,-0.07686016719446669,-0.10747906321558297,-0.16385041922923227,0.02426749630297277
-0.09499868522720754,-0.14827244780679136,-0.16013967509521151,-0.1850001190331375,-0.085097818650249,-0.10835804966495448,-0.1714091153042452,0.039913648042589386
-0.09968734724263371,-0.1516524949366909,-0.16462609721812332,-0.19162418950221258,-0.08043063070620225,-0.11161086709002918,-0.17091778331762106,0.025410141349939304
-0.09936745129453929,-0.1510291851655605,-0.1671455793512939,-0.19755102628150936,-0.08471821502383861,-0.12289554858857733,-0.18584938894160558,0.0073593368022601535
-0.09341557637277187,-0.1444518588894337,-0.16852865014885968,-0.19058130317211922,-0.09051703687893539,-0.11832190164548616,-0.1841479408564104,0.0014069131395313534
-0.0895576290298508,-0.12988981805250077,-0.158944110871678,-0.17913566367182598,-0.07257703316173444,-0.10897773925911822,-0.1683854794114527,0.03495630513606111
-0.08900393631748808,-0.13601858506515938,-0.15475282772482798,-0.18596478106188158,-0.07041179933146638,-0.1025655345976082,-0.15212942473952695,0.019345167336643692
-0.10290217151868279,-0.12367895830583987,-0.16550715461283735,-0.19953648520031123,-0.08212784034762168,-0.11034539625006026,-0.1544699666536187,0.005352456728905818
-0.10034603592402622,-0.13272425086657844,-0.1734641660263727,-0.19835156836711487,-0.08624352193394658,-0.11746565253831799,-0.17202706076454347,7.282525508664616E-5
-0.0914903096940972,-0.12808857487854225,-0.15493815565468666,-0.19443277724638483,-0.07720675891636093,-0.10585621251280643,-0.17699677332417613,0.03343051479710356
-0.10046246278205333,-0.127062336235337,-0.1665196554130299,-0.199348476910562,-0.08079943551719332,-0.11077645665683221,-0.17061591369611337,0.033016826948139746
-0.0942630628350138,-0.13675995955191558,-0.16984315809465325,-0.20092656968954814,-0.08991812895778925,-0.11339414298782968,-0.17887571016533077,0.02689833880242883
-0.09986624186124762,-0.15277542002392022,-0.17985834987204216,-0.20338757534064242,-0.08704985394492605,-0.13227123079822983,-0.18794207707805555,0.019698568149694513
-0.0943678494223397,-0.14278744286239922,-0.1654673852029053,-0.19781296812278637,-0.08489465546018904,-0.11522644440212206,-0.18128052751620055,0.03429192440579618
-0.09147850711318092,-0.1364751367032707,-0.1648785613220574,-0.20197237238386756,-0.08242592402636363,-0.10108172515918772,-0.1745105753491127,0.02671168031996414
-0.09031244688177548,-0.14498041269542503,-0.1618782140364418,-0.20533358410057018,-0.08525769768422944,-0.11506474286513257,-0.16677149056216917,0.01688478310679486
-0.09081451316686776,-0.14529752965119627,-0.17751481005027467,-0.20245329954586333,-0.08269617039588413,-0.12229882632106061,-0.16950717117626182,0.0013640685340619836
-0.09532296455307031,-0.13564533979699805,-0.17032515656281869,-0.19544683186207093,-0.08048944706919936,-0.1205457279227775,-0.17669022786191105,0.015439769397414512
-0.08780958244606062,-0.13621551454710723,-0.15912130743093725,-0.20736356110786666,-0.07976903266548518,-0.10846665561444682,-0.16699242106392742,0.036455201399803544
-0.09831300401148434,-0.13737761804677445,-0.16038458959143737,-0.19865764121580962,-0.07716988245252471,-0.11481209231341132,-0.17668713463009278,0.04932665890244694
-0.0991536512977563,-0.15720307846092035,-0.16356973211768033,-0.1988079119431932,-0.08872731789293893,-0.11919383026226328,-0.17954599936159563,0.04016174745611457
-0.09442543843752109,-0.15158422189869616,-0.16372169583884436,-0.20043498098487744,-0.08325416718178939,-0.1121025242662694,-0.19372752730794235,0.041445158015530885
-0.09287995473946314,-0.1394992109238735,-0.15790812964467366,-0.1975236273283277,-0.07331836506967919,-0.10402595511433442,-0.16723586197757645,0.04630552289893992
-0.09800095765788137,-0.1305120081624718,-0.16220946108187484,-0.1947974940941949,-0.08026596166878676,-0.11042133724387782,-0.17739820364266512,0.049395359896297536
-0.10140461937264572,-0.139466237801066,-0.1703051542247596,-0.19414234316181073,-0.0791335519010561,-0.1152640326156079,-0.17420402825962045,0.0228854644925227
-0.10377062831998915,-0.14424000098358297,-0.1709730760432424,-0.21285752421483065,-0.07391505819659813,-0.11611201237364739,-0.1753352629048428,0.015289850505976114
-0.0937477575156472,-0.12935810511831494,-0.16004209384631607,-0.20359984643569357,-0.07336874279187264,-0.10558046660872442,-0.1568821921181857,0.026189888925943407
-0.09969871160711444,-0.12449748582718524,-0.166556580654328,-0.20850245563097536,-0.06443232330149795,-0.09093884456986269,-0.15562478749127712,0.01971079189903535
-0.1093148572763678,-0.11529441584764227,-0.17193291709822361,-0.22314667430260002,-0.07429337674588038,-0.11364228579437756,-0.1518141487203452,0.009489784977111938
-0.10715478456547652,-0.12853548985339347,-0.17797429044831672,-0.23449601286440833,-0.0817944303747892,-0.1190036498668744,-0.16212334063632683,-0.005442632534802689
-0.10774232508629694,-0.105106554554595,-0.16738194083870253,-0.21771106556237524,-0.08231861011253232,-0.11639420769750863,-0.16068542077794637,0.019406011698857136
-0.10703008469056334,-0.10559883094857273,-0.1603180983893711,-0.2153022867686764,-0.07892931175589085,-0.11417893520350125,-0.17095186012685093,0.03306441865517102
-0.10795052367826964,-0.11791321294368369,-0.16624043270661723,-0.2190087742840941,-0.08493957965477031,-0.11418126736621467,-0.17660791806041543,0.031321725446439214
-0.10966616869033598,-0.120757464716275,-0.17137362963615657,-0.22349242045671858,-0.0886975867412245,-0.1242095815013568,-0.18459020303842832,0.009170277002054692
-0.10067768652343316,-0.11493916179608772,-0.170749792292713,-0.21854926309200107,-0.0843860391971002,-0.12132482852025313,-0.179803811461582,0.020496411619665936
-0.10973805139365701,-0.12066227032112713,-0.16968132093639143,-0.21464603329931142,-0.08495925638812045,-0.11166493496838029,-0.17699438394429162,0.0376168392863074
-0.10151906307099641,-0.11304617327766668,-0.16393321192095342,-0.20989933307466097,-0.08296838391202818,-0.12222546729197568,-0.16787524731627476,0.022536944076739444
-0.10751517041205343,-0.12879891445388522,-0.16512510838040828,-0.21520397478008205,-0.08091413839111479,-0.1301141334558475,-0.18344268375101586,0.014738747059978047
-0.10287865815086052,-0.13949924243970543,-0.17563059842646572,-0.21921192191553512,-0.08907463763658827,-0.12276584003049378,-0.18848069854258298,0.016529060240068366
-0.09506171468883282,-0.12123071943443825,-0.16344914263054605,-0.21249834630813,-0.07829278422674626,-0.11904666294462134,-0.1795209473274903,0.03391472148892338
-0.09851512924572886,-0.12946710933565425,-0.16257170216320466,-0.21262483639443008,-0.0787746664760667,-0.12639577522464399,-0.1876142188146947,0.04268090284120345
-0.10181595024079342,-0.12801084131772963,-0.16972360842366555,-0.21317818583204848,-0.08765483982260423,-0.11828500971737799,-0.1762223425227308,0.023781425822870527
-0.10607841163883075,-0.13698038039908458,-0.17642141100236328,-0.21595404582925007,-0.08708157996708007,-0.13706093343796646,-0.19546425665707695,0.006248001224916857
-0.09918257097423896,-0.13791165977188416,-0.1660014576819061,-0.21450745696888693,-0.09362019254276546,-0.11747229597541023,-0.19692482028639324,0.03950916899988995
-0.10165902870462412,-0.14966426180312478,-0.16448372926115468,-0.21420875443332169,-0.08341374420299978,-0.12414648224589048,-0.18050509311547355,0.04124685407877697
-0.10160512899953546,-0.16035057318559873,-0.17021403425612272,-0.22095355005779338,-0.08645373554620821,-0.12389091812238268,-0.1887212682711379,0.03600503160527566
-0.10194072348041862,-0.16916653284259373,-0.1850579263171464,-0.21883756591772818,-0.0923639124049815,-0.13212560964765402,-0.1943735026339612,0.004734193613266399
-0.10449831761780767,-0.17337923153021856,-0.1784953567567379,-0.21465753620559977,-0.08569925823409187,-0.1274184562129304,-0.17939065090214082,0.004493269945046235
-0.1021575597301075,-0.15017149217816883,-0.17595519429544282,-0.21212256856215705,-0.08151419840770074,-0.12400656158939828,-0.1776721489154685,0.03766370501973425
-0.10471586221143354,-0.15188265320636277,-0.179505950554792,-0.21658044089685888,-0.08339314218189144,-0.12267267965787275,-0.18975258168076772,0.025683612780678898
-0.10234644976148773,-0.1695450853608605,-0.18097045577433868,-0.21551362937678406,-0.09215489672543524,-0.12935211292964938,-0.18690658804031546,0.008592607094887763
-0.10486696819375557,-0.1700890127248791,-0.1862597429570049,-0.2151470892656914,-0.08383000542729384,-0.12273412089940809,-0.18759153605821793,-0.004622476856512559
-0.10336777990565749,-0.1578675887647398,-0.1676101664579473,-0.20481138487438583,-0.08906108408641897,-0.11335369786209001,-0.17559825182768524,0.026012374752993013
-0.09782518469396204,-0.16053483138636113,-0.17106790681550074,-0.21347959441629158,-0.0872786447370381,-0.119730445896066,-0.18826962231591043,0.03159932910020636
-0.10570906109423515,-0.16903533496926423,-0.17550277571762962,-0.21312517750648746,-0.10051345891191836,-0.12633842604634202,-0.2062048769337207,0.03118708704488541
-0.0996548830638448,-0.1726437517219285,-0.18262516216593183,-0.2265921790859903,-0.10182568491021593,-0.13199945698752452,-0.21164249698809545,0.011278091564233055
-0.09891266341811408,-0.15513335742940043,-0.1759336726440304,-0.21049363344047253,-0.08339945569747878,-0.12653208906433533,-0.18440091355449809,0.04158855394000574
-0.10097281901695833,-0.16512374097062502,-0.17493352621368938,-0.20468351295373363,-0.08328672752545405,-0.12034989375812237,-0.1853856359834674,0.039739950727336215
-0.10016988442236567,-0.18066385049130276,-0.17885892694986627,-0.21267813383594855,-0.08581935038744704,-0.128693875905867,-0.20475765153465844,0.02659833517870834
-0.10900319539816232,-0.19321911046198348,-0.1900190001123485,-0.20896000469600842,-0.09612515808090753,-0.12294152585313135,-0.18339867858434472,0.008018274661275733
-0.09998946161388106,-0.18351792374395387,-0.17645443039807343,-0.21880640002269294,-0.07906492140966426,-0.11381158962258137,-0.1599487011764632,9.060406419972574E-4
-0.10733022384480456,-0.1668530346886024,-0.17278918484224368,-0.2065649036059413,-0.07028799460826225,-0.10918281292446502,-0.1541095468464137,-0.0027889666758827347
-0.1056549177930642,-0.1577290888999003,-0.18753769711140736,-0.21848385930178676,-0.08591907402658272,-0.1248106709929735,-0.17972242407409028,0.013832400843181193
-0.11294996338026085,-0.15453965231374703,-0.18757774721010914,-0.2264069088098891,-0.08645565186230193,-0.12895994863014335,-0.18924243635110582,0.0040070040220028715
-0.10718223171870149,-0.16362828546935768,-0.1821917241806314,-0.22567318891653662,-0.08261372422027848,-0.12687720606143696,-0.1765275015681969,0.004677596333066867
-0.09807613934345985,-0.16140710584254894,-0.17773879012744562,-0.21580345656813146,-0.07391940226077817,-0.11726565347500222,-0.1721408925757283,0.008192300714565807
-0.10618188654893095,-0.1615617346698748,-0.17440676388732135,-0.2251108377527148,-0.08686130394664691,-0.113238011248523,-0.17238408224364057,0.0088836202418928
-0.10689497541029518,-0.16315922502715327,-0.18530760465148532,-0.22505606335475656,-0.0957285573319761,-0.12573980581007083,-0.1834124823404609,0.00393314192198503
-0.1063689635131777,-0.1747820977017446,-0.18451935754513565,-0.22671011562189328,-0.08849366938872631,-0.12860316894609392,-0.18300889542329107,-0.016071274720755185
-0.10295324100233272,-0.17041620391243947,-0.1794931579290023,-0.2125153947552901,-0.07804769037578312,-0.105278378343405,-0.17274320716284058,0.0058430360174582295
-0.10326954551233317,-0.17459066615285657,-0.18201519518365275,-0.2184990775685536,-0.08141700986808914,-0.12862571782334598,-0.17598454175494588,-0.003044994250636307
-0.11487750335598809,-0.1794283223209182,-0.1896764108865598,-0.22895792574664012,-0.09104775337472594,-0.1211222289606091,-0.18383328243535677,-0.001145473720330998
-0.10657657613618217,-0.18536468902263106,-0.19310793456896522,-0.22698127311535818,-0.09641027154519677,-0.12669829608685804,-0.18515528336924417,-0.03194284356399103
-0.09748737289040721,-0.16861544548437843,-0.18171677482067164,-0.21886473462743491,-0.08664128037463917,-0.11937974500553777,-0.16701440211863827,0.011140891128842064
-0.10376360582262922,-0.1624185959498796,-0.18025664874079247,-0.21792893146034026,-0.09069448962011521,-0.13047566997706703,-0.17851695826134603,0.0061904487279073805
-0.1002404900588453,-0.16823449580846528,-0.1794771002005368,-0.2268465349835014,-0.09301397917609143,-0.1258732346737207,-0.1866135487211888,0.01693018763597545
-0.1039315528147347,-0.1819594712490875,-0.1962983919150533,-0.22205775424578328,-0.09739846845658541,-0.13393227503084432,-0.19443373326888455,-0.006603820295325874
-0.09976859829675157,-0.162834290560052,-0.17532017615305764,-0.2239960873622941,-0.08212000301264565,-0.1285186133065988,-0.18245332095300862,0.014811404680193076
-0.10017198553280554,-0.16971085074193196,-0.1825531476245364,-0.22039449863950222,-0.08122415857704549,-0.12889886910968046,-0.170886960251615,0.010266410138251796
-0.10141766301859212,-0.17639204910190262,-0.17991990609364483,-0.21594682676952767,-0.08746847575538079,-0.12022845504012449,-0.17788077048013504,0.005472646359462327
-0.11122905496483548,-0.19329404905423508,-0.18830066284977065,-0.23069170931056,-0.08775955206891982,-0.11882119607761728,-0.17030896962731554,-0.02146670592978023
-0.09609812126056426,-0.18560954170138746,-0.19117404070164737,-0.22198408571587952,-0.09554713091959872,-0.13304197210962723,-0.17977320123786728,-0.016187587871452094
-0.10380534599289833,-0.18139029460301034,-0.1786915262442402,-0.2210080438313816,-0.08351506110500191,-0.11455059199302427,-0.16660688263207246,0.002981764903445875
-0.1015324602958412,-0.17163965045610913,-0.18526363661779013,-0.221119720859163,-0.07414058681278873,-0.1254476931677171,-0.16302809826970405,-0.001798857890509711
-0.11267255000823465,-0.1591210280319313,-0.193376821159394,-0.23316115333313278,-0.08387635311887916,-0.12043201235046555,-0.1446037682549386,-0.040477953052849784
-0.129684016407468,-0.13664702229640724,-0.19810726193289144,-0.24948251581117084,-0.09777483766425091,-0.12069259025946943,-0.16594328469761307,-0.04401768198397054
-0.12109792694291721,-0.09292123360206671,-0.18719972442490168,-0.2550964362768579,-0.08022199262739844,-0.11526098726372691,-0.15377696354113432,-0.02990474248171948
-0.13350965494806688,-0.06360835537781295,-0.17356585834450405,-0.26164690019484604,-0.08079668478659194,-0.10648983548899824,-0.1328760354077936,-0.04220328485400105
-0.14152852173447414,-0.05804421819162714,-0.18690750654510194,-0.2687581441964149,-0.06650454002066017,-0.09854774377121571,-0.1221833933259683,-0.08363259508079125
-0.13968102214310046,-0.08845068099088488,-0.2021537550971364,-0.2821426962995197,-0.08044237653421363,-0.1099222640360315,-0.12289324279803446,-0.11511410342155791
-0.13389348142605798,-0.08356037519876688,-0.1942111995965504,-0.2645421522953222,-0.07559824624812511,-0.10721876384829193,-0.12652500494834965,-0.07939522157166114
-0.12972256316684422,-0.09724360620944208,-0.19738189952569887,-0.254725647525303,-0.06831474460731686,-0.1113503086304627,-0.13768508015154385,-0.05620765011739342
-0.12527881030715748,-0.11002283445797788,-0.19752389593338132,-0.26207026366694053,-0.07584191291304866,-0.11318472029480237,-0.1293797894738113,-0.08265952029182405
-0.14530884029980656,-0.10973775756938706,-0.20157367812958477,-0.26911329621756286,-0.08009476880452444,-0.11491730260581337,-0.1369984052332998,-0.09372554700491396
-0.1269301093167039,-0.09409312626613289,-0.1995068802693469,-0.27016941853939325,-0.07238148091837039,-0.11121267916765819,-0.14009068152543788,-0.06427583670922095
-0.13842078426945278,-0.09408460535688139,-0.20161584056572426,-0.27240679268082074,-0.07975090923684498,-0.11146664807159672,-0.1454377008617582,-0.039648088314914384
-0.1322455876068955,-0.09263309647991778,-0.20078155715837487,-0.26620254349866657,-0.07545361243725171,-0.10175122598834527,-0.13431316931615658,-0.06768645148935076
-0.1395593588876998,-0.10986206118950337,-0.21095453873976705,-0.2777595701018422,-0.07627443984909117,-0.11053050924027293,-0.12886758693949538,-0.10559520388131188
-0.13184702934930045,-0.10927709173726956,-0.20712276167585325,-0.27710028229959943,-0.07377774237459388,-0.1048171723360855,-0.13321820058842654,-0.09970516239199316
-0.13360814336316462,-0.09878957102131379,-0.19942694826257065,-0.27375681330564355,-0.07690165114134101,-0.1046871226701519,-0.1442672854434647,-0.06242061108162058
-0.13937979672614806,-0.08585361453647802,-0.1986902109185409,-0.271402738610117,-0.07344221012873907,-0.1099492939496093,-0.13372625801792806,-0.06170637899368752
-0.14517482228693843,-0.07524816801512087,-0.2076270981665559,-0.2819343647583143,-0.08296599704645384,-0.12232015468074658,-0.1462557513057069,-0.0882367020448315
-0.14176315859233127,-0.09891100620384266,-0.2111099747444644,-0.28798599941842074,-0.08891913231881494,-0.12161050913723802,-0.14766889045140852,-0.08638905371684726
-0.12905036028760095,-0.07118264103250121,-0.1958236078055983,-0.2721939307863405,-0.08068064890517516,-0.11381444113714348,-0.15446074679223698,-0.031356856268561197
-0.13774319098834564,-0.08233638733346237,-0.2042687032078943,-0.2726362095500834,-0.07772093053487189,-0.11818446371184956,-0.15816514101403137,-0.03800275888073421
-0.1332694731616693,-0.09137458018538441,-0.2003039667154119,-0.27601410681956556,-0.07973354865610757,-0.116889983024402,-0.14018248243567108,-0.06888310376453624
-0.13765380480823952,-0.1093504832860483,-0.2086382407975677,-0.27786981414235284,-0.08604742798770913,-0.12135803442567217,-0.1477677639321433,-0.10436736387485798
-0.12090972260427016,-0.10095692629179497,-0.18549915835305952,-0.2594322601286256,-0.07426313884416472,-0.10511770983735848,-0.14682217818166807,-0.06412272517748571
-0.12655610872369508,-0.1019060295401993,-0.19054836732905558,-0.2638593336676334,-0.0735680998876848,-0.10917723734538384,-0.13423276516422974,-0.059246227267844266
-0.12646423391061185,-0.10806242644585452,-0.19025628277662385,-0.25182093588693083,-0.08557283410088733,-0.108114632407286,-0.1499387141337767,-0.06900344961705314
-0.13612706737982774,-0.11831142292193808,-0.20372013934996197,-0.2605809412790019,-0.0839314058773928,-0.11804479989858367,-0.1501275993128747,-0.09314721460031486
-0.13113845881313999,-0.11100603523773835,-0.19617304024468074,-0.25927972819520656,-0.08331508728233064,-0.12162289127224425,-0.15578962486888695,-0.07929269388719376
-0.13170785602112758,-0.10592915596023467,-0.1951664158881801,-0.260638689709234,-0.08989761422535428,-0.12232572710699237,-0.1693404767141735,-0.036090220790400675
-0.1315932043360679,-0.10676373086847792,-0.20191062123896975,-0.26608861917843474,-0.08293701148973344,-0.11814093712226215,-0.16733891122632807,-0.03292450945781086
-0.13902787966007335,-0.11197030669958047,-0.20473388526302014,-0.27010572340079025,-0.08820804208246945,-0.13397678332005752,-0.16903637472423602,-0.060657946039471215
-0.1334689542559703,-0.12680257267980907,-0.2088896679770553,-0.2647880412100377,-0.08812252310068826,-0.13333622684435265,-0.18273518719319495,-0.057426567110588016
-0.1260601066312006,-0.10296602549245579,-0.1906903490747558,-0.2600297893032132,-0.07440046500200898,-0.11233422072049613,-0.15722144316322476,-0.05073966066161287
-0.12552896745092593,-0.11723039876804492,-0.19528403793793883,-0.2619982381262178,-0.08129215128134158,-0.11979566301166115,-0.1457112637514103,-0.0501403406608647
-0.13441556722446685,-0.11170617432301135,-0.1949634422293207,-0.25523500549440226,-0.08251860186502938,-0.11512383560488786,-0.15539387495126653,-0.06722505039406464
-0.13367935797334332,-0.13132398878698817,-0.20603317461955756,-0.26667367343784104,-0.08954783193709291,-0.12856016946540458,-0.16646746303685603,-0.09600958472738727
-0.12926483019177937,-0.10410355288674542,-0.19769367252027453,-0.25533010261337497,-0.08038746387687183,-0.1235959689243687,-0.156064217732768,-0.05604142358965056
-0.12726450591883462,-0.10696758126172834,-0.19842760784733715,-0.2661208198841058,-0.07890026737448885,-0.12624206703763016,-0.15487344572035125,-0.04593008182794814
-0.13202365579149242,-0.10827858559695029,-0.19722907605174775,-0.2620025173462207,-0.08458108664937308,-0.13022453408814313,-0.14015570998661686,-0.056882463862800346
-0.1259258583946597,-0.1251762176812751,-0.20625944986459455,-0.26198626885084164,-0.08411717137784086,-0.130430824041053,-0.16430982311536452,-0.08145878742688324
-0.13712802697932253,-0.13922958015258532,-0.20582378538332569,-0.2664008254616918,-0.08934440504847002,-0.12842732142349353,-0.15536125209603047,-0.09797979012206945
-0.12910651877350274,-0.10994521243103378,-0.19684197438352194,-0.2588813673171891,-0.0733407598975317,-0.11215184121364223,-0.13821433853938486,-0.07047255927360555
-0.12906614440447892,-0.1273022600872925,-0.19798482520183536,-0.2567114740445344,-0.07258933198430036,-0.11305385654856333,-0.13040995962142324,-0.08568992041964373
-0.13054335676287052,-0.12627155329218523,-0.20538233392116081,-0.25940736447460644,-0.0772461912454948,-0.11074897886334337,-0.13058347042976423,-0.10532213733372926
-0.1384886251412357,-0.14943384239272897,-0.2133685519142476,-0.26733545140177356,-0.07595890206912713,-0.12536712097075414,-0.15118504911620287,-0.11044454563123321
-0.1346698106682205,-0.14549977932146624,-0.20998132780070677,-0.2591526455255355,-0.08170612635269378,-0.12032158177837163,-0.1579837386300151,-0.09470568738187991
-0.12558649130380647,-0.1281698685982124,-0.19756726343427822,-0.2627145535992995,-0.07499089254348976,-0.1129280162403855,-0.14549543536233228,-0.07221944500244923
-0.1293123178005044,-0.12842846830691096,-0.20461151262522134,-0.26002376707413366,-0.07093865925198065,-0.11734073800029352,-0.1406580186780546,-0.08002867350154598
-0.13185354705617552,-0.13331495292866408,-0.20811348752043118,-0.2673360094365025,-0.07602636471592521,-0.11707383218041165,-0.14647886059248533,-0.09067831323615416
-0.14020703084320407,-0.14625858367482616,-0.21196192722214832,-0.2757007293352232,-0.07923147042378686,-0.12079985555231418,-0.1621235250416943,-0.11713924695002793
-0.1307198611048017,-0.14279893599604807,-0.21261267380315504,-0.2722787524078464,-0.07920648765513952,-0.1257988764380726,-0.15361950405543945,-0.12356664433059064
-0.12869688156486447,-0.12405914095417565,-0.2091304554365746,-0.2682402241042362,-0.08185262008452822,-0.11129629205603626,-0.13825354153912492,-0.08799310197932689
-0.13236623943796666,-0.13443432024468813,-0.20892237590634608,-0.25737502470243057,-0.07259741385144626,-0.11112716546416979,-0.13420323276653828,-0.09093513626765914
-0.13334595509815145,-0.14492701547477813,-0.2146406837786027,-0.26442819831496656,-0.07471368758890559,-0.10997831086069404,-0.15077355512001805,-0.09644058801636413
-0.1421298869861785,-0.1570107748288411,-0.2226637512001153,-0.2791916346042782,-0.08547978856024192,-0.12245441812019879,-0.1520769377543333,-0.11907956427866656
-0.13525380542830923,-0.14877491477489843,-0.21080232961139347,-0.2637890991628244,-0.07436864692144327,-0.10716946408209001,-0.1336215859467133,-0.1265164268719993
-0.12825132989352428,-0.13927626780565158,-0.20310031945910023,-0.2631151145590041,-0.05782402620070903,-0.10369757411026544,-0.12714426627273415,-0.10174274858189586
-0.1383333807865654,-0.14520299007747908,-0.20865600492456338,-0.26919673522389354,-0.06506629185479289,-0.11216491287908352,-0.11769421242310038,-0.1092800227767617
-0.1416687853029425,-0.15994873365434495,-0.21986225462399783,-0.27278387472171467,-0.07344176609213217,-0.10970407231737027,-0.12999312598878102,-0.12979889304629344
-0.15011970426785068,-0.17179594217190844,-0.22634101434516105,-0.27743754743935445,-0.08177329352587759,-0.11682432070943789,-0.14397628902308915,-0.14701669980624102
-0.12344558247710062,-0.14231247171615327,-0.20644938692304074,-0.26110640366191157,-0.06199720634798479,-0.10714258844168255,-0.1279197196559802,-0.09840948933571805
-0.13161637261499437,-0.1354745471546621,-0.21044900566852648,-0.2671073644595398,-0.07021153406910581,-0.11137519666392819,-0.13278697163399306,-0.08580268598805509
-0.13292328834432854,-0.14286771871568646,-0.21115040849612796,-0.26189909805116396,-0.07411585588824425,-0.11287663447473274,-0.14464522555742523,-0.07225500721112953
-0.13948758343200185,-0.14682938853801336,-0.22133547649461502,-0.27446986572424503,-0.08765355865858718,-0.11929169980919542,-0.15919564205143422,-0.08901316121144891
-0.13757365459671306,-0.15367786643842793,-0.22484145336062175,-0.28380549423265167,-0.08435194095938855,-0.1291525811004671,-0.156470851465718,-0.11532285052976211
-0.12704120975624053,-0.1343809336062777,-0.2052837677249285,-0.2551410853410923,-0.07420900954621912,-0.10079101971926742,-0.13362169466087012,-0.0693839762446549
-0.13223058984173666,-0.13668018156443723,-0.21063387978535544,-0.25542910616196696,-0.07412261345101429,-0.10374747861917225,-0.13440552799552993,-0.09364022101991802
-0.13489294728601625,-0.1463552013960479,-0.2071476176166773,-0.2696732753989564,-0.06695598684098399,-0.10380009434570373,-0.12506140077063269,-0.10628237193442237
-0.13903261947102172,-0.15081674991843738,-0.223552009669923,-0.2670038384494526,-0.07091053764740463,-0.10378730953849251,-0.13163298520980302,-0.12288367382721377
-0.14264896927225335,-0.1511352218575957,-0.22360754927482557,-0.2766605784112424,-0.07407247051383432,-0.112042491320241,-0.14685719319648094,-0.12535282453202837
-0.12479438083707127,-0.13154743672158847,-0.20506128974166968,-0.2680811681119917,-0.07634828063016254,-0.11002334769802294,-0.1487853120952451,-0.07626821290197172
-0.12789534382344975,-0.1313825041427241,-0.21385262018365817,-0.26440079516883913,-0.06933965402047276,-0.10330650822138523,-0.1448005977099542,-0.06946956567501326
-0.12093102138791434,-0.14051057028112254,-0.2118498255066582,-0.2689100358558663,-0.06545723861532267,-0.09428471123854255,-0.14004994568304405,-0.08200447747357287
-0.13402536238428364,-0.14223344369923616,-0.22796007555196407,-0.2779243960560817,-0.06936246272490919,-0.11503726755088503,-0.1349061796609898,-0.1241685534052956
-0.14214289671209396,-0.16342499434127175,-0.2303188853320843,-0.28458844486010976,-0.0741175735764223,-0.11932128772309598,-0.13891480203664658,-0.130383913365383
-0.1317624807877592,-0.1391254640739277,-0.20751626766381231,-0.2709329731730324,-0.05891176917902511,-0.09207301744984873,-0.12016820276293888,-0.09039462581317811
-0.13010902769098326,-0.133997019978152,-0.2169220902329289,-0.2720772277687041,-0.06611633981982605,-0.08902231182083294,-0.12382353637508614,-0.09881637429967859
-0.12488097310340286,-0.1575006751995517,-0.21987711433072069,-0.2673731306913222,-0.06043431073814279,-0.10114047581442605,-0.12162999081389944,-0.09976035366042123
-0.13194246038491236,-0.1701039934118654,-0.226439931165046,-0.2745643017182926,-0.06565799566266325,-0.09561766538784647,-0.12339175765628445,-0.12213617290325206
-0.13810421077484755,-0.1471740463915735,-0.2204260864631991,-0.2830926104913004,-0.07348584141530701,-0.11704841611515142,-0.14080260146908047,-0.10691291072631187
-0.13392954190096318,-0.13137900153701326,-0.2076870086848448,-0.2604831645400797,-0.06511820811139278,-0.09422626106746249,-0.1261704736896462,-0.06978343521137916
-0.1309062930848469,-0.14358374061267315,-0.21370118830693485,-0.26998636835463646,-0.06393006118629682,-0.09359738087434845,-0.1280528523007716,-0.09004337025476246
-0.12890413427283692,-0.1432067499854046,-0.2161106913272583,-0.2708154289796132,-0.06448341561949739,-0.09675416203468248,-0.12978112046247942,-0.10820248536456531
-0.1351096229772588,-0.15285273716596354,-0.22492195783675945,-0.27695606873682826,-0.06997383336381602,-0.10210927302061079,-0.14455229709076628,-0.11520161378893057
-0.1269581585551026,-0.14909960362700644,-0.2167455389162263,-0.2668084038271323,-0.07149279359026826,-0.10261814147680022,-0.13346276312861186,-0.11003602132004131
-0.11824213789365359,-0.12902503267528737,-0.2031413547421529,-0.25912044177141835,-0.060986547036180776,-0.09299097308287604,-0.11710874124164082,-0.08294186243463593
-0.11859337591532707,-0.1363188411796484,-0.21184480235242392,-0.25959632490249446,-0.06721894666403505,-0.09505936339357379,-0.12394595755552948,-0.08826537605246308
-0.1268522748413257,-0.13660835207772645,-0.21363762332269837,-0.2776446875604106,-0.06883905852358409,-0.10695546501181287,-0.14681320301839523,-0.0689571374665906
-0.12667526959505435,-0.1371183438645017,-0.21436134003070645,-0.2720713583868237,-0.07213768567731178,-0.1108021678817399,-0.15739147421008104,-0.07918604303097922
-0.1147536727297334,-0.1335771747473994,-0.21125157547486476,-0.2626342798751677,-0.06773205853601998,-0.09493596325295689,-0.14556480645237654,-0.0842182673368156
-0.11889954259293165,-0.1117053562295262,-0.19619584840034365,-0.25227367065382456,-0.055788687921141805,-0.09468799797079469,-0.11851537371859416,-0.06535503762144752
-0.1160306844759768,-0.1275656512464854,-0.20352348127372488,-0.25770983148983556,-0.05829773997428757,-0.09426440292429315,-0.12967646902767174,-0.07268834027856903
-0.12073787556165483,-0.12550864636288417,-0.20367334975872284,-0.2711472216872859,-0.06970071040370598,-0.09658586812552404,-0.13968061448226918,-0.08422094181835772
-0.13033668519314184,-0.13355222133443606,-0.21477706949797812,-0.273272206376958,-0.06201568127868773,-0.10240855290040536,-0.12585961222898215,-0.10007740833696546
-0.11924419394016653,-0.1244519788210788,-0.20464188162963354,-0.2567160853908647,-0.06319690862669264,-0.10259956733141361,-0.12414019284090522,-0.10316559552351456
-0.11251214203925645,-0.11218722537143166,-0.1922334996882888,-0.2576802305971577,-0.05454582860734377,-0.08367785040424651,-0.11424183392242704,-0.08121726132278093
-0.11254486203132938,-0.12237275015716778,-0.1966517070832284,-0.25612873830237065,-0.055698300976641336,-0.09335402207291693,-0.12053396341458437,-0.06781554662281433
-0.12246071754146394,-0.10878582838917769,-0.19773252869508495,-0.264695176197126,-0.05881437383481585,-0.10223777161797762,-0.13075108812871705,-0.07583528167985913
-0.13053277771043453,-0.09977727299611214,-0.20749559904556916,-0.2723541992103392,-0.07448790294364264,-0.11317583275947309,-0.13928358940131902,-0.0886263159599576
-0.12183577945337594,-0.0907838525196368,-0.19897291183304022,-0.267625723721343,-0.07651503896571789,-0.10014033551418998,-0.13993540957160366,-0.07433120824536765
-0.1186995124177049,-0.07742685981626121,-0.18692257638015336,-0.25728957169156835,-0.05934469937826119,-0.10217957903164288,-0.13374137512036785,-0.05150605053435473
-0.11396211046526325,-0.0932039679952937,-0.19625365548309598,-0.25905153116692065,-0.05828550830055508,-0.09504509072793661,-0.12489203610217112,-0.0831499793544956
-0.12001357339683108,-0.1246469366298292,-0.20264163166382115,-0.25907811530754854,-0.058158136676065474,-0.09319101554544282,-0.11708891737486232,-0.10971902194131943
-0.12714286425090834,-0.13480218278180836,-0.20905486039817256,-0.26219452657256526,-0.06846115369961377,-0.10130059740297893,-0.11769231873323667,-0.12189167109581205
-0.1200716990418544,-0.1262305091512307,-0.19740659211150266,-0.2586487927839967,-0.054710086365922665,-0.08930325587123797,-0.1106866239908001,-0.11715695998606876
-0.11125729093683125,-0.11888187830737826,-0.19176552170612116,-0.2528978494268757,-0.05193646207777726,-0.08963218153847195,-0.10738920651369308,-0.08915107828472178
-0.11779416690080827,-0.10511468276903366,-0.19899630607053442,-0.25247023721368167,-0.05978913959656456,-0.09163478583747918,-0.10905341818057046,-0.08962705360731509
-0.12258494444823546,-0.12055418356122148,-0.19695365411816712,-0.2646595660732417,-0.0599715932077706,-0.09461610895225551,-0.1288835963231692,-0.08558333570647413
-0.1225548295714921,-0.12842897846343085,-0.20586004991599205,-0.2684803476191864,-0.0686710095632813,-0.10715782349726811,-0.14435890862288175,-0.10187014941239238
-0.11939920101537348,-0.10564339185279746,-0.19469871713416642,-0.26804202964779017,-0.07408225411228549,-0.10998435945199922,-0.1591436869370856,-0.07015662106217077
-0.1093589889043594,-0.08709806598761825,-0.18250718671578411,-0.2534506508242986,-0.06587037468738006,-0.09817807569908313,-0.15057734741942322,-0.019566972214719727
-0.11448113480485066,-0.08378582695045948,-0.19118869230427954,-0.2535877010576966,-0.06309176547266278,-0.10122184994010207,-0.13234252217591694,-0.04159963734531636
-0.12033098633812307,-0.10937153034150879,-0.1967333335060737,-0.25980250315128794,-0.05636093359484715,-0.09697758671939524,-0.11942018324742659,-0.06346118869176098
-0.11748548273427742,-0.115207304545414,-0.1990965298156217,-0.2560968313695572,-0.06760997601609943,-0.09993389509303069,-0.15193350106943398,-0.07898227674906176
-0.12350889096211602,-0.11767468803664047,-0.20413020408156482,-0.2623775232998123,-0.0736580322668524,-0.10563280060302423,-0.1528268047446793,-0.092279916191769
-0.10199527389049445,-0.0923257560334653,-0.1832035420625365,-0.25004004935475704,-0.06122875310704362,-0.09180342836107207,-0.12920537748432057,-0.04191161767630924
-0.10419785154943227,-0.10643986696574396,-0.179627943481699,-0.24329335595316726,-0.058874563961111605,-0.08196557441737329,-0.12191457301700816,-0.05513570572295778
-0.10605016018958201,-0.10711488375344043,-0.18667644866407881,-0.24080455275746612,-0.05359354661835449,-0.08095492178351872,-0.10839107417737355,-0.07384396525093495
-0.10371832091846483,-0.12312417909578484,-0.1903718432342856,-0.2456416865788842,-0.052443040088637906,-0.09097264279326006,-0.11288355765603712,-0.0873387659691165
-0.11890311395482114,-0.13618807193874777,-0.2031388474692569,-0.25638740784433567,-0.05887983772331115,-0.10313336932116361,-0.11444988675450293,-0.11393612069568373
-0.09849069629550672,-0.11197517463325542,-0.18810254940254323,-0.24427887123843856,-0.055794141284166564,-0.09185713694090956,-0.12574782268330778,-0.090294361403025
-0.1055355222262771,-0.10783769061431249,-0.18553331864609598,-0.23102116798873745,-0.05756922245443212,-0.08703437205417756,-0.10031683755730761,-0.07374015513700204
-0.10275734423725603,-0.10202078762665365,-0.18567411986770796,-0.24614352775971415,-0.06019378733660882,-0.08463202243915817,-0.10441373361332523,-0.07857571658516495
-0.1130081488810909,-0.10783686577200453,-0.18813234261835324,-0.2461638468207085,-0.046236430705698335,-0.09282418709105619,-0.11555239695438747,-0.0738596780531394
-0.11871813042493697,-0.12049699177886716,-0.19925346709994388,-0.24584688961440543,-0.06446933444545334,-0.08900651161720985,-0.11983181407474258,-0.09800575138371659
-0.11031696004596761,-0.09613932952992064,-0.18407024150933812,-0.24791705622225244,-0.05488286249208254,-0.09055910960017155,-0.11360021794824009,-0.08702681958775026
-0.10095474292603944,-0.10995298540412435,-0.18066799655211524,-0.23651495118583685,-0.04869363119427646,-0.08206163206875164,-0.09871221885010395,-0.07356299451205033
-0.10737317460095572,-0.09856066447778644,-0.18332896650399474,-0.23387638774870476,-0.05085911637188155,-0.07623269419338262,-0.0995820359087124,-0.08450980192570323
-0.10682621593876994,-0.11020551930735009,-0.18673199625428247,-0.2444084211789798,-0.06132847980376416,-0.08524839012866614,-0.09448946996369641,-0.10566601393174664
-0.11803882723604313,-0.13198491611210383,-0.19924476246373957,-0.2423235005470321,-0.057114229258410094,-0.09302461273838553,-0.10863015987475384,-0.1065969735997689
-0.1016177648398166,-0.11303632292322244,-0.18012041464614792,-0.23127887278243364,-0.05726015928509441,-0.0807499335998029,-0.11630673786246841,-0.07374478209165457
-0.10023593433885246,-0.11078562397659379,-0.17808982576041932,-0.2286151750904463,-0.05810571367287975,-0.07678950129239517,-0.10210068540245636,-0.06325478479078547
-0.1004155417087845,-0.10177240875859793,-0.17836652053819638,-0.2323279142630841,-0.04579118006394944,-0.08347269430134312,-0.1011245220716164,-0.07698806339569485
-0.10468095537936223,-0.11218315120637046,-0.1851901648686168,-0.24145265420582107,-0.04489796023118987,-0.09136261311104975,-0.10851868443502781,-0.08546166627380643
-0.1039454712290774,-0.13289134054538013,-0.1874252972231917,-0.24299956496785596,-0.06340710972246397,-0.08860393073204155,-0.11564612750318246,-0.10059077262598294
-0.09818838509609215,-0.10637493166036681,-0.17339188664670496,-0.23465225603442186,-0.04899595631592844,-0.08951574584254768,-0.09254553873084301,-0.08783552837902268
-0.09686602137977764,-0.09515340965871583,-0.16892324911341075,-0.220062856305845,-0.037125030813683665,-0.0689032637074989,-0.08560858157620867,-0.0706676670014905
-0.09872633731836578,-0.09658158150208888,-0.16639012975507025,-0.22660416369133785,-0.04879110530048819,-0.07881624939191031,-0.09589297777206031,-0.07235966824983828
-0.10812557308254435,-0.0964841216931543,-0.17130934352543797,-0.22775110776110796,-0.044746443692864346,-0.06975640253752453,-0.09995978990397558,-0.0780862293534127
-0.10638068392384334,-0.0963310281724334,-0.1810700540958651,-0.2329484720300335,-0.048115150494003195,-0.07710159698155543,-0.10324948537158869,-0.09200845098062586
-0.10291119332817476,-0.1040337973307189,-0.17367221793594906,-0.2293979690203875,-0.041714229430571265,-0.07972914887526832,-0.09360074500186909,-0.08733442600019929
-0.09540490050904575,-0.08686785929630975,-0.16408008627602413,-0.2249262857736169,-0.04876341727470494,-0.07732546641656424,-0.08601385375287933,-0.05383230469578511
-0.08891575354287416,-0.08844402819545095,-0.1644843737870605,-0.22826683059724204,-0.037319955447895126,-0.07693567984715799,-0.09704110950595485,-0.052133809511047284
-0.0920937085346501,-0.08167330645329543,-0.165905656684488,-0.22995564722858158,-0.047339959995775484,-0.06869012207287131,-0.09682463692775538,-0.04554384625483852
-0.10239382622729312,-0.08830546251263091,-0.18709897334958256,-0.2437959142331515,-0.045420439329930805,-0.07269910536122294,-0.0919858614950179,-0.07592131205583007
-0.10217781119780421,-0.11221057003886199,-0.19224013515432567,-0.24263139068042136,-0.0459112242577283,-0.07627772912985804,-0.10179261086768067,-0.08823158490844675
-0.08338682298230359,-0.07108651949368773,-0.16931652409133455,-0.22635716718205565,-0.03362466555238691,-0.06452449315615989,-0.07288065923231044,-0.06196362626508072
-0.09043670249409821,-0.08415011855986854,-0.16474555424733245,-0.21971329157745612,-0.03486932846629949,-0.05987667814674919,-0.0859002084150933,-0.056817640921858044
-0.0878642256452716,-0.08828332339984107,-0.16770699565681652,-0.22332929772318955,-0.02771617376754893,-0.057061405733348586,-0.07063387443073922,-0.06426410130818346
-0.09686439599012314,-0.0880056540179373,-0.178254068385501,-0.2295427439098601,-0.03769298777591652,-0.06452526926090243,-0.07791671435143445,-0.07112501038953627
-0.10209072246805491,-0.09248462308022339,-0.188910195168146,-0.23141226388010946,-0.04496510665422111,-0.06982957148467174,-0.09051107585508154,-0.07845579684819975
-0.08834652495062008,-0.08252687550504516,-0.16309067213370276,-0.21422861848576216,-0.03011131191643737,-0.06613042441563996,-0.09175088668240029,-0.046905554393741965
-0.08618788670806746,-0.08552957952301625,-0.1710657797624528,-0.21942895820333366,-0.036128787469701266,-0.06376914528232716,-0.0841699420248147,-0.04714686299684479
-0.09741281937473546,-0.08895872399476776,-0.17133559682381908,-0.23098065571137175,-0.03931940044319246,-0.06606587331982834,-0.08672225389430006,-0.053271636891572806
-0.10467222888492679,-0.09271758541701201,-0.17510210378681945,-0.21899773334730369,-0.04535930943836572,-0.07400614894257694,-0.09213049156480425,-0.06440392744124632
-0.10396385723758021,-0.08075024816561233,-0.15887090927372946,-0.219971286573469,-0.04271935981144039,-0.0780477512097084,-0.10361958095084267,-0.0657178744630855
-0.08901306695789422,-0.06752904711637928,-0.14532783939676758,-0.21195437370664869,-0.03604139475232972,-0.057370464078592864,-0.07410634145048428,-0.049823347494491944
-0.08948042236950966,-0.09045877563984583,-0.15743692878408444,-0.20373012764949316,-0.03871812107042768,-0.046085840496268994,-0.06648569041454955,-0.04824610336951475
-0.09049287217076438,-0.08281232088600096,-0.16343760837915156,-0.21774297267974896,-0.0359496027717583,-0.061602036060622783,-0.0688043368819138,-0.05918102991325497
-0.09681784458028653,-0.08854792885408838,-0.1772503114447156,-0.22927526243344082,-0.04627153644406801,-0.06422145987774909,-0.08490656169248438,-0.05973165105257513
-0.09638699342026898,-0.07904570551447936,-0.17381415235508077,-0.2267542691035148,-0.0452018417757745,-0.06832889781089779,-0.08912075088781077,-0.05358231395353378
-0.0816952391988593,-0.053754389488353885,-0.15830976158059434,-0.21790912005799953,-0.03860964511480989,-0.06177325815410621,-0.08418769213533626,-0.02656597762396501
-0.08413094951634112,-0.07947797123621347,-0.15735142534617352,-0.21859248119795666,-0.02431744279589388,-0.0492913742198811,-0.06825613714339566,-0.04186710824153349
-0.08550896265489993,-0.07662279323509602,-0.16101523494403175,-0.21126898580543635,-0.027591690057732193,-0.05593059431152761,-0.06492301913067927,-0.05094598403387194
-0.08893712173860432,-0.09605024351305225,-0.17357415170329102,-0.23156081375838705,-0.03730374527509346,-0.05733638528205398,-0.0644872318166549,-0.08487225885268146
-0.07539612343804407,-0.0844689215252594,-0.16087256623523744,-0.2111844455397323,-0.030887956256312007,-0.0441164475422383,-0.06118280233129804,-0.06176989635330393
-0.08271491723013259,-0.07916548037758493,-0.1513141820256315,-0.21034131757893898,-0.020831222879705576,-0.040319815721291286,-0.04870934231011841,-0.050004092754243154
-0.07840251137848134,-0.09307700630023687,-0.1624133631897375,-0.21203241923121396,-0.036985974065020216,-0.045553301725694544,-0.06517024423637632,-0.049610967694433884
-0.08304834564830427,-0.07679717726505231,-0.16474547978466042,-0.2230427833299621,-0.03690812590767128,-0.044986506382652766,-0.06158959173622447,-0.05278254715093461
-0.09631445209889006,-0.08147847138663211,-0.17449585493523187,-0.2313036127851136,-0.04315823747263919,-0.05884657665472908,-0.08171929643609754,-0.062110275392417785
-0.07547468298372664,-0.058436345302564356,-0.16340211569648486,-0.2081319633223121,-0.030476258046440104,-0.05524041915853631,-0.07344992201306494,-0.015431530813330657
-0.0765737649960596,-0.059985016027232246,-0.17246109742739743,-0.23013218170149172,-0.031210424795773958,-0.046897559436506184,-0.06361958066668724,-0.018006246302600136
-0.07729841576842726,-0.06626497560919026,-0.17614804089680366,-0.22015090280192665,-0.022914255720984076,-0.03991572129145351,-0.06416054740685401,-0.029542082864655057
-0.0817509065609773,-0.06634843465161556,-0.18466818429425372,-0.23145053709467697,-0.031499024827290306,-0.04723475702301886,-0.05792275634311667,-0.04660834534287233
-0.08901410124906557,-0.08540603418746515,-0.19098467414207437,-0.22635693834861936,-0.03337280888735733,-0.05397287570835898,-0.06805707803530767,-0.06921892716148216
-0.06738845687186115,-0.07091610420124966,-0.16423184188937967,-0.21582801218489125,-0.02254440037954979,-0.04072350197226449,-0.0441611696970384,-0.03801512578053954
-0.07744462194917028,-0.07310379900908251,-0.16539902410874419,-0.21332866780101783,-0.019047581571375934,-0.03879635957550163,-0.05012047710489744,-0.03539391557300875
-0.07305933720348656,-0.07980538638130481,-0.1620818289035492,-0.20782078761934572,-0.01963769671215654,-0.03667058005460977,-0.03717174836564896,-0.03222953197507636
-0.07770646022023754,-0.08375758268085301,-0.16968218794409975,-0.21924404558991917,-0.022551965659952395,-0.04981657185908308,-0.04843643805419948,-0.05048214466370526
-0.09101383403929218,-0.08426263165941479,-0.17166901674485957,-0.22496108548843022,-0.03246627941169659,-0.058881768402851184,-0.061974961824575604,-0.049616657764210884
-0.07887231256185995,-0.06539042037667883,-0.1600551804623323,-0.2096546940692001,-0.03366241601929232,-0.04421751913930497,-0.05927641389564721,-0.04128912019425897
-0.07668408208554642,-0.04584442154852138,-0.14783346967981892,-0.21049068449855257,-0.024272395710132132,-0.04166894045228204,-0.05576460399971269,-0.01548849245788565
-0.08191441937580192,-0.051764519413933986,-0.15241573294356495,-0.21382590520931646,-0.028613600507044354,-0.04785627576731513,-0.04737199347351542,-0.031898650981207206
-0.07840030705065189,-0.07156238136359318,-0.15558308094827725,-0.214695697633254,-0.03278674565505806,-0.04244068794333023,-0.054802542751839635,-0.04215365267737426
-0.09086237296293369,-0.08767770993724937,-0.1684311611353268,-0.2151799318606682,-0.042014146948637,-0.04824318064502401,-0.059758622751352644,-0.058167597477747794
-0.08660627020945162,-0.11013755847088542,-0.17654462883705568,-0.22087879010728045,-0.04434341527198619,-0.05320174779031127,-0.05247634801411746,-0.0902412944241586
-0.07100655121863506,-0.08534442336118528,-0.15216906566160507,-0.2009906881358951,-0.030578267226145494,-0.03933356064058051,-0.0382144598087644,-0.050527190478379745
-0.07752427955314939,-0.08131813238525348,-0.15676357542842884,-0.2063015144642317,-0.030389330860526954,-0.039015394671743725,-0.03585454300925031,-0.048799102083005766
-0.07845112317433418,-0.08018686174501102,-0.1512466156079839,-0.22005830909362076,-0.02794195622190684,-0.04673402965082387,-0.04458352743744904,-0.06047278377183427
-0.08580800963051188,-0.08919150333074972,-0.16005016916467307,-0.22233923799388164,-0.032522005814356415,-0.05800439961738333,-0.059855776722627874,-0.07632760129915785
-0.08594802619658304,-0.0943230915769573,-0.17042934299213497,-0.21760665003186072,-0.05185102458730935,-0.058573493558962124,-0.05812087270390258,-0.0825289231485809
-0.07671500332857979,-0.0734086149207336,-0.15398830437745564,-0.2030466012048385,-0.029393402704093533,-0.043643605247472815,-0.04289740808349184,-0.04566908578948402
-0.0846609610055248,-0.08770559882638351,-0.16278334027413074,-0.20319172865038684,-0.03886542172483979,-0.05425374555196441,-0.0756255632504538,-0.024943819588027414
-0.08593868813010684,-0.07794204808340605,-0.16203301019960964,-0.21677228315137137,-0.04558670052679397,-0.059014783615261655,-0.10008166046852598,-0.011517215295402667
-0.10037970405521175,-0.09085560426786751,-0.21072454198775983,-0.2290901748639828,-0.04072368499038619,-0.06306422811342834,-0.08806606657301894,-0.02416596066343084
-0.10485623087981925,-0.11582234622799635,-0.23413707355149063,-0.24355688225999952,-0.04873433231869976,-0.07160780003075329,-0.07483857713020525,-0.04003275482411166
-0.08731844328853249,-0.09248226944998222,-0.2171287035428982,-0.2230365499509202,-0.036317966109887016,-0.04270953104094282,-0.062221973527019615,-0.029656658354636507
-0.0871192757792633,-0.09710156191305988,-0.2107043450648839,-0.23236410035587354,-0.02323217707365934,-0.04096436751135106,-0.05282257185717006,-0.024457630103166626
-0.09733252663804712,-0.09352877255672057,-0.21685171069790424,-0.23767938650688378,-0.03158299377311715,-0.04450529496424492,-0.048354369673948544,-0.03747917586423449
-0.09980299092051134,-0.08313967078163689,-0.22128557275100064,-0.2463515109340519,-0.035766080823575054,-0.05754731203447991,-0.055043257080052935,-0.05030077949565252
-0.11318501081407843,-0.09901907597919768,-0.22829238812068597,-0.2582016772408814,-0.052759643695390115,-0.06704205547139079,-0.08377397589001401,-0.05823013654818397
-0.10117210594010456,-0.05163175339634127,-0.20087557702009562,-0.24371477710883874,-0.04080977844602508,-0.050946316254000555,-0.08278627561607142,-0.0030374739254237022
-0.09848964271648865,-0.0420250307734442,-0.1978948283693415,-0.24016788279192527,-0.04055442583768826,-0.05886541933036773,-0.08865268343105032,0.02502132181342662
-0.10785919123606393,-0.05450676614281149,-0.1995808492071361,-0.2382377343061904,-0.03195341374396193,-0.04848145415045068,-0.0641888124371911,-0.010000327770020388
-0.10726036183162649,-0.07896219411646624,-0.21014161264970344,-0.24355017590274206,-0.033704837186479375,-0.059898295099315484,-0.055154655803976944,-0.03683899489702743
-0.10852036031373001,-0.1009700373720899,-0.22431873251831147,-0.2475167499681537,-0.041603672615257103,-0.05310622403754144,-0.05476918886182341,-0.08098442543266858
-0.09822387457386964,-0.10008019538215002,-0.21396170136091025,-0.24011863702040778,-0.0415307067410129,-0.048859392397256736,-0.056490884639538004,-0.06222715789843782
-0.08584830719860888,-0.09146281652847585,-0.20116199282514938,-0.2286255174576166,-0.03182305143019066,-0.038318671048732295,-0.04059439891833258,-0.05383811927466082
-0.08974092133858332,-0.1065101879213144,-0.2016123103570725,-0.22750071560114446,-0.0279827864879015,-0.03516163951365059,-0.046775746879276735,-0.0675363170720735
-0.09659505747395546,-0.10698039564501993,-0.20443176998837703,-0.23271541982585417,-0.03311131837602976,-0.053555239301695076,-0.04542372170812401,-0.06162528743020985
-0.10256986165308546,-0.11098300936539775,-0.20938362074276948,-0.23990409283995082,-0.04063529077723247,-0.06410328496304973,-0.05980539594650501,-0.07555887363487403
-0.09406273561864233,-0.1010563953522232,-0.1886682300700928,-0.21377242672264665,-0.03661159274737631,-0.05071313780944378,-0.048668469184101476,-0.06570516469083168
-0.08894856454570357,-0.09110639022571856,-0.18410539501668044,-0.21945548754947214,-0.03449298345158339,-0.044750758285475666,-0.05668287454047751,-0.057727926829433944
-0.09699192381954552,-0.08694172240403122,-0.18990841855495272,-0.2357457470825414,-0.03840500764086016,-0.05400635104435611,-0.06273628699949065,-0.04677131522378736
-0.1135559161806981,-0.08418608780830199,-0.21044117457284378,-0.24436237479668496,-0.04833780327526147,-0.061579814798891755,-0.06719622780066666,-0.05439010678592467
-0.11294834007500766,-0.10161848207053785,-0.2213039566739568,-0.25272286785408343,-0.04553735650379907,-0.06366953316323251,-0.07421958560939947,-0.07768720858913872
-0.08656655282898139,-0.08106676953786127,-0.19431493171998238,-0.2296529070339988,-0.037052334939971246,-0.05127561498184506,-0.05387289534875377,-0.061289801977458466
-0.09264251989223607,-0.0696952552790971,-0.18448023990253287,-0.23510311170420417,-0.0373699227492543,-0.0595246877147417,-0.07569239750343176,-0.024888706088517846
-0.10003718975760689,-0.07656917266628561,-0.1777769621160879,-0.23203598022293623,-0.03876936423488223,-0.04673569113513958,-0.06683381968458675,-0.026028865912755064
-0.10053044892748365,-0.09523076503730321,-0.1831016698035942,-0.23117518833541847,-0.04536313285020259,-0.05976648868291492,-0.07111356798845168,-0.04302115301205372
-0.10439681076067082,-0.13338263171027645,-0.19579131782386766,-0.24017458416233228,-0.04407398641999525,-0.054855455906296945,-0.05900716814098418,-0.08799492283060699
-0.08180145165415763,-0.1053497506674816,-0.17053254619153593,-0.22057994682798812,-0.031086976603614137,-0.032173149308916495,-0.04168274081131551,-0.06111770971708332
-0.08948126499092189,-0.10126313650300199,-0.17365557189188788,-0.22014490795937283,-0.02601946608802261,-0.03859606611380524,-0.0385863823182516,-0.05872376094510914
-0.09191790328753752,-0.09581255519075882,-0.17610932986121683,-0.22249855661521897,-0.03493845597360998,-0.0403006027592375,-0.03994999418803651,-0.05205573381222374
-0.09723970690341571,-0.12167566514728974,-0.18156117006074451,-0.22871158067050337,-0.034000625096581485,-0.04191187349373557,-0.03648691185478124,-0.06803434407862012
-0.10150931987531295,-0.11389083549123251,-0.19722710704074004,-0.24123257699711784,-0.04477638420721759,-0.05352516550954405,-0.05752663206255907,-0.0883017108074072
-0.08645525094995267,-0.08222764699023273,-0.17203353738845353,-0.22495422497346354,-0.035064353441232536,-0.046138494155128974,-0.060448894564687175,-0.036261456432275005
-0.09293722978215718,-0.08824849480010905,-0.17353945980505606,-0.22090968665822489,-0.0417398185528883,-0.05631908867215376,-0.06113486448031784,-0.037566938337800566
-0.08622608644967185,-0.08950999323084259,-0.16910356429876255,-0.23232380859719015,-0.04627387900524617,-0.048451379452095905,-0.05203889988549543,-0.04386769530598679
-0.10220065777120863,-0.10717311078304585,-0.18803928969658493,-0.23550325255668605,-0.033004299389494104,-0.05253857330327513,-0.0631347413353996,-0.06887140692713467
-0.09631616608904513,-0.10686295038500272,-0.18510306892015543,-0.2243450399249889,-0.04456237706021931,-0.06001517058636947,-0.061033186243165165,-0.07409059028638894
-0.08458981000541782,-0.08985464524627437,-0.16489019029542487,-0.2146911844687808,-0.03348986598973004,-0.04867933047694499,-0.04765489399290717,-0.031244573984832047
-0.08742792669493554,-0.08911263673572489,-0.17252277160398544,-0.22457934868981658,-0.03833122669675206,-0.05285895876183226,-0.06106856909407423,-0.04122588153997336
-0.08698772592906003,-0.10789611512824225,-0.17611333347267064,-0.221452382866987,-0.029796305629126895,-0.0581399328911114,-0.05514789697490458,-0.04958751210726566
-0.09819795041304147,-0.12093646647346519,-0.17676366939864707,-0.23096758163733988,-0.04891782386622775,-0.05300690866030587,-0.05688081434532925,-0.06516777645762684
-0.09472915936768785,-0.12649973896520725,-0.18967884286932635,-0.2301143799938623,-0.041233578992281035,-0.05999129599976821,-0.058290412121221456,-0.07695764522456369
-0.08011484314485719,-0.09011316438261378,-0.1742471815043373,-0.2157790074637619,-0.033529730188429654,-0.04754631289656409,-0.04875771571692709,-0.03846208741283609
-0.08816511275239407,-0.09788827521806856,-0.17486253531466409,-0.2221700022999306,-0.03315099281826656,-0.05186165497782166,-0.06222671059833137,-0.03242784381233896
-0.08504297901218212,-0.1009356277720533,-0.1771354564818458,-0.21648777279665,-0.03240224052429968,-0.04400519051530153,-0.05165139551312893,-0.049754191184581166
-0.09803383977824422,-0.10392213191103006,-0.18449264856469433,-0.2279631963471388,-0.04153568336933269,-0.05310161211041219,-0.06548970082930278,-0.051526830900703105
-0.08604924614009786,-0.10316929694736986,-0.18329991794392209,-0.22625375096925102,-0.04306710797899164,-0.06414042862737618,-0.06258511247885948,-0.03807357235186176
-0.08619677080969179,-0.08137891683495253,-0.1619978522878201,-0.22191793177544578,-0.03628692520323419,-0.044958284597918854,-0.06589780931748064,-0.008873229932264219
-0.07784997761550219,-0.07847182803967803,-0.15861036332830541,-0.22199862447578114,-0.04187279370412115,-0.0563349873593656,-0.043800672779846624,-0.019643724041372396
-0.08856672205716837,-0.09134107495124907,-0.1702439655337585,-0.22085791542977617,-0.03925166906833032,-0.03878956027691398,-0.05379027503576431,-0.04051152293409507
-0.09627901496603543,-0.11488556824764241,-0.18733964620888852,-0.23716474365368895,-0.04459546622725149,-0.051567750965084626,-0.050628456523017375,-0.07168702890562306
-0.08820201946365334,-0.09871994406083488,-0.17774907180570795,-0.22543690735794958,-0.03899873846648101,-0.05352356984760701,-0.06542808030025894,-0.05757444770399392
-0.08119081139599228,-0.07968397324372199,-0.16383630737246163,-0.21445659031461525,-0.03854370365235798,-0.04624489762537711,-0.046573964598884306,-0.021008398843408133
-0.08995644760690667,-0.08234066351799121,-0.16126095057525835,-0.2218830759119303,-0.03855594708092933,-0.048246393606359746,-0.050384467205131137,-0.026026486643225977
-0.09101945858589802,-0.08928297154434084,-0.1660245076741077,-0.23242225043392736,-0.03710145066433567,-0.04962688135791129,-0.05506165741050143,-0.046802446641050766
-0.09597238155230978,-0.10117556903001088,-0.17625187456888103,-0.2298484820296031,-0.040511344787463884,-0.055863063958674866,-0.06420186758537066,-0.060880684325052024
-0.07259718162654936,-0.0809302881920574,-0.15455203835007716,-0.22015525087107254,-0.03213142823505691,-0.04396377538910452,-0.0564197428581562,-0.02742777890450896
-0.09310415243652394,-0.07599244206191795,-0.16067939686113558,-0.21307628420632524,-0.035936861980713136,-0.04313528315895654,-0.0496090018903042,-0.024602656171258785
-0.08272729947675246,-0.09508896545958963,-0.16616782863053056,-0.21446472333154143,-0.03733544216172203,-0.05208007994113601,-0.047332544888757655,-0.04372416923780894
-0.09490568454770307,-0.08957944391499353,-0.17456451422589275,-0.2242098946483456,-0.0430389010245678,-0.06183395881837887,-0.05707620458996191,-0.057975999951346883
-0.08419489418936617,-0.08176401498184349,-0.17483124350102308,-0.22385279406308714,-0.045869160386498804,-0.05774577938136456,-0.07530165675579786,-0.05106386073383549
-0.08054308156515169,-0.06100784701987164,-0.1601118990636161,-0.21482668130678742,-0.037863329711160236,-0.048082751324760475,-0.0583002969117263,-0.016730865189488475
-0.08033152721305824,-0.07879396815210621,-0.1619961669014699,-0.21867511535568213,-0.0297926695948004,-0.050038053847088634,-0.0566726462937346,-0.021392486082936635
-0.08574408116698409,-0.09070110820153457,-0.16208778857382544,-0.21589128500740162,-0.04352936731208554,-0.046282129372646044,-0.05296343479369584,-0.02976896400209463
-0.0970714938252391,-0.09010917414191788,-0.1698269001579737,-0.22786924009191875,-0.043357232546755296,-0.06391294466143956,-0.05659799902035565,-0.047800413307614545
-0.09096933294359835,-0.08462481630758228,-0.167490678060982,-0.22031609588038353,-0.042902159127417704,-0.05390516484398952,-0.04988249484813357,-0.049396597577827966
-0.08096953682158536,-0.07297440161844157,-0.15848963651808423,-0.20771510941902963,-0.03068703871889953,-0.04494193252623317,-0.03713622916372851,-0.03523835483446401
-0.0844844348091488,-0.06820027224170358,-0.1533728971850139,-0.2123571013043451,-0.03614895099116176,-0.04177980854916029,-0.04160474798790985,-0.026220473095464724
-0.08700915324053321,-0.07240306367556677,-0.1641128240771495,-0.2165675798490486,-0.036374657708668864,-0.0474690299568198,-0.05511459010811507,-0.04462131454471589
-0.09706957312113809,-0.08071929834628679,-0.1680686453361746,-0.2214897757570582,-0.0473163459922158,-0.06297217947959136,-0.0487270492024204,-0.052293527603768666
-0.093044133016959,-0.06955905082682123,-0.16525836175558137,-0.2194186212023957,-0.05721442662138117,-0.048771193860549816,-0.06657228414790985,-0.03678277282853789
-0.08657658498287742,-0.06668022545406557,-0.1480585538880241,-0.2040543278058554,-0.03751821626325722,-0.04780863298837012,-0.046825344173382424,-0.013191863228501879
-0.08936549739791964,-0.07641351308028115,-0.1548828297715548,-0.2030113070632785,-0.04332414794441497,-0.050310401988247364,-0.06000587556772594,-0.03607202384746764
-0.08684733352029761,-0.07331577054980522,-0.16126791443255145,-0.21006200531406072,-0.03836906076117112,-0.05044412572960687,-0.040381774191544824,-0.03493924539365707
-0.09636027320410313,-0.0899755135884457,-0.16591426095313314,-0.2074078466561109,-0.04111341918809802,-0.05806022331454293,-0.05654892786913151,-0.05329018754234107
-0.09254031077038653,-0.08438129670128396,-0.15354946330911012,-0.20791937297804072,-0.042910821591251085,-0.04733552245103159,-0.04978077322693897,-0.055009673740992825
-0.0875719243909919,-0.0675930537482031,-0.14773382256965908,-0.19840185663706905,-0.04361323638372387,-0.04531915684049208,-0.027306261275895822,-0.0404285129466654
-0.08513002981761134,-0.06421556267833142,-0.15390032677920007,-0.2021603284447922,-0.041927698390738545,-0.04999548161758412,-0.04623754106360326,-0.038757202221921645
-0.08918312341125591,-0.0677606160058593,-0.16459475374109753,-0.2088043196062052,-0.0496743934995557,-0.05638336696531728,-0.06495697524756044,-0.029940639439034265
-0.09488413392650097,-0.07063586513204713,-0.16182891288301943,-0.2159972070453958,-0.04204345470140789,-0.0543963167356695,-0.060586636638105144,-0.05807898460442482
-0.08164636945422087,-0.05552030593279882,-0.1457750421338111,-0.18437854521784222,-0.03325526191118955,-0.03251273261803235,-0.03232583566727828,-0.04336215855121596
-0.08754615808765488,-0.06649250488543636,-0.14845233299128274,-0.188273222030329,-0.04043496487192945,-0.04370251844480703,-0.03472175564986988,-0.05313119106546304
-0.08550688986759808,-0.07229476568879302,-0.15338105206030234,-0.19153033919039752,-0.042510152665115396,-0.039339535520992924,-0.05125163417437511,-0.047510822265098056
-0.0937204802445159,-0.08694975401520598,-0.16344757150914715,-0.21212449066450317,-0.03564012378418178,-0.05636512002647115,-0.05105545412642557,-0.06533609942587368
-0.08397855989437551,-0.09288103454258743,-0.16268226270843317,-0.2041778622341129,-0.041041308424236166,-0.05123643412626472,-0.03988820452509723,-0.06726780075997021
-0.08228025418902887,-0.0798247795472196,-0.15705287243690538,-0.19850712381889005,-0.03743895003200282,-0.04152296146270811,-0.02309094836374546,-0.0434409921610882
-0.08733048648633311,-0.0803718805348522,-0.15947487756694417,-0.2009791708902721,-0.04041046147003703,-0.044564883533189804,-0.036241783073517504,-0.05533107516051801
-0.08926553957584471,-0.09264594850355448,-0.1631563845352374,-0.20891669453684247,-0.03973498507987224,-0.05037370038733837,-0.04397595224195667,-0.05438918429696646
-0.09622984443698193,-0.09052845712660233,-0.16583683928990678,-0.21399904226166372,-0.045421818388278246,-0.04985728943744262,-0.04951561405878165,-0.055010337072073666
-0.07981257794322615,-0.08023996146911327,-0.14351060184637396,-0.19553101301810216,-0.0365220029105073,-0.03701624740949023,-0.02710573839112054,-0.046234216459995835
-0.08256767862252533,-0.08140042960786617,-0.145219050101788,-0.1995476297643696,-0.03446085769904473,-0.04313523285271236,-0.04355467205387509,-0.04366344370256553
-0.08805141248525375,-0.07957426075345399,-0.16048005196213555,-0.20454989517912564,-0.0346114370587846,-0.04376167634997359,-0.04091268617973466,-0.04586619507108337
-0.09703774614232949,-0.08487249515548674,-0.16386009220090741,-0.2146229653711943,-0.04426816359440448,-0.045131744621971746,-0.03293183346955448,-0.06599292955579356
-0.08332597178265148,-0.057742351790983006,-0.14060204239212287,-0.19374158095056349,-0.03431764085674873,-0.034850928473475415,-0.03193076803651733,-0.04643211769564364
-0.08574007142960287,-0.06743658273302619,-0.15024883593075025,-0.1922275826634268,-0.02987964041299539,-0.04034550221179793,-0.04031539022383798,-0.03163891382424071
-0.08602492175496912,-0.08191981300426739,-0.1588589860347013,-0.19745314011495113,-0.032641219563680345,-0.04294587097232543,-0.03898380584984932,-0.04105938610079528
-0.0924378261743878,-0.08687213721710614,-0.16449385975338177,-0.20936337254857884,-0.04060250352235781,-0.045177711590643335,-0.044064447982216065,-0.06039306446366774
-0.08333718645784828,-0.08150356345316952,-0.15452616020332827,-0.1960720653840439,-0.035911031681152804,-0.039543692576297106,-0.035815773783416514,-0.05879910437295999
-0.08374448201729975,-0.07100537695739884,-0.15570572069850663,-0.19557460824546813,-0.03346032481602374,-0.04284419823774953,-0.029618928895179628,-0.05255974181668397
-0.08337422512382821,-0.09287072952776451,-0.15972237294529323,-0.1990053379568345,-0.03400990117174844,-0.03810137524787109,-0.02876608342102959,-0.057112240224565104
-0.09063513731033591,-0.09571499318441525,-0.1608931241672284,-0.202058537494805,-0.042347735996739015,-0.0431917399851963,-0.02344937290538239,-0.06504015484989821
-0.09915344420773076,-0.09562201001283654,-0.16161289902511056,-0.2107644457762124,-0.04160301933659798,-0.0489931043130288,-0.040531428083491694,-0.06543473300592179
-0.0828444871895648,-0.07953598714037448,-0.1566996524372462,-0.20176716926156324,-0.03614575241141736,-0.040013639708444466,-0.02842171773380208,-0.05094748084404475
-0.08492402509368274,-0.08070089992366501,-0.15482780689540643,-0.20682472224621337,-0.038611219590488396,-0.03904480560760424,-0.035998969682156365,-0.053983129927427737
-0.08778756409299282,-0.09670620478446133,-0.16292553636405707,-0.20597468461174454,-0.03680273789667207,-0.04698303680216647,-0.04318499281071538,-0.051381620868751476
-0.09266415917687909,-0.09221368061931219,-0.169109350582318,-0.20723702570412517,-0.03959231476291503,-0.05486466533086879,-0.04498788108871454,-0.0564063749463065
-0.08428412618374162,-0.08586325066183147,-0.15423613401462147,-0.1897740231892262,-0.045089951744066006,-0.044652734027494034,-0.052235654623335466,-0.043606263245146645
-0.08586152179573,-0.08752023533309337,-0.1523233691916595,-0.1920548787284021,-0.03969767482175566,-0.04551803662409091,-0.03970935224991461,-0.032988260257574675
-0.08306409051682154,-0.08335610484548672,-0.1523775617773328,-0.19560902741854078,-0.025631863461189012,-0.05193997511780669,-0.04262067256098928,-0.03210881331800628
-0.0908835053646864,-0.07734099874032858,-0.16085949086536602,-0.19989192914807002,-0.04435901546430304,-0.0437302377213646,-0.04912561167627414,-0.04219473698162249
-0.09985282849161885,-0.10084337566482046,-0.16166776195904142,-0.20360498795414808,-0.04662638831733916,-0.05271229434458802,-0.044576193161899494,-0.06344899661986252
-0.08095002211950768,-0.08289589965481459,-0.1447126992036035,-0.19147806312687524,-0.038236992863877634,-0.0400539971630449,-0.026119721182390067,-0.04478357517413198
-0.0861498917102002,-0.08655742258542835,-0.1538228918470821,-0.19169521283350946,-0.036618718033918966,-0.046097261083352714,-0.03433674920645907,-0.050088409719516835
-0.08723852384103092,-0.09687605456736058,-0.15279414832641505,-0.19963520086149433,-0.03683888878626614,-0.04618004508977057,-0.039873894865974285,-0.048466818549481115
-0.0944292160217986,-0.10743000807658352,-0.16347587702325012,-0.20014951444380105,-0.04646471323745533,-0.05314621738675606,-0.03359148307125382,-0.07386754987910339
-0.09172874818270818,-0.10712510177655844,-0.1609723998310938,-0.20382183647625268,-0.04319511545376703,-0.048243273554961746,-0.03965520325066316,-0.0694883541460936
-0.07902256314074478,-0.06998131513798632,-0.14741083130118926,-0.18849008749237786,-0.04200570088225582,-0.04780180390909855,-0.03072347196376795,-0.037736167625442296
-0.08643747748740006,-0.07439063844916373,-0.14817917894016971,-0.1979340753844838,-0.03561919086165306,-0.05025370337238049,-0.04557344906128726,-0.047181313024950114
-0.09461835812658316,-0.0896515480318774,-0.15811184465014996,-0.2039648187885779,-0.04010322852686657,-0.05443046034298295,-0.033384298798643366,-0.04557110294556782
-0.08608314708186521,-0.10228952651503247,-0.16499597809262914,-0.2012333218073264,-0.04381553108121374,-0.05058919782820223,-0.03501377712804991,-0.05766182330820002
-0.08929530542233335,-0.09820780147311964,-0.16186796257837235,-0.1922370760915561,-0.049569419339095595,-0.046585953420310244,-0.04442146123572438,-0.07473306746481882
-0.08674193553235834,-0.07883065762393843,-0.1496175714937404,-0.18268143580693805,-0.03688826641350993,-0.04204263734863302,-0.03354441455077036,-0.05241994114223757
-0.08486643014831477,-0.07874839384321691,-0.15214692973102417,-0.19246147783746914,-0.04475216080942113,-0.04640408102262235,-0.03513176424320336,-0.056595566753446264
-0.08887347579506398,-0.06888531098985533,-0.15591755921071396,-0.20022524355854554,-0.037964075745086534,-0.046949889394553065,-0.050064510545762296,-0.05382607920922569
-0.09793659157931532,-0.0944230964910868,-0.15695789060635948,-0.21356786525402305,-0.055417707021089245,-0.0439593528055108,-0.05417555944748885,-0.06960477762545782
-0.08731690965217574,-0.061476554763177114,-0.14959576485645681,-0.19180302305434538,-0.053569851467173434,-0.053916842056972766,-0.04687074868002811,-0.04708708337836774
-0.08269564171768336,-0.06948490003454103,-0.15136652372927425,-0.1926717215617635,-0.03830626957285624,-0.04550032909539401,-0.04742811086607931,-0.026157977020170902
-0.08393149498281924,-0.07687985616251858,-0.14872580300627838,-0.19139546421031312,-0.04796353253022532,-0.047012766572781535,-0.05083131634741034,-0.037764175103247165
-0.09766389146113205,-0.08510672190937695,-0.16228329520477083,-0.19914960962909925,-0.04722902591527617,-0.04320298241793951,-0.05182964467400256,-0.06016304649654455
-0.09917543196366248,-0.11821951646240979,-0.17148342412221207,-0.20711523021551756,-0.05195584506979871,-0.04891648223416562,-0.04388552155198042,-0.0937776948664661
-0.08326533264645873,-0.09040537275871523,-0.1534248082924963,-0.18732633977816016,-0.03371205940230064,-0.04547878213997029,-0.04268804040777132,-0.05794614205314807
-0.09583399395088553,-0.08996852431445604,-0.15028491391625812,-0.20142167075134843,-0.038465650666773134,-0.04519416312247897,-0.050254538474318565,-0.043974758939709674
-0.09168668968451299,-0.08427263022875145,-0.15495450473352715,-0.2031172472969866,-0.038648601305733256,-0.039876265947219935,-0.038257435836191574,-0.04742908192089262
-0.09603063610970634,-0.11861035434163875,-0.16213430059654965,-0.1974535017585082,-0.055061165572542176,-0.04852906024315119,-0.0494825148307927,-0.06916119293915625
-0.09781452710421096,-0.12027971900243728,-0.1706408241710994,-0.2006775353477002,-0.05576209114846737,-0.0498641655415379,-0.05240415261654437,-0.07417702253290218
-0.09328590742428938,-0.09941618740497435,-0.15333412599706497,-0.18356682025847687,-0.04854559369511965,-0.04177545861724994,-0.05200973808639414,-0.0323960408953529
-0.0914871351760012,-0.10220005125054625,-0.15642158867753797,-0.19452414313448194,-0.04437626643575183,-0.04802044824558854,-0.04303922279496395,-0.04250189399958253
-0.10177398346477294,-0.1025590044899759,-0.16377617701785044,-0.20056306716735597,-0.04766177208905961,-0.0528574005127087,-0.04819555197172387,-0.051702578222571446
-0.10104283568756296,-0.12122148068918662,-0.17129363950273854,-0.20443953184885363,-0.05757603120190986,-0.050852981525823106,-0.047926848253338386,-0.07341739438858583
-0.09031304912123558,-0.09279629273205652,-0.1499763640211267,-0.19213547357696034,-0.047679883810074736,-0.043603652530143394,-0.0446684815997339,-0.06057734521929052
-0.09884241501745951,-0.07500796981585603,-0.154857124221454,-0.1978170425544555,-0.049132360067358466,-0.047649739415091354,-0.05636661787030765,-0.04138501068323678
-0.09261746654118862,-0.08244730832064336,-0.15529676002689563,-0.19685551995725076,-0.048642827940505916,-0.04457549797909769,-0.0546461846775578,-0.045709149533460995
-0.0982399810328612,-0.11354236184683984,-0.15816580484280363,-0.2034944346989214,-0.056740584259723406,-0.0557368197846523,-0.05191709148917308,-0.07508945939133146
-0.10241879090570591,-0.11777419922713993,-0.1708440963077794,-0.2057758851142704,-0.0596128721537515,-0.05327430573753498,-0.04565543520552585,-0.07598423218794571
-0.09526432351517748,-0.08967769510441166,-0.15091597412630578,-0.19151401113911082,-0.06021040284163226,-0.05678565334176244,-0.050381528007137,-0.042483927031130755
-0.09631212164147193,-0.09512095331374208,-0.15527487806817658,-0.19824065449559466,-0.04526319224847443,-0.058282916118227474,-0.0635640327388868,-0.03826163165141453
-0.099568636558225,-0.09881575567183096,-0.16536425011491607,-0.20307724036114072,-0.04881522297024926,-0.05045714726189675,-0.05508413118264768,-0.04080059470983861
-0.10035619218174953,-0.12022334621663965,-0.1699704449970941,-0.21416996559618887,-0.05638403528976905,-0.059422718578441176,-0.06337353204061714,-0.061408325644742925
-0.1037949188791971,-0.12664957363415766,-0.17012987235077945,-0.19175381756793297,-0.062464987037103036,-0.05802683308584945,-0.05751541939759885,-0.07393709512872948
-0.08501761309864349,-0.11363341831699249,-0.1506558695463334,-0.18719074696683632,-0.04388026106964929,-0.04279223449752917,-0.04135733360456809,-0.0470350142974103
-0.09347816192055398,-0.12537595628095882,-0.16104102062628894,-0.1869838380442586,-0.05009550009434703,-0.04948258860015727,-0.04834302642445478,-0.04556083100506494
-0.0960872297139267,-0.1296992758870117,-0.1670734334174146,-0.1926801457014876,-0.055333806951460084,-0.0604756359884863,-0.053156190145920115,-0.0588738243235761
-0.09402273647771825,-0.1548311102704944,-0.16841904928996101,-0.20433279035328727,-0.0651922139556038,-0.0616551888704845,-0.07054184834907504,-0.07964682033646621
-0.08713178672967498,-0.13226749006769498,-0.16818786942209094,-0.1930675232456612,-0.06532797589954831,-0.06101835068876527,-0.09154545390535153,-0.05647340105845917
-0.0955140541502834,-0.118848050279059,-0.1689704630092512,-0.19378460273788484,-0.05977389026383324,-0.056840771592871826,-0.07150745203082788,-0.03591953655854753
-0.09642185349159134,-0.1335202199268594,-0.16534388555064233,-0.18560471015671248,-0.06568559035552314,-0.06478748642446033,-0.07274798934422476,-0.042408266560146554
-0.09125207287137398,-0.15453276393965437,-0.16737051648253012,-0.19706533355870298,-0.06141093854609311,-0.06540892053586739,-0.0701621382308766,-0.0641183421126126
-0.09845627172331865,-0.1442906608346868,-0.17355391169600612,-0.19437907511308153,-0.061755419097214374,-0.07430830464325074,-0.07635385880058049,-0.07405094281616136
-0.09224765588091845,-0.13443373294326807,-0.16941227684065163,-0.19582766063942508,-0.060849931281777306,-0.05435921793254411,-0.07544754249162072,-0.049667155451623375
-0.09336992914432098,-0.1337129039946836,-0.17048583818458704,-0.1892173778223263,-0.05557259808968457,-0.06431481658558277,-0.06363020587621025,-0.05862936505655624
-0.09821953557346055,-0.14703482245842547,-0.17178717272025407,-0.2001358267214303,-0.05420279235065329,-0.0614751610515863,-0.0686930996759956,-0.060212934052699556
-0.10004776926796773,-0.15504459266771525,-0.17943181673201178,-0.20574915377564595,-0.0581904632716867,-0.06013341181639881,-0.07056002078873354,-0.07424524415825201
-0.09886336975611683,-0.15170861090356016,-0.18084690648634397,-0.2061615770422724,-0.06315912841861675,-0.07031292376796032,-0.08497735762540506,-0.06915008190896643
-0.09405697747069111,-0.1375387166039975,-0.16663937390213532,-0.20201021646422795,-0.06313840749053469,-0.06354644105676824,-0.06888967327926092,-0.0547557793907034
-0.09748699112262586,-0.14555896877481328,-0.16714766929760874,-0.20001473328395208,-0.06090218595651769,-0.06733680025389659,-0.07444187125780558,-0.04627777927684423
-0.10411397836151799,-0.14711347550790746,-0.17946183415475855,-0.20898934393477572,-0.0566628353919398,-0.06245063861647884,-0.0838903928439677,-0.05661821050608486
-0.1044997213413706,-0.15939605941045137,-0.18938392222001035,-0.2152571727140632,-0.06960595599042234,-0.07863818316121376,-0.08237030140375871,-0.06444507854004786
-0.08903631795929494,-0.146825719789852,-0.18308857764630862,-0.2060332980704299,-0.0702857618809111,-0.07577832886587549,-0.07734546653692478,-0.060635760615422064
-0.10153585502859952,-0.13918643992554883,-0.17322499339909153,-0.20952370381071356,-0.05990783784295913,-0.06881363382525844,-0.07932212868055027,-0.04846291890757424
-0.09651134215823295,-0.14935211045072838,-0.17663005800750228,-0.2204428430274491,-0.06583585044290327,-0.07198911801240837,-0.0723705668586586,-0.04252987933272081
-0.10169711545789059,-0.14723253474562087,-0.18531575030779449,-0.22792698166280875,-0.06652475078402538,-0.07660997093961827,-0.08939002924179491,-0.059935403810468225
-0.11388933840259462,-0.15031268543811152,-0.1956553099526045,-0.2319546308112487,-0.08603308988047408,-0.09328829224366007,-0.1137755734714399,-0.054158370024074726
-0.1053773242357654,-0.13806314284282134,-0.18835149003743545,-0.21274704954485346,-0.0713767280393534,-0.07292103265157071,-0.1142965551677428,-0.04347230518115983
-0.10651961986838498,-0.12968165446729493,-0.18588798189371095,-0.22139323722769447,-0.06933967174390984,-0.07584434136709976,-0.09098656337123444,-0.022109881458161135
-0.11143407209511659,-0.13776282346345728,-0.18054755993838084,-0.22111205889371724,-0.07255796161897274,-0.08477471996254177,-0.09851209386860814,-0.035476432807524716
-0.10995222464418862,-0.14214783398847608,-0.18904828536209808,-0.22511929232022088,-0.07048602883949405,-0.08627750318758862,-0.10178434574159213,-0.05671190268001328
-0.10760560844775645,-0.16275027827143246,-0.1946026453888805,-0.23380369302370616,-0.07991976428723635,-0.08465391080695746,-0.09886537039629628,-0.0813883356698798
-0.09918799155935601,-0.15201110128493792,-0.18263957092794167,-0.20884281985670275,-0.06811109588937332,-0.07482894229269749,-0.08876741505969661,-0.07567846753181076
-0.10397653603507695,-0.1527704056030613,-0.18585645297587378,-0.2160574390753421,-0.0642606254766131,-0.0729864545075216,-0.08520728966547766,-0.06919297081226723
-0.11704381458556258,-0.15602111061292503,-0.18854125666883997,-0.22552696222118046,-0.08200690544055024,-0.07476445504281369,-0.09318543484973281,-0.07779071299285202
-0.11244211216083881,-0.15805761984117167,-0.19564450677072825,-0.2251032610142558,-0.07686343448030353,-0.08741744539338434,-0.09153145152272134,-0.09650606729727207
-0.11097249972343319,-0.17170542347925077,-0.19168017935249915,-0.2215857211287049,-0.06589700938574038,-0.08566838526193574,-0.09407014635101094,-0.0719856987206849
-0.11228702245062648,-0.15130694749616444,-0.1845195474633185,-0.2204883998665054,-0.07702382826229173,-0.08115023757487785,-0.1017283279173302,-0.05404605840026293
-0.10882698701051147,-0.15465591235345622,-0.190169097039142,-0.2233010052021571,-0.07127286389908817,-0.08563315925566484,-0.10936929304768785,-0.05574856472495866
-0.1187449787779668,-0.15411884860380062,-0.19026132003486057,-0.22997204190407958,-0.0759120814429473,-0.09104838138106842,-0.10741064498401777,-0.058206535293930085
-0.12038207507177896,-0.1710898225403694,-0.20183028790548665,-0.24182569014355654,-0.07512918073905017,-0.09095582793366118,-0.09202625057183429,-0.08919403069654587
-0.09919084573229914,-0.15677205215928394,-0.186559243024999,-0.21723588477504066,-0.06232313261135878,-0.0769056219430679,-0.10129475810853009,-0.07364271329858062
-0.10474267526545594,-0.14651212300970948,-0.18822429962990606,-0.22087168931705978,-0.07247148563392904,-0.0831649091707657,-0.08523157322552925,-0.0755920201672732
-0.11386027692087695,-0.14726128116256187,-0.18566633064861848,-0.21909549013733737,-0.07081698077281395,-0.0876920515262975,-0.08782279158956352,-0.06759614044796362
-0.11155940876346492,-0.16823515536237454,-0.19385637962276547,-0.2187830227554,-0.08549944239265132,-0.09379443250709979,-0.0996154826500148,-0.07656314856374286
-0.10787853336470453,-0.1697951748157537,-0.20134063703383565,-0.22285064473777977,-0.07760662063495614,-0.09181313557556312,-0.11350294274772516,-0.09752852800072453
-0.10935777914314256,-0.15032120672972082,-0.1950296596395996,-0.22796115675145132,-0.07443370436358003,-0.09362100807632137,-0.11149540954759819,-0.052135416092565647
-0.11276612760606274,-0.1576080802899514,-0.1903975862293793,-0.22301926682601075,-0.07821275512473765,-0.09231698666925044,-0.1173186968978409,-0.046851857627673396
-0.11073238210028044,-0.160454649309004,-0.19903149972472348,-0.2258909435641292,-0.08361083712938738,-0.09518124072342478,-0.1148309453849254,-0.0525252581675264
-0.11390572783577643,-0.1591027078200326,-0.20383467364974045,-0.225708584968705,-0.07178558611932316,-0.09830019406909919,-0.11768024609204665,-0.08277920880805638
-0.10855798144442491,-0.15511701906338496,-0.198071436525801,-0.22707406275507513,-0.07707524709642816,-0.09309385056542335,-0.10250893045596536,-0.0720871675326983
-0.11113797258630735,-0.15063436253807197,-0.1914948065084618,-0.22094265834743831,-0.07768765278509572,-0.08699723787944906,-0.10296839697005312,-0.06878693677856446
-0.10455900876945333,-0.1717017607131105,-0.19609341806271238,-0.22749448212603748,-0.07238897024779102,-0.0881319941198655,-0.10679477850187422,-0.07069596338070966
-0.11210742470599029,-0.17236433876087398,-0.20434143348638892,-0.23342368008865558,-0.08285745657842179,-0.0912387926496885,-0.08956899121444005,-0.09058417864916826
-0.12365825745832933,-0.19091358909004547,-0.21034078880639906,-0.23173009583561407,-0.0787809855124705,-0.097188196745926,-0.11591797382929814,-0.09814149094391286
-0.10830899539283706,-0.16828467658361107,-0.19503750988287788,-0.219966937224386,-0.07905493319108778,-0.09150127706094281,-0.09053755714349775,-0.07265865768335479
-0.11267599948666276,-0.17093089522661514,-0.1971278671310481,-0.23146861409469077,-0.07021680739317514,-0.09260762924153676,-0.10552400747053119,-0.0713241138679789
-0.10968853274901859,-0.17344013173187994,-0.20575723982442345,-0.2295096699755989,-0.08476802987607224,-0.08507015161490278,-0.10731501611499905,-0.07484161335931033
-0.12083810238904673,-0.18451767006512307,-0.20485302265128355,-0.23485876028554648,-0.08234405792352757,-0.09300561908794086,-0.09948062726100172,-0.08458300974589393
-0.11507342573594105,-0.183491397481203,-0.2123715640889951,-0.2417318785587179,-0.08828385448904472,-0.11021356238816679,-0.12120906848069214,-0.09179055131454665
-0.1110501437410487,-0.16253894754318884,-0.1950468807221654,-0.23068668317176405,-0.07246871708917635,-0.08952037442933872,-0.1072468482604771,-0.06679267161364257
-0.11504944038878098,-0.17060276210975872,-0.19852707623437937,-0.23418291807176536,-0.0783331932051215,-0.09107241865134023,-0.09633461655656382,-0.08471736320033108
-0.11260575499430542,-0.1751256418367198,-0.20610529003734349,-0.23841635244184103,-0.08324238351541023,-0.09816222812573613,-0.09774226746179325,-0.08363272306671933
-0.11614203207547869,-0.17908064537668447,-0.21123511997212896,-0.23712755419542858,-0.09185837611233351,-0.10914946586661876,-0.1086669491773938,-0.09272627581504803
-0.12922904931120485,-0.1772970827280436,-0.21842515064773133,-0.2476398207814393,-0.09270936109550858,-0.10818619546411345,-0.12307708681078058,-0.10215951132558415
-0.11560297869430758,-0.1686760391843369,-0.20333396632013762,-0.23498106610921946,-0.08986895253500363,-0.0973440592629444,-0.12014197628949973,-0.06957048226308125
-0.1122450643194092,-0.17995288934895834,-0.20582012979716838,-0.24297529160716122,-0.08819620765725594,-0.09523771076982375,-0.11415959469990146,-0.0717086033445573
-0.11298583695197316,-0.17059742680069523,-0.21180438576275554,-0.24031430561318037,-0.08280212677527096,-0.10372620068071577,-0.12119745349060655,-0.07192200235366863
-0.12329240002255756,-0.1809001638068646,-0.2160794846411602,-0.24488615472643543,-0.08704147490792292,-0.11741668054965966,-0.11901704660940464,-0.08768117297454736
-0.12781988051708792,-0.17855211096173962,-0.22119066843715054,-0.2570403550945028,-0.09662885393735325,-0.11955408950931525,-0.12605804587874572,-0.10659660185122313
-0.12144564936214977,-0.16959384172385625,-0.2152684787726002,-0.24690948196477103,-0.08218906624943133,-0.10521457321848658,-0.13093306421854797,-0.0699391910969031
-0.1260770556982667,-0.17547001689580236,-0.21657201725688813,-0.25052495255428125,-0.09282328543006732,-0.11527955309158591,-0.13253087156527607,-0.08615469281902609
-0.12526791070573395,-0.17878918708807437,-0.21618488594390556,-0.26102147597667325,-0.08972661461623771,-0.11814458016856334,-0.12911082512798594,-0.0825064670992119
-0.12752819348806319,-0.17332803024864854,-0.22795700951076875,-0.2644638899272156,-0.1065771229022863,-0.13066448051385363,-0.13829540436924342,-0.08738263033210687
-0.12091038410354714,-0.18115037879769608,-0.2322262423665932,-0.26772513193657577,-0.09537223072004317,-0.13509378749405462,-0.1523067213761275,-0.09510576949970397
-0.1130845027876349,-0.18892118819861986,-0.21739260179321881,-0.25095882197063224,-0.09690188554702371,-0.11615595636159017,-0.13184280437894835,-0.043550407027595245
-0.1281257507513381,-0.20376678292573358,-0.2205359994647143,-0.23924423883684728,-0.09257209964187824,-0.11946987001062893,-0.15031443716791706,-0.05334235757530607
-0.11712299626949502,-0.20606052922983056,-0.22057885935433924,-0.2500862290398206,-0.09868013367672067,-0.12028994911038841,-0.14507395178815743,-0.06079563417341486
-0.12266757580358123,-0.19892716477536018,-0.22523812716625347,-0.2545868362249435,-0.10100451904305303,-0.1286653049328522,-0.16317327871002849,-0.06665466066781449
-0.11475699033616633,-0.20357425644110957,-0.22576570596195308,-0.24128306978867353,-0.09834000245377736,-0.12202736255066006,-0.1552442309985239,-0.07180421559714271
-0.11326303647295967,-0.19184620243847167,-0.21405279337663133,-0.2360004015839391,-0.09444232352679838,-0.12763513513968228,-0.14508594949399428,-0.05049141111122282
-0.11688243232355564,-0.19195887535489264,-0.2183823339742254,-0.23836536185581872,-0.08587505589443087,-0.12752892895034812,-0.15079257489936373,-0.04193873766105322
-0.11929190119443078,-0.1964519605961281,-0.22200112190822202,-0.25512373165288954,-0.1022234088053573,-0.11768478848502671,-0.1439034944896398,-0.060953733426409126
-0.12286323295030888,-0.20721184108025448,-0.22497536242710953,-0.2472971028959874,-0.10426557941759682,-0.13436676108370593,-0.159381907358415,-0.0686298624183692
-0.11646702559909841,-0.21062413905916075,-0.2145956760488818,-0.23790284916256033,-0.10410882960180906,-0.1292821953763444,-0.15722590748463167,-0.05543102717782883
-0.1128034189844639,-0.19810955237829506,-0.21290586514626156,-0.24565841340874933,-0.09917235679399648,-0.12218231842433144,-0.15008077354956834,-0.05088324075660557
-0.11463724295208466,-0.1846825957069714,-0.20832399116920058,-0.23968887678266756,-0.09279169947411205,-0.12607250971270398,-0.1416522523089637,-0.04853556019457817
-0.11949434973079386,-0.19850524663515678,-0.21980841707865598,-0.24494512764154847,-0.0952522127168493,-0.12826268391463336,-0.1528356846458258,-0.06511909430492215
-0.12249580345692897,-0.2191855330791618,-0.2283908603745787,-0.25364477122949014,-0.102521010576623,-0.14018520248850155,-0.16730866894915913,-0.0698393943258497
-0.09898971930734332,-0.18783101175290898,-0.2123958558659233,-0.2444272034788215,-0.09310437232343277,-0.128983690888663,-0.15879365918230878,-0.04093781221571737
-0.10823826187424315,-0.2012296076460929,-0.2097291028157945,-0.23646301333582395,-0.10251899180827707,-0.1313230200473309,-0.15409668760160009,-0.025322113419707786
-0.1055861209906022,-0.21366034097087808,-0.21047596422361298,-0.2343767197826233,-0.10177875849114937,-0.13633599235392113,-0.15751270981643473,-0.037400786866109925
