0.07407288597590672,0.04753669643659897,0.16440863841313735,0.18107698541782025,0.10596210101765141,0.19067850346254686,0.19564217357274782,-0.020094124188991994
0.06407101786811593,0.08927742629400502,0.15049319684701418,0.18688848140807288,0.11379585680951579,0.18263227946402757,0.20154404237180587,0.053095401001057495
0.012153675634606056,0.03739676856905122,0.10768437419917049,0.13419212027519745,0.060738217866070345,0.1520727269245417,0.15779277190723176,-0.04465762477416617
-0.01968860751283724,-0.008217610392198862,0.033459521624973294,0.05466526534143698,-0.009014082710350282,0.07909312079370663,0.05481169055848875,-0.13363767521007977
0.025247346672815377,-0.027402155879625335,0.08153871440764378,0.14752323103585127,0.025323086218068436,0.08513149119500865,0.09297476724063765,-0.15762745913040221
0.05751894370135632,0.019743577219543656,0.1448802539548783,0.15489614300420063,0.07208630906625257,0.16615842386421503,0.151230514207171,-0.1223736474749957
0.0420580354260558,0.03493424731232853,0.11515586174199065,0.14114800459358465,0.05642971994526625,0.1323551554336812,0.1428407727594427,-0.08640238234712559
-0.007248095019630984,-0.005916113105430848,0.0742811906461826,0.09985221063227442,0.04712549754790155,0.12482602049535847,0.11943391472285028,-0.05612555864456009
-0.02965437156548605,-0.0075108135237947704,0.024245496243294046,0.036519980091073566,-5.740086516392991E-4,0.0521488283295206,0.06323777908938849,-0.08212449115127174
0.07194374653658736,0.04995135686154933,0.11557458710188448,0.17081196474166702,0.08300264712152478,0.16542522111574545,0.17511388931296074,-0.044259508547579055
0.061353209129250914,0.0845761541624011,0.14101496183303266,0.13490064523103548,0.10319980068669647,0.17249248364986472,0.15140755132494643,-3.816187319122325E-4
0.02002064145620836,0.054509882806849624,0.11360662158475959,0.11578772444584545,0.04547738775078002,0.14414659324246895,0.15925616544049143,-0.011746922628829167
-0.029373392263150326,-0.03951920946343673,0.03312449716911417,0.03740281443565593,0.012384088840845273,0.045078667796365046,0.0635039893448086,-0.13241357736070505
-0.0425515127265421,-0.07261311440945006,0.006989486113834098,0.0017787974383911094,-0.03806888279210022,0.01680556264083027,-5.229247700174127E-4,-0.2261058373091958
0.06385037323475819,0.01448232588615547,0.13194231029942946,0.16482579416148765,0.03190177463446112,0.11435361513390602,0.13818381939415691,-0.10782602322362603
0.05131789062783773,0.046323800742736156,0.14220909061193215,0.15624164030541082,0.08450111598866855,0.1362951803835701,0.1495013761453386,-0.08124554694783
0.021507380219016978,0.015191562137749148,0.09646219933854062,0.12312037289380894,0.050849425806896865,0.1294325633370946,0.12029039175895415,-0.061350096229798444
-0.027725437177867504,-0.031295977645248205,0.04541157694904724,0.06625902773821192,0.016819540612494747,0.08775363750268832,0.06912418614155928,-0.03590044989188762
-0.047343663239507824,-0.004265115695902358,0.017735406905607314,0.006704759775214944,0.0024321281548355033,0.0575960412385694,0.03979475587801929,-0.019512989853518747
0.04795249647586959,0.07906047426492271,0.12900806557491526,0.16774220050419203,0.09351780011368904,0.15733797506102534,0.1709151181553221,0.026389351753102388
0.030814744240122458,0.050913581435114506,0.09595047024333776,0.1358858402046871,0.10117947223623691,0.14991220373259032,0.13951817272216793,0.037237973969121645
0.018395698007260607,-0.030153649221844277,0.09739631453680384,0.10607870383424443,0.05798069384129303,0.07871471384835632,0.10267650016475671,-0.07332710726620932
-0.0338708377864268,-0.023473242445503466,0.01582942673602372,0.008643150696408072,-0.029440580925231025,0.04405378483260857,0.030624627763261875,-0.1078112816966132
-0.08034587530576688,0.00935259129529351,-0.006477974793509879,-0.010064279992227696,-0.06631830058853562,-0.019981229047392628,-0.024006469932810637,-0.12706838262244527
0.020511689816756936,0.037445858368317875,0.07730693138903867,0.1133735968635449,0.0445015827945197,0.08989117510825641,0.08331983958604441,-0.10283647689619299
5.737312879386337E-4,-0.00419039271833094,0.05370372318574532,0.09059768368111204,7.727284642477716E-4,0.09818902701952398,0.09079812140873059,-0.0936695450906264
-0.011042411563202318,-0.003690321928547556,0.03470254675760366,0.058596643082379586,0.02527994833731149,0.06703777945314161,0.0942787376434519,-0.08277105443046857
-0.07448284576859694,0.03882272347309326,-0.017746476962478698,-0.04273174349350316,-0.0037446672626414664,0.011257334393083518,0.02890915289614946,-0.004896593920732191
-0.06436995162940111,-0.023903524296492635,0.0025367193515493693,-0.03179836358471219,-0.032758009308810974,0.012227506740837179,0.01300324027754793,-0.036995442424740385
0.024413578871112014,0.03696735568506236,0.0834899050386171,0.07467021493916623,0.06111922288208509,0.10895452919194255,0.10733200442694603,-0.006999847493027177
-0.01201936736153191,-0.01808084635468456,0.026351664194496638,0.04831695884879786,0.0323650200937491,0.07897732441194101,0.07473073794948187,-0.050352114344850075
-0.04997496895933289,-0.04812761609196718,-0.008329256044720417,-3.50699582529261E-4,-0.028551626294804674,0.01797072223698124,0.04159408301746666,-0.0727485521381921
-0.10686640469227585,-0.04074817674978537,-0.067560900807083,-0.08748647590889182,-0.0713300592833631,-0.0450157560167034,-0.03934520549034047,-0.1214107113739113
-0.09099927270184817,-0.035494327102733376,-0.045762241025366204,-0.04286343923640916,-0.07972833263760401,-0.038052801731160636,-0.061727643278864465,-0.14333988047010876
0.0026390546517883226,-0.04717900787996079,0.03924291371284279,0.046167315783304505,-0.011572567731442412,0.0451038959381457,0.06278995090709683,-0.20487074133700944
-0.02110621892749117,-0.06866616000630826,0.021185860812263733,0.017876674746535984,-0.058570572148235855,0.020122611362880218,-0.006977447593288033,-0.2473911054767171
-0.05324874766406257,-0.11267530685446696,-0.041355613284479384,-0.042396952224830746,-0.09523571962443104,-0.025098764743652392,-0.042648850093624395,-0.31060840698588965
-0.10916414245469266,-0.022630636164483447,-0.07579042447668449,-0.08079578424879072,-0.0929608141490269,-0.05898606858946809,-0.04859494835667336,-0.19068723066806015
-0.06651648073207826,-0.07810222477429672,-0.05914720021298871,-0.07319039137858534,-0.06323288033272224,-0.035291520410274634,-0.048980458755632464,-0.1065660955310282
-0.015492576303900463,-0.13770190051707973,0.0027489914074051896,0.007581516184623325,0.007706457931465903,0.06118650209159018,0.05924208434443806,-0.12440728343628117
-0.03991374124324596,-0.08427406716582526,-0.034551832323004746,-0.04017940189388313,0.003889788435925337,0.027006085075525318,0.015627468715047752,-0.15531289939984688
-0.0720772873726852,-0.061417831477441544,-0.0528402774096475,-0.0775174045757386,-0.02703688463112787,0.013504748745235938,-0.014576080760949614,-0.10410106134024702
-0.16154937906780503,-0.10525487281136592,-0.11274241462770396,-0.142170197437705,-0.10414714266577706,-0.09388186796452162,-0.08822080423824802,-0.14093801333369121
-0.09748186378917942,-0.09100396825332159,-0.0647723858873018,-0.09097702319794715,-0.07950363147411353,-0.05974369451154685,-0.06442873959042221,-0.18658836965548958
-0.05386489804925838,-0.09273754431853129,-0.05738288019247123,-0.04238180054179922,-0.03152569658863137,-0.007024435035965022,0.0014823064068753347,-0.16596809667029092
-0.062293005942377744,-0.10138147407390673,-0.05916565742327456,-0.07493790018749452,-0.04520590665226326,0.011903431423482632,-0.007115721680617133,-0.19004717082644584
-0.10458840744569464,-0.11348845877746874,-0.10295773491980106,-0.12230588165739283,-0.07745861378881407,-0.02158585436871829,-0.023697176437074193,-0.15306440751893458
-0.1524559216316609,-0.175880239971309,-0.1704597828321111,-0.2045090739862602,-0.11229212634116624,-0.10550407678993923,-0.09212768653276517,-0.11089883242079689
-0.04586349322885063,-0.1394750663682777,-0.05250904682841087,-0.053556346315061544,0.0036431209256098853,0.01544422892085969,0.032386885629484906,-0.12544331763745478
-0.06794329479689591,-0.04785623603126478,-0.06610473501348871,-0.0578806912828674,-0.023019040292119593,0.021134978833005035,0.004158418668003925,-0.07191799979856017
-0.06727318333472143,-0.11508454469720066,-0.07962016532065627,-0.11990813605977887,-0.037847471292473796,-0.03623905528958762,-0.017853297133321393,-0.08997153059573756
-0.13385780836743577,-0.09746386278453108,-0.12754317891247602,-0.17989758853279433,-0.11668023827121878,-0.07628741405066011,-0.0810016788539756,-0.15550427918447987
-0.06163742555861522,-0.0017735526313524105,-0.04895387645595628,-0.04603677412712072,-0.05884536940282486,-0.046573039061501176,-0.040589395693453,-0.2421558484703277
-0.022399521815674613,0.03510618458467884,-0.025801021968396124,-0.043292965547963976,-0.06409751705301865,-0.018272177963957404,-0.016415168121896986,-0.28438272410846976
-0.027092256906674085,0.07619882548118571,-0.04289219318674756,-0.0674701061487381,-0.08212074118878256,-0.038885024369743906,-0.03816428326840263,-0.2847161287692201
-0.09569086147656923,0.024226943595547976,-0.081685245802246,-0.11794458264416521,-0.11862039762536071,-0.07199459395489308,-0.09819148000816039,-0.31267058088857397
-0.07551891353869399,-0.03753669899533886,-0.07857200249587187,-0.06529693849132992,-0.12133825454771477,-0.05605981360539612,-0.09231417164296937,-0.25283128227279494
-0.03518703512934323,-0.10039226202641782,-0.04548997996487061,-0.04861752826857509,-0.02104686580081499,0.04406277147780499,0.008437065754484599,-0.15740369461107892
-0.06360938173486551,-0.17581762492654487,-0.07252007332438191,-0.06875516315716988,-0.003573092114575169,0.060387896520478025,0.05630054074241665,-0.020773928150296488
-0.10280219179340228,-0.20985789715533892,-0.09628498943939548,-0.12067767033750826,0.005496525296724525,0.023693832413462332,0.015505315436740481,0.02087830200601988
-0.08527828685618907,-0.17892997177390055,-0.11875765423897518,-0.12887590976117985,-0.005025114335377981,0.03177942787806415,-0.009518724652017432,0.01715641362762122
-0.03399826889506474,-0.1560978040763426,-0.025583573294526818,-0.03817199843750718,0.040467576337222665,0.09616490939451902,0.07728722655547811,-0.00507168680488762
-0.04254917081982052,-0.11716464845837846,-0.05548140827373288,-0.0709993263230134,-0.00483094606107969,0.060504318786577325,0.035771267185232374,-0.11274615010249105
-0.05452221362206045,-0.07096564738847919,-0.07066977504831543,-0.07854077163942082,-0.038674291882385504,0.004068873615755342,0.016958949041650618,-0.15934496147184327
-0.08317708529621146,-0.10581284899726773,-0.10631113857067048,-0.13914571069249007,-0.08497310625489451,-0.044308186432091196,-0.06737979219653689,-0.23270986687017198
-0.003863254188034726,-0.05604510130311991,-0.007473240520234798,0.001972085979678245,-0.012849661069538868,0.04762400703731904,0.020708593149526403,-0.19853004162679358
-0.04092144925462603,-0.06104431927193411,-0.0392253470506685,-0.060235400551781684,-0.0046815022121255295,0.04854324798110536,0.0344736795002026,-0.16768620543558263
-0.06532014323519333,-0.07642512609413872,-0.06198114014814881,-0.10999920612319504,-0.02763129237715579,0.013851221084354319,0.004654624730598579,-0.14388677762111166
-0.11114353378995427,-0.07271598244300621,-0.1256516158903303,-0.16367707766184772,-0.04521970763092933,-0.01570966119825314,-0.009463386224818958,-0.03188314212197313
-0.03275287070757411,-0.0883327151443541,-0.022697833843691607,-0.031104804574513385,0.024422380975204033,0.09013088267321648,0.09932643979942607,-0.026381308740835992
-0.025848715648248546,-0.08711111135366388,-0.02745899140567166,-0.0274845733384681,0.0670443614979741,0.09831841806634399,0.10454814340924971,-0.03308457336526648
-0.035947629699761514,-0.10054221702017971,-0.040517738753232564,-0.0365092160287886,0.04539692483039746,0.09486099745101752,0.12297415330344223,0.00110978969402928
-0.07975772058729814,-0.10244893843492331,-0.07455664563107332,-0.11046499046597752,-0.003505824793508218,0.05126967515799943,0.046365317528488124,0.021159148342561274
-0.06944722578245324,-0.11841040267983391,-0.0692806221946404,-0.07357452082083889,0.006913715908879666,0.05769258422655609,0.04210623420443433,-0.014058305060040235
5.875100687557504E-4,-0.04672512336481867,-0.04260296661868813,-0.028049681102149577,0.06553870974596346,0.10019386503739246,0.12453922159147539,-0.034130385426594835
-0.0402210715734006,-0.10189387387196172,-0.055011968739871644,-0.060022051174623045,0.038814833109630964,0.10533025592011533,0.09689603428247115,-0.04008304244620894
-0.06916291067288567,-0.12120623454160759,-0.07610389552019393,-0.07128221600314127,0.005466997646672259,0.05953380660490628,0.07732683726660693,-0.03726997059039679
-0.1162642092244162,-0.14616642722749204,-0.14844306074577776,-0.13012661963421623,-0.012326310958558033,0.021993819062945383,0.03418280849716458,0.00877155442755076
-0.07119546184926749,-0.15427696242869587,-0.10581006217594513,-0.09215684624653758,0.00430343637790747,0.06066950231947254,0.0728724916932164,-0.021670741902210338
-0.043283660286806885,-0.18321932841828917,-0.07138357643723116,-0.07158560311235065,0.03871467714181457,0.11201382662697561,0.11141066712219444,-0.020132903938959845
-0.07723714183656442,-0.13682883447837157,-0.07491204832682401,-0.09368183174131194,0.01522278183340184,0.08076075546514482,0.08105882282727259,-0.0266427795894597
-0.10283146164192435,-0.15773711607287905,-0.10780923025273267,-0.11043860322183348,-0.005292250539674501,0.01749851887255418,0.012676598528934808,-0.11876460405209878
-0.1633541380956396,-0.2108275815419021,-0.17502281641237116,-0.17848136112554908,-0.07483222746981756,-0.06390419707712873,-0.045043482729421366,-0.16173441811554382
-0.0843385320434279,-0.20522741820378237,-0.09612406822457292,-0.08964899455553399,-0.01862476863969337,0.02750264561530411,0.04121941060429748,-0.1647157875099725
-0.09097976470261823,-0.16820312604882898,-0.1101051200731073,-0.0986562069904361,-0.03371247488254812,0.01640956745957851,0.014249754042532148,-0.14773847687472053
-0.11604004649937351,-0.1516557426713002,-0.12769408555737,-0.14445739938703622,-0.044126145494659395,0.012874805824485627,-0.0014499952534174105,-0.18956405123780265
-0.16358777376382147,-0.2170792325339314,-0.18920247656213734,-0.20395342324335036,-0.09017352416922476,-0.05228493385530664,-0.036403618384001614,-0.19634143428073086
-0.1625646394049122,-0.1601235842097021,-0.16921622747156764,-0.19974370566133065,-0.089855281661769,-0.07096685286196107,-0.06914086257249254,-0.15914497465824218
-0.0854166547317874,-0.1388569083474071,-0.0965134024174191,-0.12394693781228512,0.0032999975452723215,0.02950647410607724,0.059926101882611264,-0.1603209079996147
-0.10546888165783554,-0.1662080795492464,-0.12516192469799609,-0.13917771965661285,-0.02725276623560726,-0.004404890778554931,0.015835592059088025,-0.19199276559845768
-0.12886073664496595,-0.19227018014854724,-0.15302992047156858,-0.16018481036492027,-0.07195382652214403,-0.034402263272681845,-0.052569363600316624,-0.24249375751825078
-0.18049139840520784,-0.1688827919067534,-0.2104088864500806,-0.2390699107179773,-0.12622507593460655,-0.09057716590861674,-0.09873860706815456,-0.22687048413927605
-0.1481620220438318,-0.19218051285565896,-0.1726541301733122,-0.18934615029962135,-0.08295150016530163,-0.05190641726873354,-0.04088419285184861,-0.2091629042512495
-0.10147520475077904,-0.1769848709740805,-0.15707754372732463,-0.15072646653562843,-0.03030483909843134,-0.0035622579279160453,0.002136813822586367,-0.1683990546213589
-0.13529662707014503,-0.19987279081551654,-0.14956369932169566,-0.16634116447178832,-0.046195195339825225,-0.006948419866104421,-0.01260536272313133,-0.20131346750371942
-0.15693403114027396,-0.1903610536901943,-0.21224863391121668,-0.1992839991568288,-0.08782914231085552,-0.06921321603054019,-0.06384385583170549,-0.23240137868656108
-0.2077754094336991,-0.2585793412392415,-0.24331135715845112,-0.2549671545691741,-0.11573719885563118,-0.11053370805228036,-0.11663923152675909,-0.2538862674565889
-0.13290704580876986,-0.21198029040269695,-0.14219434186806332,-0.14645135936685974,-0.05471764798926513,-0.032384656163655566,-0.00949279368281688,-0.2133662360681479
-0.14682967450569973,-0.17490995103371895,-0.1906066686078901,-0.19132086665501644,-0.0834298809006693,-0.04519190904100537,-0.06535136091358691,-0.29367505573701386
-0.1627064259362555,-0.2639880509540309,-0.20939933942270425,-0.21737995136566415,-0.1307717750525877,-0.09437250344350306,-0.09213275834386021,-0.3465207336233873
-0.2230267279707479,-0.2454739110473736,-0.2614148897552268,-0.28594628716195775,-0.19201377058083363,-0.1424600143557503,-0.1680901722451987,-0.3939916780158882
-0.1999828934044846,-0.24303683503794843,-0.22621952314020924,-0.24613606805937482,-0.14509657738984771,-0.11154912382016514,-0.12058586707874198,-0.36425807744180505
-0.1481010678153884,-0.23905772827872207,-0.19003447940778256,-0.19338770583567477,-0.0801397966557701,-0.059862154045561625,-0.0626993560552995,-0.3112533351626938
-0.17550998603579746,-0.2071643308837596,-0.21406782921760154,-0.19934861522366534,-0.09638379426793939,-0.036716337245225626,-0.07930365824679005,-0.2862573705173301
-0.20513654708907209,-0.2965110634704291,-0.25242191089646165,-0.27583029205509924,-0.13674705539465912,-0.0838803928738313,-0.12248784683691495,-0.3096945916197824
-0.2579958756545609,-0.28576896450498435,-0.3020282106203299,-0.30538606167718607,-0.16672838771685333,-0.1447726026153876,-0.17187333376638111,-0.2829033121467594
-0.17136546332807534,-0.2396179262140743,-0.21601549344161836,-0.19291994859721917,-0.06075155680533282,-0.046433117762693626,-0.073865475091902,-0.29440380947196926
-0.18792546664959509,-0.2642975216025125,-0.21686879033503986,-0.19801746479954394,-0.11214303055730612,-0.10030387536019363,-0.08955305042520799,-0.35646020045705357
-0.2158386888660552,-0.31791727218654964,-0.2692931729444217,-0.2652365034439917,-0.16124419689004174,-0.09465104131392642,-0.10081608495741248,-0.399542844138711
-0.2670063453988139,-0.3880818591982277,-0.31294708948861655,-0.3282075636989544,-0.1970046047877984,-0.18400825742991722,-0.18021720155039817,-0.4454166703385321
-0.22212379692456297,-0.33371382942276534,-0.2996334164081294,-0.28506779342667726,-0.1618351221668035,-0.13406161276820946,-0.15121816690927806,-0.36182822462513053
-0.20952332052582132,-0.360633307100343,-0.24696725541638095,-0.2519897456846376,-0.09751682331518642,-0.06763086893675908,-0.07172754396299422,-0.33061035619706014
-0.2206860001200008,-0.3589964932906509,-0.29823082014896607,-0.2709364710131804,-0.12179514182183854,-0.07868712616623925,-0.09562730187110058,-0.30474939645774296
-0.23444449732336464,-0.33941314452424043,-0.2983605872946478,-0.31236046434155074,-0.11758507551912507,-0.10522329698043953,-0.11350906253890448,-0.2676741255957229
-0.2744261775353108,-0.29973840029669063,-0.3221837417539408,-0.3441186991516767,-0.1581429043758263,-0.1355665052185503,-0.14068587447261216,-0.26815270673533054
-0.21001247987725233,-0.3344133437209106,-0.2541628177816909,-0.2518977111187112,-0.08614986330347815,-0.05750372290277505,-0.0644492602886268,-0.3002531460951798
-0.203567386941607,-0.35949624485944526,-0.27691055312418067,-0.28049683245103124,-0.13818497687028447,-0.10258258674196212,-0.10633998675506347,-0.36433653210782946
-0.25307851108192914,-0.3494111104061555,-0.2960797988351965,-0.3276330215091244,-0.17222718708918802,-0.10450722001039514,-0.15547524443982505,-0.33466113594176755
-0.26908382502344647,-0.29743112741886446,-0.34469802551692597,-0.37484671440284334,-0.21118468749414107,-0.14379500053202407,-0.16080767453979883,-0.2824911812791207
-0.2045314714521613,-0.2707793824120661,-0.2630230437338935,-0.258058371477104,-0.06532737165480175,-0.022608877657099565,-0.059817165525405225,-0.2137605913089617
-0.21559101733196837,-0.2529143048394472,-0.2707109529799698,-0.2644051318417266,-0.06050421159255616,-0.02539525103976285,-0.05218286265815366,-0.14103459405735194
-0.2438289663214599,-0.2901114028356697,-0.2659086779180103,-0.27288423399481576,-0.04797040142078269,-0.02772052177858214,-0.01616577551848226,-0.1427669384162997
-0.2627224754911705,-0.28307000167933816,-0.3141197431820832,-0.3373874629356149,-0.11563928225762313,-0.07737358308982407,-0.086619927517845,-0.14223005256606075
-0.19812505266678915,-0.28229604505499195,-0.2932530871512595,-0.26911736021346483,-0.07807061768141135,-0.06065610456558198,-0.08110746797645825,-0.3270747062751328
-0.2272435684395318,-0.3148043181524568,-0.27731655043473197,-0.27043087149025247,-0.14560142464512416,-0.09584298251466168,-0.12091388085019164,-0.43137365590767335
-0.2333187332438094,-0.4085482180134385,-0.2922094864255586,-0.2968297269081649,-0.1901006930322926,-0.13797744364935355,-0.13269982232316016,-0.5323443894799875
-0.27524956988054633,-0.42208105450595973,-0.32300448792491404,-0.34149187709046097,-0.20006193827763225,-0.18892530183791695,-0.20007320085747268,-0.5353998503842125
-0.258319910910832,-0.37534459661667496,-0.32751234355544384,-0.3101762484109964,-0.19972727812934407,-0.1364640841858386,-0.13802753849599533,-0.4488104961986519
-0.22151067233633046,-0.3485521587597129,-0.2901800927629438,-0.2771111209598816,-0.10630218004973571,-0.05517701953410997,-0.0782778818258804,-0.390779464056599
-0.2357063959885103,-0.3618391122826752,-0.31734269684899713,-0.2997148368841324,-0.1056626628530943,-0.06740693401111826,-0.07043934620329832,-0.29185818762705595
-0.2835304060719063,-0.3828628834105327,-0.34726029845316486,-0.35324517028853464,-0.1314118808920915,-0.08919993150038812,-0.0906419070111683,-0.2602963177787732
-0.29754440423595163,-0.37306254717576015,-0.34734610555817397,-0.362985131468679,-0.14063210326482575,-0.10911847290876678,-0.12872183674805973,-0.25872180632314434
-0.2406493374372628,-0.3557210182046086,-0.284390617451752,-0.2908621508798155,-0.07157743041159857,-0.03647123798088436,-0.05033083736661058,-0.31378182315664704
-0.2609136707797737,-0.36076233730706314,-0.29399816810665075,-0.29799007667766375,-0.11525453410125526,-0.08825866457781599,-0.0966757153604239,-0.40020935372874256
-0.27278435687710106,-0.42101130505062245,-0.347348489185886,-0.35283298138861974,-0.19979253485510445,-0.1328160008574002,-0.14083503489133326,-0.4774549705084027
-0.313793497968759,-0.3930876781011373,-0.3933515144726412,-0.4209208456437666,-0.25467306586336774,-0.222861661762645,-0.21327510061266045,-0.554446379015888
-0.24694804010914537,-0.3731178217367167,-0.31074284788641154,-0.3078340649597918,-0.16877128631873095,-0.1023994708287929,-0.11424988395955658,-0.4616684857190756
-0.2523337941924817,-0.3451705128491952,-0.3022487475496597,-0.31336096271680036,-0.12225170617320352,-0.07592159863414336,-0.08812746706657136,-0.43062583391631337
-0.2836556983651002,-0.38235595776245934,-0.33473349949088543,-0.33929639558932373,-0.12657721164200242,-0.05795306278421267,-0.1002473707883668,-0.352932775737965
-0.2961336688336151,-0.38501222429559256,-0.3366889915937755,-0.38667943620621464,-0.15409607603572292,-0.08842792858870792,-0.13347531918203928,-0.33040595178373494
-0.31581542527277223,-0.4015852605978932,-0.3674467223533976,-0.36936224806416956,-0.15396142540183338,-0.12114337359131629,-0.11477078165003095,-0.3604483123019927
-0.2658781294218857,-0.43053483085137795,-0.3259732444901017,-0.29007497881608785,-0.09706521996576843,-0.05372884226377516,-0.05840170737887991,-0.36707922727686143
-0.28057519932630276,-0.374157601753894,-0.3290677777034526,-0.33008917387765946,-0.15254593929253665,-0.07111725202360787,-0.12321848679876862,-0.5019386945948036
-0.3129745331157083,-0.41123514979886155,-0.3690889685227963,-0.36368660234229766,-0.17864103215256114,-0.13117620707433503,-0.15366062493122434,-0.5058019560325613
-0.34172164969550345,-0.4534353024885919,-0.4146293849838864,-0.43437198211075073,-0.21966002284940275,-0.1873424381405752,-0.1835707378485778,-0.45798617122402213
-0.27942926205459073,-0.4462047379685431,-0.37697035620969427,-0.3779631157877913,-0.1251169939691763,-0.09394411095614053,-0.08335433349445509,-0.40031904191604345
-0.28839437408480606,-0.45349294168951954,-0.37797798742937727,-0.34944288877680707,-0.1299448990160866,-0.10086732733960344,-0.09102717753860508,-0.3755226550573244
-0.30830312058459164,-0.4095873579801417,-0.3659301060915815,-0.3647111932368971,-0.14583322872551735,-0.10230874373729187,-0.098986847783084,-0.39465265935653093
-0.33995790968674455,-0.396440023758356,-0.42112338665379245,-0.4235052705633765,-0.16973381758042316,-0.12249281666169516,-0.13403102456939417,-0.30577715179444565
-0.3339820005780524,-0.3851740094828378,-0.39668610782640495,-0.4045106197903803,-0.15003018578597022,-0.10665140058457129,-0.12888787392404757,-0.3117686797987556
-0.2896321300375097,-0.36558330059950433,-0.33640704653904,-0.35163298848808955,-0.10452599571930404,-0.03543322673385298,-0.055045480549727126,-0.30524352622490863
-0.3119871099038698,-0.3521529778514918,-0.3657867279971823,-0.38125622153388156,-0.11181055568847695,-0.057451055937991234,-0.03365013746582874,-0.2655714351187499
-0.32637561710697754,-0.33997333195946516,-0.38307857055300487,-0.3885133287701297,-0.10983176622709358,-0.10207689541747726,-0.09852352636451271,-0.2806334500734749
-0.357652090459247,-0.3908799607575042,-0.42787565493627944,-0.4549098866055155,-0.19307659814015216,-0.1575338744158412,-0.15858111877706596,-0.34235035420791815
-0.305308198337743,-0.4160975016278658,-0.35920203763283143,-0.3658321466373819,-0.1375256429048474,-0.09293643279754739,-0.07468933675498148,-0.4021338818128736
-0.29883856510858176,-0.41724726503641996,-0.367988434200797,-0.3847465296265044,-0.13683609848140177,-0.09790616133273854,-0.10182252217830598,-0.38531370585546093
-0.31559446906057087,-0.37530415233487857,-0.35877771778778245,-0.38608393949873143,-0.13093938776572556,-0.0936960611937927,-0.08018811607053762,-0.32178448957335715
-0.3421898249995803,-0.3540256831937643,-0.41136441931961354,-0.4363759188485992,-0.16665024018416622,-0.10775464951549288,-0.09718749526806504,-0.28978387799879546
-0.30414102622285466,-0.37577607048693445,-0.37782401740110183,-0.38521317842768377,-0.16455475325539973,-0.09837845075563918,-0.09963890789778879,-0.3584880948373353
-0.2783091753885298,-0.37545946292285814,-0.3599129468809369,-0.36616356838624775,-0.12927965000799607,-0.08707853541363908,-0.10694935285540193,-0.4679515385853615
-0.30872738741104305,-0.38584323057917663,-0.39295283982965235,-0.37598514029991453,-0.17357349724071636,-0.1003401335316324,-0.11331577248849319,-0.4814113029051566
-0.3401586457975504,-0.37519502299399415,-0.41186974038014856,-0.4117579474928642,-0.20110022972228128,-0.1289958143156387,-0.18411411214757012,-0.4891724705192715
-0.3553224994421022,-0.3893297580822403,-0.4281024143928943,-0.4272440578850666,-0.23941484309701114,-0.20607648446190022,-0.19521383631213138,-0.5597790293365283
-0.30427916018199186,-0.3483684615240695,-0.35181631249528783,-0.3512675114573782,-0.18868779890675502,-0.11961917180998631,-0.12726731971769165,-0.6415548221815163
-0.324886844472033,-0.3862208512339043,-0.3500152195867598,-0.3689645190946862,-0.2254047468453341,-0.1312762772277989,-0.13288316637203165,-0.5839675758706979
-0.3149579329673171,-0.34816922393694694,-0.39825997631853055,-0.37678937322402456,-0.18163129761548805,-0.11999004410153745,-0.13976808990353823,-0.4769572314469739
-0.35535456204903115,-0.3769332393721873,-0.4267619037550019,-0.4486195471623498,-0.1764242795283595,-0.16423692430384057,-0.14938784435862762,-0.4265060403913814
-0.3042487676716634,-0.38200083030626397,-0.37485291967559825,-0.35677372562046616,-0.11736396884709782,-0.0770011028999691,-0.08112168311593343,-0.35192849105778434
-0.30841507100551036,-0.4093919137673198,-0.3661690210846355,-0.37472968270581675,-0.12298417500916316,-0.05932906455385586,-0.06659824704427426,-0.3962399562837843
-0.34305848581040044,-0.3644519055931809,-0.38476311871076446,-0.38433341305875857,-0.11166082601159583,-0.07431675909332236,-0.06336454854218167,-0.34094105312491335
-0.35934486230423013,-0.36055612770144757,-0.42824474547526775,-0.4525877721180191,-0.16164895107820282,-0.15662440700676886,-0.11486518267521406,-0.37107166609113945
-0.34850150342460023,-0.40632706008636343,-0.4007432484434998,-0.43724055074482776,-0.17464270625061953,-0.13329188326549726,-0.1375691196297532,-0.4144957962047787
-0.3152302847147222,-0.37724797966885376,-0.36680743648712616,-0.363172713020983,-0.14959290635407266,-0.0785775946866997,-0.09059756188212564,-0.5115527771087873
-0.32542143133738816,-0.3980391829297964,-0.3906481599545269,-0.3921916006881746,-0.17143519544424135,-0.11040499181882014,-0.12207531713011155,-0.5287509105735926
-0.3480826626471567,-0.4182886964382444,-0.4186242351876228,-0.43146412533211237,-0.20170369790769807,-0.14733713629204545,-0.15343367164024643,-0.5407486564030107
-0.38664672670014816,-0.41447063045667093,-0.4455905357806505,-0.46649747831050237,-0.2370518769467984,-0.1987476225132069,-0.17901116499679204,-0.5017508079779164
-0.32646410774281,-0.380346481659721,-0.3630831683117192,-0.39541556470189626,-0.130219524252592,-0.06130365750661934,-0.08139316802252324,-0.42353755720555386
-0.3290737837807462,-0.37738624644622215,-0.38662930674877727,-0.3977197286777358,-0.16694467247033082,-0.09565333934163427,-0.08987040144528595,-0.4714937956753862
-0.34766883580526203,-0.3662350687372599,-0.41900177037540043,-0.3944782182597182,-0.18723376621865562,-0.12231456292200138,-0.15132163307084387,-0.5227300261796348
-0.3800394601796768,-0.424754465029528,-0.4284796838711722,-0.4552622079401662,-0.2592804147964653,-0.19486990359191406,-0.21774925164990788,-0.6372311957346695
-0.3560321471986928,-0.4517259737142682,-0.42892677808132906,-0.43750464104073156,-0.29929445467996774,-0.23583633043127775,-0.23713317224258795,-0.6898764860186916
-0.3488505077699661,-0.4815912081476641,-0.4078447206638355,-0.399747206050528,-0.2761767988726915,-0.17185859359774877,-0.20132318349954234,-0.7807539276469035
-0.3575819796021015,-0.5015663796646821,-0.4193052291171507,-0.41774579060717226,-0.33654241406876284,-0.2367703513340942,-0.253402206197546,-0.8782291043295097
-0.37647464130956493,-0.5456572710724231,-0.46382700554412987,-0.4425020805830623,-0.364276749396014,-0.27590782440320144,-0.31265170332247694,-0.9313753496328415
-0.4160377644110142,-0.5531367887576573,-0.4846614236473255,-0.497906200619768,-0.37609535498757646,-0.330176675187415,-0.35693518054851486,-0.9464768696584325
-0.3432847510601287,-0.5961042626353082,-0.45272521699158214,-0.40186455083386674,-0.3371346299445286,-0.26173007014688415,-0.2881280567276975,-0.9610289854577082
-0.38165981069503707,-0.6032132102347841,-0.4527628448295915,-0.44110469479406306,-0.3315429734004243,-0.2781351754536663,-0.29259284146148057,-1.0202122857882507
-0.39012948786040286,-0.5707474242936453,-0.48634089566585637,-0.46398085246977355,-0.32878428949035143,-0.2654796035475174,-0.26292380888172995,-0.8203823997757771
-0.4337257552612395,-0.5581276719134268,-0.515386168642029,-0.5114666349498821,-0.2892872366492301,-0.2750746397560047,-0.2755384661649077,-0.6397623214963256
-0.3807578772505622,-0.5004261685338984,-0.45298490839978656,-0.469528913190349,-0.22469645491101548,-0.1659891788159729,-0.18811706805657744,-0.5489900450494349
-0.37295696263785594,-0.4649743574759877,-0.43515493880583084,-0.41816045295067716,-0.19560192812206573,-0.13196548436542227,-0.12281736140183169,-0.5662948346262555
-0.38643695248090554,-0.4894312605617921,-0.4562934487791803,-0.4705150827428504,-0.23857690575614784,-0.17131432638487887,-0.2021786594143965,-0.6173130560461824
-0.40417453293407907,-0.5389215154430523,-0.46635298454436613,-0.4857552321463989,-0.3051595234923562,-0.2465739232628542,-0.2549218650376927,-0.7413355909545497
-0.41576977988745756,-0.5909150513008444,-0.5013622473732061,-0.4999303473741159,-0.3515447067892417,-0.3011548713270373,-0.29883234240195067,-0.818470043636497
-0.382600648639099,-0.5680322326424344,-0.4186473779623162,-0.4269700799873199,-0.3064828347224938,-0.2357629582339141,-0.25372365345441256,-0.927394947538165
-0.41082921327117,-0.6153553809539799,-0.4544887090133718,-0.464402314159736,-0.3386855198464621,-0.26914055343791826,-0.28507738652337833,-0.8843989133281391
-0.395242785948842,-0.5831547974728117,-0.48652203943780314,-0.46592035328649234,-0.30347166157376215,-0.2432035510851792,-0.2552171306992643,-0.7962432741909872
-0.449423395938673,-0.6072341998341485,-0.5105053387201195,-0.5201485382110768,-0.3267053356105002,-0.2711412295176946,-0.28823819695441194,-0.6943222896559049
-0.38357533311609754,-0.561359853483302,-0.46644455765140524,-0.4606605785215717,-0.253703877372228,-0.17861088438665085,-0.18972810273488272,-0.6762478812921844
-0.38763486391906005,-0.5523449695967951,-0.44458676779614725,-0.4668959461919762,-0.2813315562546007,-0.21241690283477288,-0.23888629255899735,-0.7277057373389829
-0.41248383035409825,-0.5867200557461856,-0.49801114788247297,-0.4659004493549942,-0.3146555193036414,-0.24840550618809387,-0.2621938584969182,-0.8315811396604513
-0.4380474629537505,-0.6238170720526166,-0.5177583995672939,-0.5274618482971773,-0.37438052033543917,-0.2950184497954846,-0.31715570621038647,-0.839591024247792
-0.4153960017881294,-0.6334416046611125,-0.4793819774974661,-0.48234150615334415,-0.3648243103379329,-0.2946060934001093,-0.30889373585115865,-0.896231650325531
-0.3790652942372276,-0.5849224633216913,-0.47119204840632944,-0.4567465193614326,-0.3072285755394501,-0.24122132280225614,-0.2672163439348367,-0.9175931439913044
-0.3911740620344693,-0.5835951733541709,-0.47006797381942805,-0.4525958477271582,-0.3292963517364897,-0.2490815076766362,-0.25869749858800245,-0.882890014977086
-0.42855622714832303,-0.6312188763338166,-0.5068210420121355,-0.4933561173258922,-0.38683687870953304,-0.28655400384973223,-0.29831195173770214,-0.8911967747451756
-0.4287809110473337,-0.6702827599501814,-0.5157639078238199,-0.49432939402872444,-0.3847152331446048,-0.32470062384681464,-0.31298825635705185,-0.8904608181017749
-0.3719365231804726,-0.6373521541285779,-0.44077545484318253,-0.4357045018800823,-0.2967525165090203,-0.22148914972313952,-0.24178729998933937,-0.8536256979853816
-0.3893069745199268,-0.625578763617904,-0.4629310984492523,-0.43609862454941917,-0.25475051625519624,-0.18858261306389706,-0.2046020828997853,-0.738563606533319
-0.41656914272379975,-0.7511139351221098,-0.4958729275416054,-0.4690082559075899,-0.26486633276527344,-0.20041787993444152,-0.21552420555984683,-0.753581397521714
-0.4616540934672709,-0.7594157280080952,-0.5351148344504711,-0.5334835607061834,-0.3651461561793176,-0.284343468973654,-0.3135936054860084,-0.8294008323960604
-0.39197292451049803,-0.6767420115417447,-0.47838944838333486,-0.43843442052496634,-0.30964661984787534,-0.23077932766592324,-0.23467008196968797,-0.8650839416844502
-0.372576246254768,-0.6674474777996551,-0.4483498733905566,-0.42638925261442173,-0.302702966711153,-0.2353595516008776,-0.2469659833861094,-0.9125613514162461
-0.394896951896244,-0.668613711352316,-0.46692360578717446,-0.455352597682407,-0.31775842585838837,-0.25294680484769266,-0.26722796282431593,-0.9234768138691634
-0.4316195534585706,-0.6492870446242371,-0.4914084163753968,-0.5086027163419733,-0.40860949725761586,-0.31355046044581447,-0.345957489379389,-1.028981787752378
-0.3911255109136342,-0.6388172391099928,-0.49118500381267755,-0.45085651406669636,-0.3758595916412444,-0.27586840767775384,-0.31551118397769873,-0.9786291994669076
-0.3935435306947074,-0.6361425134485305,-0.45513204755040804,-0.42764587673647053,-0.28308414369593904,-0.22340504411288217,-0.20748538856865992,-0.8527616549483784
-0.4072230315255438,-0.5905659493333848,-0.4778407291912875,-0.4059379360528979,-0.26729993940738334,-0.20398962730877893,-0.22550417244689605,-0.7948667065056413
-0.42472024821550125,-0.6242828872188179,-0.46445464152622107,-0.4777889649770362,-0.30481674959069954,-0.23498343295150476,-0.24372232495455168,-0.7818507649551137
-0.4022929537684002,-0.6413660838467683,-0.46230707179207436,-0.46144004089551327,-0.32217014712912456,-0.24562245884516948,-0.2501335973680446,-0.8466996735038589
-0.3826817964154707,-0.5798945125311822,-0.4287009951540909,-0.39215346440485027,-0.28916102089859114,-0.20922865939184954,-0.2089506215382643,-0.8797349691702597
-0.38059329392690194,-0.6073156096760419,-0.4372774827934311,-0.41305552510961274,-0.3338074373255116,-0.23444385362011536,-0.24702039839959528,-0.979903696863229
-0.3940619814386875,-0.5580996551232333,-0.46075968782352494,-0.4594966029753358,-0.3753249471163289,-0.2967856486896486,-0.3235573036104879,-1.0374367999024672
-0.4115795133527717,-0.572943879885466,-0.4657176334105938,-0.46622548779625267,-0.40010433150199176,-0.31856394711123576,-0.33495933400167366,-1.049476821739908
-0.36021310623556446,-0.5624126687580374,-0.40542361516082803,-0.39114936598932804,-0.30099671139230744,-0.20391241511988875,-0.21495904073823593,-0.9446384354503143
-0.36894218880069896,-0.5860312336865743,-0.40947317683681117,-0.4201923187471787,-0.271707217327019,-0.17697203652088514,-0.18224453715628963,-0.9228049468720649
-0.38391142387927524,-0.5731644732801434,-0.42416914701633335,-0.45334408630366874,-0.28074326774431996,-0.19770602806779097,-0.20073176770651296,-0.8615313064307505
-0.41512361590661734,-0.6312447677573932,-0.4716532161047679,-0.49065770867763037,-0.3242005144658913,-0.22174761486928082,-0.23229305397892155,-0.8251315170770119
-0.3790044998691737,-0.6666857683427994,-0.43175337944558584,-0.4067008231614842,-0.2223994741247893,-0.12945516517221112,-0.13725530729522117,-0.7665785813625655
-0.38631294296828306,-0.7015656536844814,-0.4348682499542549,-0.4209382199862324,-0.21923635330874525,-0.15499940352321806,-0.11733107079927065,-0.7017758481891779
-0.4005557970862737,-0.7675544980687511,-0.445256331749767,-0.4290581623073137,-0.20791311221483233,-0.12220140055607967,-0.13544437404704981,-0.6599998232167342
-0.45843216865755493,-0.7927509888196602,-0.5253563403492024,-0.4813142318027891,-0.2583286605259725,-0.17886103701437958,-0.19491078963774475,-0.703347119737885
-0.4117241518288901,-0.8592489857759222,-0.4857069142559889,-0.4673341927038362,-0.2313687308314925,-0.16672616807958612,-0.1668726713613428,-0.7588167928185028
-0.41249576109407915,-0.858551716982498,-0.5013184223560502,-0.4722238320930359,-0.2590502044227504,-0.16793315317866564,-0.17687116796665256,-0.8744313350092394
-0.42284903927277906,-0.8264524457562447,-0.5148521620796331,-0.4814975047778839,-0.2732950333121599,-0.2025035627312456,-0.1946794633750597,-0.9000070911740709
-0.45262425000724993,-0.8508121549231754,-0.5487584459284689,-0.5131398318492625,-0.316827797781184,-0.22333335837468138,-0.22835472542216756,-0.8739867874933881
-0.4668185126563788,-0.868840676034735,-0.524298818142725,-0.5106883870454973,-0.33159917490968,-0.24045521288524235,-0.2560273017487386,-0.883202787829152
-0.39346439915871784,-0.7846150933191685,-0.4722848185787844,-0.44645260662914177,-0.2445444529869362,-0.17449679526454603,-0.16560043617923062,-0.8724602721159709
-0.42702165393401,-0.7897486221832974,-0.4890694114516889,-0.48139765153808367,-0.2724312693840341,-0.16270596200324297,-0.1851693117365836,-0.8276912756535372
-0.4509768538696846,-0.7754288584382812,-0.5318215761596842,-0.5138393051937903,-0.30194918496437995,-0.20443437889593583,-0.2060630639024325,-0.8591230463807938
-0.4704104390284417,-0.7428561237408476,-0.5382307087599753,-0.5286628447584006,-0.3511699794064946,-0.28210509352443736,-0.2651845432430332,-0.9173643374539078
-0.42325966239579954,-0.736733765244217,-0.46953009952811575,-0.44897069491220776,-0.28393443118577766,-0.1841160109956508,-0.18957731176706255,-0.9033945090726685
-0.41608403668765026,-0.7358682222586627,-0.47958074051124044,-0.4665972290361931,-0.3111982741936115,-0.20108520118028858,-0.21511745426177614,-0.9485199069606151
-0.4369637900883252,-0.7664292038398423,-0.49406954037619827,-0.47492156879309055,-0.30724254083516306,-0.23373731269407635,-0.25346648720054965,-0.9196999337311891
-0.46971002581476606,-0.7849533269738493,-0.5414125938420278,-0.5352094603803518,-0.3855971206773982,-0.2860285454186316,-0.28541358255910265,-0.9540899102601261
-0.43169266998675865,-0.6923962725946842,-0.4963215213872988,-0.48601159916499714,-0.34559033332021316,-0.27636811463913596,-0.27845567114379827,-1.026500912504665
-0.40741798365733506,-0.6315985794874298,-0.479943628073207,-0.4436291569344287,-0.34766105624624644,-0.23414217899105377,-0.26658537529871884,-1.0215809992910452
-0.4295616821895238,-0.6353182223820376,-0.4827261191051804,-0.4626991627151697,-0.3307054194399158,-0.2302485478676442,-0.26516909161924485,-0.9986766734343577
-0.45741457369694005,-0.6109573480447419,-0.5053756482300285,-0.5040237387363323,-0.3525545892115519,-0.2655262502421087,-0.2780469123723088,-0.9093418300904967
-0.44727087165447516,-0.6052778478516332,-0.4989850087491219,-0.4980666471460566,-0.3542360146317317,-0.2690338215529059,-0.2805985568659774,-0.8810726964595454
-0.40488277584715576,-0.6318603434454408,-0.4566430248365174,-0.44844815425582396,-0.2963649730953202,-0.1950147885690454,-0.22012951287276394,-0.9408659489687569
-0.42820343461304894,-0.6594008067754523,-0.47306933658602807,-0.4893196999633,-0.3517197605221559,-0.25489810016176956,-0.25729351336860007,-0.9534801719459658
-0.4504746177664769,-0.5869722525039517,-0.5017422642400363,-0.5005683415682942,-0.37535453161567983,-0.26643626423791805,-0.2828661252727173,-0.9244024926334445
-0.4741724347009125,-0.6524880182923468,-0.5235069837913489,-0.5462674838667011,-0.39893755636715295,-0.31377704938838025,-0.34478439377233017,-0.9006156338412815
-0.39796739499647604,-0.607465625767358,-0.47173673861944215,-0.4698947822045827,-0.27510360050542404,-0.20906481738993152,-0.22336921956577874,-0.8740503486028242
-0.44300211921971694,-0.6332730418116285,-0.4903820854280574,-0.462484510861631,-0.34699390238367583,-0.2587993486132819,-0.304531805709793,-0.986298725865063
-0.4436213873534398,-0.6327257420984751,-0.513713730914043,-0.5026632102171735,-0.39560375815161164,-0.3239044229677145,-0.34212813295690464,-1.0800371372856166
-0.5031241957288497,-0.6591809664241458,-0.5575739018322629,-0.570846477415245,-0.42654857289084425,-0.3745029085444392,-0.3801178422525475,-1.0745446380222918
-0.42991077609842326,-0.6363950221184314,-0.4699439053022663,-0.501294655036773,-0.34036568095844494,-0.2536822714466904,-0.2735201360236356,-0.9992624981762323
-0.42719921002136596,-0.569852213897841,-0.47344818438672565,-0.48474449098020095,-0.3553442478949458,-0.2520231654952746,-0.2894349660440981,-1.0337421549835506
-0.4373047352312009,-0.5346396506971801,-0.4709397255945618,-0.4893933334299942,-0.38868362016956254,-0.26635877460251156,-0.28553252935476564,-1.040328256065495
-0.47289641940622773,-0.5514256549771864,-0.5116702420715012,-0.5620417701336713,-0.38737800335981337,-0.3296817833562649,-0.34734242378443275,-0.9976206769267648
-0.4482537701463861,-0.5294414895300633,-0.492705253681153,-0.4873291674972704,-0.2818820908083288,-0.19923031243741482,-0.22048512061825637,-0.727846578722794
-0.42729299655396114,-0.5880750054204626,-0.4803206114305488,-0.47313587680572483,-0.20684290272632733,-0.12689016662011166,-0.11996960879970436,-0.6404917624407114
-0.4482926253642878,-0.6536011333562453,-0.4807290197923011,-0.48055346902779,-0.26772051158955135,-0.185527198681671,-0.20430735592578067,-0.827224672222729
-0.47077709737168133,-0.7327504527474344,-0.5239924135473586,-0.5186163126667831,-0.4025786589707011,-0.295034148796284,-0.32774452980759705,-0.9443688574651901
-0.47361370908634587,-0.6797662209346966,-0.5469080119425298,-0.5483084969385542,-0.3807044465340802,-0.2951099875500824,-0.30983045694952877,-0.8704657049397935
-0.4394509469269277,-0.6566211909893181,-0.47927246383723227,-0.4681083516492401,-0.2536658370447412,-0.1518047294140573,-0.15730505902666558,-0.7435650439985506
-0.45132358091986907,-0.6726820828372994,-0.5223555080236749,-0.4713867573972769,-0.269700922005912,-0.20928077645381868,-0.19881921718085452,-0.7926563459552665
-0.4652979983583996,-0.7263304093675077,-0.5310847019365816,-0.5073714420172433,-0.3163293314790237,-0.263636690162408,-0.27287204982194574,-0.8853678197889753
-0.4917273938345376,-0.6676989876509601,-0.5491628460283995,-0.5527421184818821,-0.38575443368394663,-0.29121854508650996,-0.30707283221438736,-0.8341394132057759
-0.4181847038134919,-0.6058946062468202,-0.4784483569411263,-0.4804161895505829,-0.21999372019632027,-0.16966052007987048,-0.14067103521032812,-0.7108841527790882
-0.4351599358755203,-0.5887870153012417,-0.4877218376404195,-0.4854296712631338,-0.24239090430535662,-0.16709504861490243,-0.17771520414924158,-0.738321138379405
-0.4541787676025667,-0.5814121134682487,-0.5187150171614825,-0.5040051276887337,-0.2897598137325273,-0.23180109750065853,-0.23773863473332096,-0.8054825657138994
-0.5049869286404682,-0.6026221560587387,-0.5705154969692682,-0.5614260792907639,-0.32464861996373845,-0.2764179586887246,-0.281040269070261,-0.7334145957483775
-0.4414224847611304,-0.5876837746805367,-0.4815156126335827,-0.47097024434356755,-0.2487626638534556,-0.1705640926520744,-0.1886479188610678,-0.8025324781976093
-0.43707129874154044,-0.6384328397469711,-0.4931204896351523,-0.47505961855430917,-0.30782745622839863,-0.1940768141262616,-0.24322273372395303,-0.840859932191585
-0.4586938329532148,-0.619901838156112,-0.522915586103,-0.49154453254153485,-0.32901681875212374,-0.261100843278815,-0.2615133602395934,-0.951134068851844
-0.49091254740044243,-0.6291513000508874,-0.5328444865393415,-0.5630243812179831,-0.3788758009444638,-0.296713816109716,-0.32170070528872846,-0.9119064569207173
-0.44604149019541706,-0.6194916207686357,-0.5101247815539719,-0.4703678032468969,-0.3011904670004902,-0.22118189578737366,-0.25107949041468247,-0.8723088476989929
-0.4422804903428757,-0.6005053340262343,-0.47831789718866824,-0.4753953820842747,-0.25575690342313834,-0.15069685884465578,-0.1916182633492567,-0.7823036278656254
-0.4434360208325583,-0.5661109454147555,-0.4796976228583234,-0.5008222520462762,-0.24107819458119725,-0.1637347850965441,-0.16772857811021147,-0.7615086914722915
-0.46446001683764665,-0.5327313167004732,-0.5182588230153471,-0.5404108910904275,-0.25766268390842567,-0.19090192270480236,-0.19291954595923094,-0.6602039060262871
-0.48453093542908543,-0.5520246216189835,-0.5241147969436553,-0.5465006617116249,-0.3149876789733405,-0.2329883391560351,-0.24904996136909147,-0.7666164785852148
-0.4251780924192879,-0.5395651316870477,-0.4909382660332223,-0.46570257228216694,-0.22709040242911924,-0.14467827651115683,-0.14541358826790535,-0.7157896221828323
-0.4646112462351829,-0.6095111841907175,-0.49744999717114957,-0.5210302868689591,-0.22650266762632415,-0.10934980903356804,-0.1109151747014329,-0.665424188410438
-0.4883800226902932,-0.742707275380428,-0.5349007075429344,-0.5408218424956293,-0.1924666049737663,-0.10627565289280279,-0.12981680061249454,-0.4765247691219667
-0.5433806358714984,-0.9754502114456225,-0.6187128854560224,-0.6301068010257216,-0.2460019356972253,-0.19224342050647034,-0.2021712818386407,-0.5917688292868966
-0.5029381451762421,-1.1699725538703538,-0.5870503994294889,-0.564299545607563,-0.150345605787782,-0.07040173031419623,-0.0798435603508701,-0.48629764177220136
-0.5355861185437558,-1.4331047121089162,-0.6863847162538672,-0.6153361982511417,-0.09935005231982329,-0.02967868345232943,-0.04846349425106577,-0.35864854781227423
-0.5563035773424312,-1.4936799884607581,-0.6926472281955817,-0.6607409211750995,-0.05052790304044522,0.01910721059649982,0.041832204188710295,-0.07021651142339304
-0.6073298603987264,-1.407016349308007,-0.7329147657245787,-0.6948276259312878,-0.08932616971303103,-0.03364176001904746,-0.053231840791366045,-0.025713286275991634
-0.5524723214865201,-1.3420494755556713,-0.6824171221850567,-0.6266521242148358,-0.04871746416429859,-0.009288446902380617,0.019668736379076852,-0.10813906164842384
-0.5322463782711225,-1.259355744498894,-0.6650356444386962,-0.6427593717748246,-0.06407150842185341,0.012785199510540956,0.01345832333124384,-0.22845310574658373
-0.5604239837581211,-1.2205828973264203,-0.6880711823298936,-0.6535148593514759,-0.05259800687975485,0.012653852931574111,0.01152263267754594,-0.14121166544391328
-0.566717838121937,-1.2929666617328177,-0.7405657860915954,-0.7105381725878294,-0.12345477978082277,-0.07830415938278777,-0.0643720135847985,-0.20982123892539978
-0.5748671373744539,-1.3280363132083115,-0.7116317038728734,-0.6778586148899981,-0.1371660099588936,-0.07897192841126881,-0.06635308464074703,-0.29863308780097975
-0.5374454337535857,-1.310735077427524,-0.6777602907991798,-0.6370997114971005,-0.09159175379533838,-0.04103950266226254,-0.011344971783408833,-0.3666955969285098
-0.5585311799384133,-1.3496221953347052,-0.7117645491029838,-0.6674373274911065,-0.06424740635883015,-0.01280811962806464,0.013486920410175761,-0.20209256508461484
-0.5799598423200837,-1.303265478267914,-0.7142999329024046,-0.7030197974497754,-0.08215669297100077,-0.01997764365368249,0.010476552844627545,-0.05463461615471828
-0.5832007578878425,-1.2946688830879909,-0.7254393018583484,-0.6797298809694107,-0.09706238174606233,-0.05152648611933039,-0.03248476860677082,-0.10088681299969174
-0.5428633416752634,-1.3304625457859196,-0.6905746083395232,-0.6308711648764194,-0.07721232008933775,-0.009657535357120153,0.029702647784412603,-0.23509162987529825
-0.5597732116127115,-1.4035087198221552,-0.7345066621722458,-0.6776101431313077,-0.09889099368437747,-0.03495931509422725,-0.054731846452990805,-0.277630581303199
-0.5922269188964668,-1.4611532628660358,-0.7458667312949048,-0.7021948166277104,-0.13791831685023748,-0.08071177097696057,-0.07485986484277918,-0.25251900058422894
-0.6109442188058277,-1.3872171393390555,-0.7692663788024566,-0.7108785442728077,-0.19461610531188697,-0.1479260269940724,-0.1495220986748156,-0.3135431587757565
-0.5520938946948036,-1.4562224018986396,-0.7090262695397437,-0.6565718044352326,-0.13085682972487322,-0.06228019522952001,-0.05529064671487332,-0.4612122455278814
-0.5675498207796916,-1.4438505521544598,-0.7144371646625846,-0.6833771303817293,-0.17461401708174695,-0.08440988320930035,-0.09291485934828365,-0.47822834197023606
-0.5900370441298978,-1.387418365083181,-0.7469414262810797,-0.6917099113713937,-0.1401347225038567,-0.08076021164105002,-0.07807991627750122,-0.31506181443886994
-0.6181553727711319,-1.3424358629862825,-0.7732062262780415,-0.7367333689929263,-0.16129939413074826,-0.12355673462395181,-0.11300167344914183,-0.18610659101940658
-0.544184917700216,-1.2678782401431123,-0.7126311973981184,-0.6544853108575063,-0.07937178617956757,-0.005924440513582799,0.01816838809616383,-0.20618990298725268
-0.5423708503196265,-1.2614618640390696,-0.7017921614567024,-0.6577784216450943,-0.09090915652114706,-0.03628334234176621,-0.03343505175636967,-0.2717378333713267
-0.5603909715385658,-1.2441603193245925,-0.7172212957973497,-0.7044674213513565,-0.09630008452919628,-0.056457181127824434,-0.013107840054435535,-0.29053911528760035
-0.5906616182696248,-1.2507637470813473,-0.7408619765431013,-0.7433974976192326,-0.15835713580913335,-0.10962574318912004,-0.09098496524918276,-0.2332344396315468
-0.5703432639386193,-1.2603163150783827,-0.7503750260161616,-0.7254389695831595,-0.1831603135545794,-0.11539132932562507,-0.10733138179210999,-0.31000626518809943
-0.545521378073897,-1.269333472581454,-0.6999466536013573,-0.6619742050323842,-0.15263671324331607,-0.09668602972487432,-0.06937173879018163,-0.48661154249374655
-0.5579260869151198,-1.2471678740830048,-0.7184166942008657,-0.6629768179359795,-0.2127110813749015,-0.14449553683457017,-0.1441600067822892,-0.5604870951229739
-0.58069958503331,-1.2841951393565612,-0.7444118223076924,-0.7058937180850526,-0.2109623030116973,-0.1425607787944183,-0.15189844837354335,-0.5026406491633469
-0.6119966894013805,-1.2681835475776768,-0.759288123992496,-0.7584045517847224,-0.26612457731347977,-0.19903348743471566,-0.19701088539868483,-0.5228156730525156
-0.5419672928993895,-1.2434065670274468,-0.71032901460344,-0.6643270469895937,-0.15229490268082554,-0.10131664157020545,-0.06965323539886042,-0.4159112708037824
-0.5634997667819585,-1.221355779405607,-0.7264709113641197,-0.6844679992821041,-0.1545353402440266,-0.09797315227166259,-0.0867850037069333,-0.3847232012821442
-0.5568547003391711,-1.2615088633356741,-0.7500528830843228,-0.7179210307501701,-0.13739663651073197,-0.10751308176508567,-0.08280727325795306,-0.32725806179850164
-0.6164448986049584,-1.2380896335334346,-0.7869562725388157,-0.771770871430245,-0.22599216279111337,-0.17522871544536436,-0.16935379214195592,-0.31704640630080816
-0.567425110337762,-1.3053427539510591,-0.7233853184769924,-0.6902581078187088,-0.18679100430292322,-0.1251704174610896,-0.14268753860884176,-0.41160174797762966
-0.561699005677841,-1.2624089975698876,-0.719353718831923,-0.6760458075325656,-0.1824881747912646,-0.0996826628185433,-0.11678408057665125,-0.4635848266033378
-0.5629199568573352,-1.2639266873335606,-0.7339012284369296,-0.6822202677031092,-0.16360514019020847,-0.09061863182885509,-0.13393581098356624,-0.4089298490620286
-0.6067657353845306,-1.2287042519247753,-0.7482308046681446,-0.7642844250896458,-0.1981610377150726,-0.13964468311261766,-0.1554139757860427,-0.3445023569308733
-0.6238181775005079,-1.2075618022977246,-0.8081240273026571,-0.7788516237000197,-0.20206139095041722,-0.19479230180850338,-0.18747709128925139,-0.2960373923735465
-0.5354266839275117,-1.1897472916322762,-0.6952354005638824,-0.6568380665813359,-0.08257899552198106,-0.02996866679021723,-0.0291681523286024,-0.19354863618388457
-0.56019755104452,-1.1290897762178607,-0.7151101078475925,-0.6852581840323549,-0.08349628974084884,-0.01014890986029698,-0.0174923084202967,-0.1250842878642024
-0.5723085778849921,-1.1675540075380844,-0.7390756358524085,-0.7038144410186081,-0.08639470925744379,-0.051784791537010835,-0.032943700737230935,-0.10276405338609883
-0.6017477821087899,-1.1347543700527467,-0.7689269085289129,-0.7591806795230431,-0.16998054451296477,-0.13207286476042168,-0.14189563098998287,-0.16849812564335676
-0.6055444518395812,-1.1829888149927166,-0.7746082118052601,-0.7873203897746777,-0.2653739030357243,-0.23193761592562942,-0.21598808022207241,-0.30693068377603666
-0.5415957161372447,-1.1404959535625454,-0.7091316116129709,-0.6743333081518776,-0.14082101533019914,-0.07619716002518395,-0.058034104447742096,-0.2761292160951185
-0.5648942612271357,-1.140247195747681,-0.720051065264574,-0.6957817637537496,-0.1469869590542704,-0.08433703005533284,-0.06136327475186775,-0.21091928412312025
-0.5823203514603658,-1.1577528752761943,-0.7412251119343918,-0.7238682607971739,-0.15197703524801545,-0.10924358898183005,-0.09833315100130859,-0.1915781083224438
-0.6167090355967826,-1.1666760585631637,-0.8033574012980734,-0.7847793510997946,-0.2307824448298249,-0.20750588201029196,-0.1769229302290133,-0.17931000692043014
-0.6357877137555167,-1.1809903909506994,-0.8039763376815288,-0.7865094860312929,-0.26686327786360997,-0.22719555308035944,-0.2299991290288641,-0.1930904770244445
-0.5518318213965479,-1.150078993345145,-0.7080320582167958,-0.684546481258259,-0.08901545551107602,-0.08621284307943218,-0.05799641246876164,-0.18676658503773666
-0.5797136202453266,-1.1713217601883563,-0.7468744999353274,-0.7334401738962273,-0.14851439393019145,-0.1176439279777026,-0.11411533772955379,-0.1769278085072592
-0.5972197767301393,-1.1663781703738865,-0.7623614845982745,-0.7547168836846059,-0.16417121919060298,-0.16047913895790003,-0.12591447340988823,-0.20019455564407312
-0.632945487836571,-1.1785090076595321,-0.7997398233694473,-0.8039188622063487,-0.2439400335626459,-0.24249312110025403,-0.23615831658141187,-0.24951411978316848
-0.6236145543959589,-1.149131144928366,-0.7923756471364077,-0.7775388379662239,-0.20560976590897004,-0.2182039883229759,-0.1942726799855086,-0.09636608913304318
-0.5757815525361978,-1.1384964083559965,-0.7435507291278448,-0.7249854392731799,-0.11289667521515469,-0.0938778962358919,-0.0678440434549809,-0.04468811568477875
-0.5743198327682026,-1.1052319891788394,-0.7584224355842418,-0.7286239286912615,-0.11069106342256867,-0.07882650690398504,-0.10922232077957679,-0.029521042162064994
-0.6100413969164298,-1.1018846836351968,-0.7694701172780309,-0.7665752084457985,-0.15790431879483344,-0.15374221196872712,-0.137816748173781,-0.041222388208209025
-0.655789889226473,-1.1076698646777328,-0.8311022665640222,-0.8313172673055583,-0.2578128898967539,-0.24036685503874708,-0.23788044666019753,-0.06954750273938658
-0.6188804462847015,-1.1394433735082958,-0.7641470690318733,-0.7540296421789089,-0.17302626865765416,-0.1828376937341742,-0.17359391603061006,-0.1412764883198015
-0.5819523428184084,-1.1737338707073808,-0.7212277878105703,-0.7127065249501725,-0.15531617213049873,-0.11819068634941517,-0.1408326509905207,-0.2096915422663509
-0.5864532212885909,-1.1277407163632571,-0.7460600877012983,-0.7443812779321425,-0.20799456284570797,-0.17823052319015706,-0.20462978636984425,-0.3614043267632594
-0.6167697469571202,-1.1587765075583283,-0.7829464521803519,-0.7774202211802839,-0.2516006054799533,-0.25325986110364423,-0.23255240944435085,-0.3612000502795648
-0.6737572838745226,-1.1774932908958793,-0.826418856470636,-0.8403115159605296,-0.3178792627818504,-0.3035424302879515,-0.307691222264044,-0.3207208892321821
-0.5677036693188613,-1.164897562194788,-0.7439748775105011,-0.7417130827846924,-0.19550768756730794,-0.1995209059216295,-0.18757542293596505,-0.3034479654473075
-0.5692957339080292,-1.1630582498636433,-0.7265029743149095,-0.7332172955477061,-0.16638645320269915,-0.13868987678326378,-0.1407633656732903,-0.17878889840030746
-0.5730312064282107,-1.1120141794754839,-0.7512395051681867,-0.728080016519872,-0.12468706872805892,-0.1227052505619911,-0.11619212221942524,-0.05867400374674344
-0.6129465583748864,-1.1329371899268594,-0.7706815663856625,-0.7979509021062696,-0.17288597233623293,-0.17236013289093846,-0.15700357211585952,-0.07142463787708901
-0.6583287800510265,-1.189032913558692,-0.8243172857748017,-0.8517131183020691,-0.28260650287718647,-0.2588396225854247,-0.2604143754844237,-0.1887371445811629
-0.5858011262800831,-1.1684578461358082,-0.7374039068171239,-0.7132290455734319,-0.1891054702778844,-0.18006513130286622,-0.19479946777506793,-0.30300395901049615
-0.5698927061277591,-1.1674796469080673,-0.7143367260557131,-0.7193618251787393,-0.18162019954007372,-0.15070564659253366,-0.15263242196054239,-0.28741675524829724
-0.6056872854223113,-1.1410125845617471,-0.7432803848820508,-0.7180619391002253,-0.1462270367870525,-0.16499567752715247,-0.1280735979661962,-0.18639340949855018
-0.6257910507827081,-1.1619139046738682,-0.7552882105113539,-0.7711585900361179,-0.15816834732732482,-0.13536744624282013,-0.15191557227486735,-0.030872322705018294
-0.6563640855728131,-1.1330168263002305,-0.8138377471005172,-0.8343114673134275,-0.21818681948992533,-0.20621178199621884,-0.23540899545056898,-0.12208608557688092
-0.5728803329937229,-1.1388713968504327,-0.7587245052840464,-0.7374682620699448,-0.1177386950252218,-0.11767720454555486,-0.12480251236085278,-0.0905255392112255
-0.5827659760634939,-1.131169384460567,-0.7350141403438318,-0.7349237791330754,-0.09880471411158294,-0.0994997337806462,-0.09453754109725106,-0.04416880024167749
-0.5893186910437276,-1.0260634718205408,-0.7206997423266397,-0.7370388790467292,-0.09823388763845083,-0.05778697012224548,-0.07471256829557306,-0.023460374420708776
-0.619726372879824,-0.9943042140119168,-0.7494454711837742,-0.7732677542899892,-0.1421002146105934,-0.14087999088162428,-0.15454015076733157,0.022414616777002645
-0.6360597713286733,-1.1303561532107185,-0.7971787694733761,-0.79817887799449,-0.23989504880879073,-0.21374737253246054,-0.24062614764305493,-0.1698080603449575
-0.5376667376362992,-1.072313496279058,-0.7066083686831921,-0.6995895301376881,-0.12517968057165346,-0.11275764203629081,-0.1478499522852221,-0.21147041666680114
-0.5715082286349338,-1.0385186589097852,-0.721389073083553,-0.6937667115885573,-0.10603025103685561,-0.09162529327195025,-0.09065749899224054,-0.09623513187885226
-0.5895518271584018,-1.0143525626971477,-0.7227252933153127,-0.7163097597190128,-0.09363577036243134,-0.09090862261560376,-0.08374836674695646,-0.009532568460219177
-0.6387680588454339,-1.0870915784732236,-0.769222663128476,-0.7809347857642756,-0.18022181296193251,-0.1952426808785304,-0.20116313184425688,-0.11468502482809109
-0.61651236889025,-1.0764839502210748,-0.7725590009009117,-0.791467239507704,-0.21078415259262448,-0.217277827849413,-0.2202083141484602,-0.1299124632155509
-0.5426340682040214,-1.0501627068117214,-0.6998241796957385,-0.6651988368004803,-0.08689627948042804,-0.0727465459407115,-0.09582700973916014,-0.09987190100064565
-0.5574890183908184,-0.9998742111556699,-0.6762418532423997,-0.6687295857718253,-0.07172696958740701,-0.07915267060030093,-0.07492571543647923,-0.08633535836431043
-0.5525830546705166,-1.0492738774451627,-0.7008370912223394,-0.6774388403537426,-0.1558583041552805,-0.13598657365164568,-0.15808627895297303,-0.26931721837928146
-0.6122282624704937,-1.0850548272848957,-0.756962070501483,-0.7543297779025125,-0.25356946069233793,-0.23158489627154843,-0.2625650747272452,-0.36061449247199795
-0.5995554036565415,-1.0437991149557333,-0.7157310184423644,-0.7217076718765136,-0.1998864895446824,-0.2068109007876694,-0.19475748443566282,-0.2538987984639344
-0.52570593450928,-1.0611982316672084,-0.6516300574487075,-0.6370540100709482,-0.06392040432550264,-0.03908852319488048,-0.05839891994696586,-0.11514248240697939
-0.5274238047041623,-1.0210413672359309,-0.65470197140867,-0.6496264227690095,-0.09091290824358605,-0.06225157072429196,-0.06896317979041454,-0.1143266490380343
-0.5450208197681153,-1.0389987279692912,-0.6819918255731834,-0.6617485528077099,-0.11013986853761844,-0.12547893652335068,-0.10730419847785061,-0.15428262306389792
-0.5870874116951382,-1.0349321000768505,-0.7358812585086082,-0.7354790515594337,-0.19214179693633637,-0.18292680165154346,-0.19399738397112543,-0.13720104705882896
-0.5861267316223872,-1.070820771650769,-0.728751795491376,-0.7401472964353848,-0.17546076435207034,-0.17469521000141078,-0.18136421352544332,-0.10085616823945115
-0.5166976368801489,-1.0326239504587196,-0.6545188632326859,-0.6093326628642354,-0.06300298326122813,-0.05249648939106568,-0.061805606017461975,-0.05021053593820035
-0.5393760798046259,-1.0099452366547825,-0.6701652047401722,-0.645145143027358,-0.07285098059842858,-0.05734781367096073,-0.06543627963979537,-0.1244804975121965
-0.5696294467041813,-1.1118682865894616,-0.7057000595129045,-0.6750288037240213,-0.11481888731542382,-0.0729442598137794,-0.10141615332098612,-0.13409497359917633
-0.6006774890441379,-1.2509442703642906,-0.7527499357793533,-0.7421213337444347,-0.17524842476820324,-0.15618803377010404,-0.1896202694065587,-0.22147037159062347
-0.6192150575701568,-1.320654213675718,-0.7864147515200612,-0.7640510344939129,-0.21173850670407285,-0.22003145945015365,-0.2291041306672886,-0.3109823621563276
-0.5557160428779506,-1.2857977627738888,-0.7088745091134877,-0.6772133044300592,-0.12136931480657707,-0.09178293139045382,-0.11116343753375907,-0.26613806779357846
-0.5703203103641534,-1.200604887555918,-0.6902819006529899,-0.6941092624395951,-0.10306763368297757,-0.07503169891320628,-0.08050338914486344,-0.08211236001131522
-0.5659550221733397,-1.0757340452018769,-0.696586496895641,-0.7102799514356436,-0.05277148252595904,-0.05419867567682054,-0.05729109741399419,0.07782341464345557
-0.597714726027488,-1.0550481083624752,-0.7519671651414976,-0.745077396132335,-0.10668246699296662,-0.10253142208461873,-0.1401976409973084,0.04658195888323582
-0.5735310322138056,-1.044184095493754,-0.7418216833780307,-0.7207666518490135,-0.12316670610423142,-0.10685200620746983,-0.1267061073352059,0.08189321993922814
-0.5305482610591981,-1.0084119571369343,-0.6575132052452299,-0.6168240304911445,-0.030552275202708177,0.02180838183564161,0.01089169441366697,0.06494865842182448
-0.5376424245897541,-1.080829328665289,-0.6556041212770813,-0.6450706494764196,-0.04829572029800998,-0.03987046213163508,-0.053111647698830526,-0.02195898225678399
-0.5622733518974404,-1.0504094922499616,-0.7066519555068463,-0.6751232275603444,-0.0831581010516097,-0.07992784744068089,-0.06741456534668572,-0.07485106564313197
-0.6106855932879397,-1.1019252342371892,-0.7555735442709861,-0.7386546012356745,-0.20929926866980553,-0.20122641723063012,-0.20368077656713532,-0.18452386237550386
-0.6175640939124132,-1.1851214511016845,-0.7903665114415602,-0.7355798990785342,-0.2904418181649311,-0.29705319746103664,-0.3139166976194456,-0.43125447657763055
-0.522613181364017,-1.1550204913728896,-0.6660732399488376,-0.6287727237219037,-0.1920587496081916,-0.15866871131069454,-0.19033418835043808,-0.47126736062222246
-0.5386567897752343,-1.1866078139038767,-0.6585650921195512,-0.6396274101638291,-0.18521851911034862,-0.1450189646659567,-0.17436235120000246,-0.3704695639684593
-0.5278609468290538,-1.0715239531024066,-0.6496194766205242,-0.6432687255413237,-0.14685876254836044,-0.13165152676386238,-0.15849487564379444,-0.25494751487787887
-0.5862142579447451,-1.0903834560713208,-0.7174552784261852,-0.7116238295359559,-0.20764839906629143,-0.2202650885311905,-0.2003719445693826,-0.284076826673032
-0.6199932060700224,-1.1359764156907777,-0.7569185516384392,-0.7591518290802753,-0.253687684054604,-0.27020697290049617,-0.29722366105664827,-0.3211614184489457
-0.5322637767324726,-1.0828846601816022,-0.6610681385211108,-0.6228833970240054,-0.1644197730058071,-0.1537289492527372,-0.1620091876841492,-0.3054194204539514
-0.5212742888016971,-1.0232230624475827,-0.6611906469839902,-0.6274761409004608,-0.10751885641163555,-0.09713840268819247,-0.10914362583278564,-0.17972260638811088
-0.517835217665896,-0.9944320370366615,-0.6439410503292812,-0.6222529323891084,-0.08214195222783215,-0.091680499166652,-0.10358391343246093,-0.10859343678977036
-0.5720194466632739,-0.9736843148817049,-0.6852330237400925,-0.6670613584803093,-0.1318963101472216,-0.12404976916984797,-0.12670150617661194,-0.07405532359341706
-0.5877087472766257,-1.0123033696836026,-0.7243988236061166,-0.7086960093932207,-0.18591045731376218,-0.19059786505585574,-0.22882956665433418,-0.06075487206028629
-0.5840311713113792,-1.0373886018166358,-0.6975759370371198,-0.6836824904751129,-0.17059638349002348,-0.17837994490554374,-0.19823681069403443,-0.11300495098774851
-0.5075742449566825,-0.9767646164861467,-0.624333297016865,-0.6315418762146711,-0.0695940804763347,-0.07558344765790591,-0.10625494727574979,-0.09958981940681837
-0.5346686892068252,-1.018121083464036,-0.6417017770579982,-0.6101667520597136,-0.11584598963342978,-0.08439913589170757,-0.1002548617321923,-0.08463917380601599
-0.5610286833347801,-1.0434676312164353,-0.6793719263908455,-0.6590920990600833,-0.1430194493814143,-0.10860504936508052,-0.12651495475556263,-0.1469319576839838
-0.572152955480959,-1.0606390536770391,-0.7123123896462858,-0.7171589082377158,-0.19315261804579914,-0.19619581948162096,-0.20509728269330818,-0.1276445776649999
-0.5611800281932422,-1.0846040090864413,-0.688812322552395,-0.66985736524477,-0.14157426588454267,-0.1434088789685451,-0.16066718829884427,-0.08000078394904457
-0.5233075858927884,-0.9864090310415667,-0.6309111923057523,-0.6099714978598433,-0.07185511351804265,-0.06671912396249612,-0.07446747814642714,-0.03306049886125772
-0.5230510883049784,-1.0138968138420366,-0.6467383176294377,-0.6432424315931228,-0.07444916436916241,-0.09460843247803868,-0.11550041768668319,-0.014284125257341762
-0.5559161266372858,-1.013459174470104,-0.6686954829439796,-0.6658822652941332,-0.08132039760822111,-0.11456166736466365,-0.1288988473923351,0.03099395679074712
-0.5908193661105793,-0.9870313386902272,-0.7138897030287338,-0.7195670893348574,-0.1817061122496367,-0.20274586238219922,-0.2275533466548763,-0.06476481440910091
-0.5388716049315917,-0.9604283735220712,-0.6685096704779806,-0.6435771889189343,-0.13020719708803735,-0.162227984524381,-0.15054432483342034,-0.10052793680990178
-0.5078407480646477,-0.910936580847138,-0.5993551221238139,-0.5774700565878422,-0.04840434317130623,-0.07374618589546006,-0.0858477797588551,-0.09259152093984603
-0.49329897847227594,-0.93157120751456,-0.5976374075861448,-0.5806803422997953,-0.1030878599645664,-0.05852065425276975,-0.08473336605203784,-0.06194666848090111
-0.5251142075805908,-0.9616897192221241,-0.6301893744755793,-0.5974598598408025,-0.13139517365609393,-0.10030249607660832,-0.12195585566295808,-0.06570728794082237
-0.5583706799148352,-0.9311032790379543,-0.686284428519721,-0.6724740189188809,-0.15272129278946894,-0.1687287463147045,-0.18765478003522174,-0.06760782680225803
-0.5166135402673019,-0.9369943234207965,-0.6317903111284073,-0.5839477318971618,-0.12761516834164488,-0.10965595583928564,-0.15619614566060938,-0.027126489889617834
-0.4640353583359019,-0.9054475771432439,-0.5649564728761051,-0.5370568174958594,-0.03825837555320593,-0.025288707247859574,-0.0345015812353752,0.0020979933649045604
-0.46681153878975673,-0.9152448337832846,-0.5761109732186407,-0.5285792049858992,-0.01941095563242713,-0.022383545151782848,-0.03161905110379903,-0.007897989638501671
-0.484971127786962,-0.9581621604418937,-0.6033097511834781,-0.5819281888673635,-0.07666192286354875,-0.08313866009253665,-0.08386574690515482,-0.024485432040824127
-0.5251713913890025,-1.0017642847561268,-0.6347242554677089,-0.6226513774075066,-0.12358194815323853,-0.14653707365880025,-0.14453438758205953,-0.05060819922305313
-0.5186481326285599,-0.9689397531200553,-0.6397255221273207,-0.6140944886610551,-0.12478121869329983,-0.12482004204436438,-0.15439521077808882,-0.027629694229381056
-0.4537065482343531,-0.914003541781632,-0.5456044961755602,-0.5127308045023651,-0.019323675355540096,-0.006421390815661128,-0.030970498930363383,-0.017392296548005864
-0.47936517975170545,-0.9481575600580189,-0.5484051674865755,-0.5211197693131648,-0.0498343211565425,-0.005676271386187159,-0.03672956863741215,-0.05186845245493544
-0.48722831813534123,-0.976695622585193,-0.5642734379012628,-0.5299741287221894,-0.027695627337466316,-0.036310128624201694,-0.04538291720028285,-0.08007563343554835
-0.5322141754092723,-0.9400039807681523,-0.5985124696867014,-0.577159579272637,-0.05905409216964367,-0.0662361902295369,-0.0959143546777508,-0.00628665142706997
-0.5452559223109332,-0.9160286731326219,-0.6161703531030014,-0.6374825767008676,-0.12082721343279396,-0.10758619427124078,-0.15217372857798792,-0.003948068687243343
-0.45806075019306486,-0.9186816744807852,-0.5295786302585874,-0.5044772326286161,-0.027273441071237636,0.006370625117657171,-0.04568069256160195,0.03989407592981255
-0.4588249665530895,-0.8762841211672645,-0.5378653679174726,-0.5086293739619586,-0.019436957314997127,0.001610199545928284,-0.013763682696346199,0.04041821134899249
-0.4732322866021362,-0.8288081451505386,-0.5366487368287215,-0.4987717812230997,-0.014345016477803797,0.009310036550313107,-0.020295096137188585,0.055488130014999734
-0.5061562189318207,-0.9073911814699286,-0.5673689473019365,-0.5602950846614462,-0.04268795955933604,-0.023786211831307625,-0.08460924590881405,0.03105729710635249
-0.5175982744355809,-0.9339728686694775,-0.5906939871867541,-0.615195717891578,-0.09370101746467992,-0.09108514518643133,-0.12836420915573823,-0.021023691874519697
-0.44441791836969946,-0.8396629182309275,-0.5121098829802463,-0.5133669226975732,-0.014885523494850563,0.00890783392353428,0.012105143554347407,0.012911671336514201
-0.46876443869717077,-0.8382483275242638,-0.5088085556379394,-0.5016887277236668,-0.0098820322893867,0.003022998570682501,-0.015155334999164199,0.009926867411387628
-0.4549097724280325,-0.8319307725197626,-0.5050749786489419,-0.4977560956652284,-0.020070708615540597,-9.793624693548509E-4,-0.04312836831554005,-0.009906868273288636
-0.5031185890073339,-0.9017561257987414,-0.5760223181057486,-0.5919769537756225,-0.09484551265372332,-0.08121249844308391,-0.12241639846250542,-0.0639710429739914
-0.5484122560604543,-1.0213433935896095,-0.6131598424655558,-0.5958515839285755,-0.13456334232492598,-0.10666093536872889,-0.16127611567353084,-0.09022540624284686
-0.44748333562139636,-0.8993474462262835,-0.4919323518944313,-0.4314286758008888,-0.008952119460758117,0.015393323441807662,0.011880676587628756,0.01137331098234177
-0.43294160700758666,-0.79211464059105,-0.46341260337993767,-0.4754896178531648,0.04832510521972772,0.053791927883975806,0.03615160847011532,0.09490859031054412
-0.4520174285932225,-0.7901126645249753,-0.4884054019093975,-0.46209361026298007,3.3418502477370346E-4,0.04796369079180118,-0.018970056492926133,0.06763412970904893
-0.5004617892723041,-0.8654544842394672,-0.5432512102194497,-0.5349670547541525,-0.05568241180954781,-0.05547859197121462,-0.0700839857072164,-0.03221471196187506
-0.49447249695626233,-0.914514890880449,-0.5464946634889777,-0.5253573738671333,-0.10783149136254158,-0.09322740133855607,-0.1177054015994971,-0.09075421695220319
-0.41696842585373745,-0.8755307553779492,-0.46001037335370043,-0.4086334262909569,0.03627152953699532,0.06104055133530681,0.0357812023427114,-0.04139322227123892
-0.42478756479306956,-0.7856338122844482,-0.45514249126365103,-0.42748083978003026,0.029629128599113135,0.05505113800515806,0.03733150998625317,0.05238182175160101
-0.4303551167194958,-0.800026697953497,-0.4826298711300049,-0.4546757173611529,0.029457933856131945,0.07435145856883074,0.04219889152619657,0.1049883288636245
-0.48409932709989867,-0.8133959721828298,-0.5134602725643028,-0.5006177808939697,0.0107205071876238,0.011539799293749854,-0.03372475357619743,0.1826784017954017
-0.4625666770273524,-0.786304600384839,-0.5073525146981013,-0.47849154944675437,-0.006623996960940785,0.0010379209975927967,-0.006448938132983968,0.1267591533589465
-0.39314968238017167,-0.727347240933726,-0.4447561689876151,-0.3811984055041498,0.08446723674461226,0.11326806444696871,0.10172296681740889,0.1623676754287223
-0.40723584989874273,-0.7004517539120048,-0.4227162801230453,-0.3804377953820118,0.07770354944627496,0.08776322444791178,0.08446389592537905,0.12794260416658992
-0.44078594389928477,-0.822238388909738,-0.46148140670240617,-0.4392855230898083,0.03993477986365086,0.04883318270040317,0.024738873229420984,0.057587083003267016
-0.47295126561845086,-0.8839339405413899,-0.5159114968847871,-0.5048673632247052,-0.06248223783915409,-0.03292262671348928,-0.06917387864633916,-0.01466755716510442
-0.4087496072919275,-0.8466645936005639,-0.44842972720409363,-0.43730840484489863,-0.013227141410317746,0.028110723966417214,6.554327731445108E-4,-0.09643222023293829
-0.3801100138116825,-0.8192280362454563,-0.4173173789214754,-0.3758379591248766,0.046069303374790684,0.08376629173606827,0.05546349340657318,-0.025161815782425195
-0.3812329732692917,-0.7771174784002441,-0.43162230376778354,-0.40260243135523005,0.06161511456914674,0.1163237015082736,0.0935136405889224,0.07790313510666495
-0.42492871924397935,-0.8136372037810476,-0.4442012985124601,-0.4593984498508737,0.04364307948039851,0.058385401180725424,0.024256346568293858,0.08732787382069236
-0.45674893776725883,-0.7721301068969407,-0.4851810801216457,-0.5162838231549854,-0.008946610420183491,0.012050760205357437,-0.008472237312125283,0.12324909820178828
-0.38312846533484635,-0.6868488886981939,-0.40258425302936846,-0.3768111391402301,0.06649592745064599,0.11608613336423335,0.08818387459079416,0.13081313828918223
-0.33569010078156397,-0.635439952800581,-0.36939940872129107,-0.3384268036544333,0.11982887315630372,0.164280930026303,0.1454362112009513,0.18110233263351233
-0.36124413801981564,-0.6221084517535425,-0.38598092400716194,-0.37384073934066525,0.11553494670708438,0.15736718816125173,0.11194785009811967,0.14442433649145728
-0.3989847933055123,-0.6800378494893984,-0.42002075847004394,-0.4205677596006594,0.04673844452786033,0.12097859845182526,0.07589364315486123,0.1261177565729041
-0.43543291530691713,-0.7574441139895245,-0.4734946239881929,-0.4881241372162313,-0.0239125023217254,0.03485541786557153,-0.026165107784460604,0.016719060979064313
-0.40619954813055664,-0.7959196488920942,-0.4398593177069525,-0.43286672867385484,-0.006355997167122499,0.021371142386991705,-0.019523299138017026,-6.129684002710788E-4
-0.3506261533304125,-0.8154879216925864,-0.3874668219051946,-0.3439879878456374,0.06786084914972329,0.12590028930540428,0.10164643180182469,-0.004202628545456212
-0.36766140085429844,-0.7840993192058401,-0.39152905194533,-0.36383977401984285,0.08946938772788618,0.13277216855341548,0.10116627531341632,0.09460600335419439
-0.3891430189953017,-0.7517742143142806,-0.4091206956458286,-0.4087208833189271,0.09644518738816807,0.1050833873612054,0.07351684223680645,0.13081126982293384
-0.4172110916169885,-0.7552322883725427,-0.45724582411526293,-0.472743719076914,0.026015019454744156,0.022456659796872672,-0.01566936276392729,0.049161502064802104
-0.4449748230998658,-0.6696348419848792,-0.4703792126255788,-0.4860621871968989,0.010996145908025692,0.009696474952999766,-9.457644030811779E-4,0.23298213131456558
-0.3643789293797481,-0.6525694458221574,-0.38835211834421757,-0.36342564331351157,0.12103582822816826,0.12959962874472888,0.08623588915648042,0.17828118568984944
-0.3663949640844094,-0.6924063876153451,-0.38897366926571086,-0.36874909567969383,0.11911309228424954,0.14372626685674017,0.12350923957113152,0.20139348852023703
-0.3808827795286298,-0.7125384766677878,-0.4160568948821235,-0.3737096091160756,0.08804240172794546,0.13612186401621498,0.1202947845385762,0.19841757396678017
-0.4221546965179753,-0.7498711458669486,-0.4649973766043556,-0.451456791742174,0.005675895389581337,0.051062669023774196,-0.0013825375067491963,0.12262627624768213
-0.4640220139571042,-0.7754486553395175,-0.5066702308498284,-0.49354970266525255,-0.017352739796951077,-0.02924508837793931,-0.04579506150591326,0.10635325520762284
-0.34766594067392353,-0.7089529875423528,-0.4070892032657875,-0.40081395451334484,0.04367007901104169,0.07049236977326022,0.037957267613971314,0.09377111353798326
-0.36729729600582384,-0.6827453022930591,-0.4126050172354243,-0.4035610954089815,0.02236887753569182,0.06208272569331442,0.048104476690685564,-0.0812035341587636
-0.39293830408245567,-0.72234485904514,-0.43245627637412853,-0.4008276291418831,-0.06376267948361869,-0.034742563945881474,-0.032082671973699683,-0.24771682125554342
-0.40440966669975065,-0.6699614096437124,-0.42860997139018936,-0.5045707997079768,-0.1058727152864256,-0.04327648458547907,-0.11579711996979383,-0.19887307356752618
-0.4633075020931046,-0.6189083264111349,-0.48667553052352114,-0.5828922445220265,-0.10277957748911472,-0.08097255493302952,-0.17652950556363797,-0.1791287355359032
-0.3650079489527656,-0.5397544036213617,-0.35961933342815655,-0.4375298748757256,0.04592754867909156,0.05019513664411889,0.005162984816548146,0.004606170140532439
-0.36149588252823894,-0.5172881535366549,-0.3562201206930706,-0.4060869017713503,0.035058856126554516,0.09627236063217741,0.05322269656804672,0.019205950892314888
-0.37325181923391293,-0.5705790291730443,-0.357975312850878,-0.3998996991341755,0.07515814025437505,0.10097964160935545,0.05205572902663076,0.08572546421932632
-0.42375447447844095,-0.6668671150195641,-0.4359706776803382,-0.47510767509634066,0.022789871326613798,0.051639986990258166,0.00408030388882862,0.07974547149773406
-0.4775476415747055,-0.7398251829970294,-0.511539150499768,-0.5714067783331195,-0.07803816022732604,-0.07681692770491635,-0.15275727625751684,-0.09124767147630558
-0.4097796148160545,-0.8830122134797482,-0.4566501973930266,-0.4940482677739462,-0.09850202468851285,-0.09467793502541377,-0.13126393279663517,-0.3114945161164754
-0.389879667102706,-0.9349409902166511,-0.4296328949072971,-0.45354617334028097,-0.05894409582949175,-0.02102100119368026,-0.06402651873313503,-0.3603715327098379
-0.38748000192730475,-0.8501296881330469,-0.4239308436216316,-0.43682141825440113,-0.012164685962912902,0.04131739408352542,-0.026016786758544352,-0.1438291987049262
-0.4076215995219608,-0.7909755528896457,-0.4519128050608405,-0.4838548199069851,-0.031144087845824446,0.029314368570693902,-0.0439183256169661,-0.019931311778851893
-0.45735924968431224,-0.7593336445342677,-0.5021361548171579,-0.551302095407384,-0.035285250179357124,-0.02921974567445177,-0.09058917353038252,0.0931060002614958
-0.4272613813232877,-0.6726594836946883,-0.44130839448796577,-0.49791534221574835,0.005776569713409662,-0.012604247583017624,-0.05480098420644185,0.08661939566253535
-0.3652208151529873,-0.611756979958232,-0.37763242074510817,-0.40882972719018723,0.09848763898923174,0.10465727775305132,0.07198067910113572,0.2250688234859695
-0.3617566852019092,-0.5690135635632873,-0.3852593389492514,-0.40100872935750914,0.10902200314319972,0.1073730421904996,0.10090289844225774,0.2952911073714005
-0.4059036168064768,-0.6027507587067195,-0.39859842892020614,-0.4428848192271507,0.05111991039170593,0.0742565271772453,0.010263067705626223,0.1660346223845633
-0.45892649409160535,-0.6962067729298596,-0.47421469583720904,-0.5278695160609378,-0.02598308154016619,-0.013766987519940608,-0.07995358815458813,0.09658718617139064
-0.384078454601246,-0.6363495186780072,-0.40903577401281843,-0.4729715769983758,0.04247663464535796,0.039612843765942374,0.0015856485101801213,0.1904592043282148
-0.36560318998400315,-0.656720765672377,-0.3857334057115951,-0.4205332517799207,0.07940005073809751,0.10659324315812954,0.09869197088676972,0.20328554559411302
-0.3969301322733118,-0.7131612057526454,-0.41114878980687425,-0.4286326451087548,0.04025913130575934,0.0478206497476552,0.02126435687042474,0.06495795506002995
-0.434463892760244,-0.8512416580398502,-0.48243742365490594,-0.5306586915153914,0.009158231738065228,0.008544303427031016,-0.05567707011290541,0.005661298211336045
-0.48689394695985344,-0.8680915974004122,-0.5324002867047261,-0.5899197335239954,-0.052493073087306774,-0.05795114207775001,-0.09738960804538012,0.024532459020255155
-0.410680186038516,-0.7850692535780691,-0.42448740039449945,-0.4547510467729058,0.029599113606279856,0.03633508923163563,1.5341790935703524E-4,0.13166490205871592
-0.374956043030624,-0.8157397347852245,-0.4009313260421924,-0.4092898502392378,0.060265052854844375,0.05753122440026481,0.03959321714303756,-0.032181662851096485
-0.3824637951261256,-0.8075635412395052,-0.4186516023614809,-0.4022692562950971,0.01740418075292192,0.029333521786192526,-0.0013040707334778627,-0.08086212411088854
-0.4070760761685517,-0.7338085956906014,-0.4444935689981329,-0.4438358211477873,0.006984193417485593,0.009430780362266657,-0.0394128436211635,-0.04224532974419306
-0.4367225924228964,-0.5939633339585965,-0.4573883379762369,-0.4803851544342029,0.004565375826534542,-0.010319163212793877,-0.042847836179896084,0.16646561762306777
-0.34705874646490054,-0.5787136308196873,-0.3678846366868321,-0.34423901360720965,0.10270529443094294,0.08675037273618476,0.08250938466015802,0.23185407336132755
-0.339196148379271,-0.6114443275382856,-0.34369076102525137,-0.3411096909836162,0.09610051544968667,0.13058218244069025,0.0959581964412968,0.21603292054098164
-0.3478912005907096,-0.6256704401700882,-0.35084541518139545,-0.33804318408241074,0.11836208693667297,0.13992850665404116,0.09653213814346767,0.19922159269309955
-0.37550136119388244,-0.5698477926468769,-0.4207379530527187,-0.3915179160763841,0.062462657943120635,0.06754413092768527,0.03241042917636071,0.20654537035966933
-0.4369128357096775,-0.696076109018369,-0.4481976589452454,-0.46924554761152165,-0.013884795971769143,0.004096819561021681,-0.04864791054315354,0.1576418016980831
-0.36060955604009803,-0.7201161114633913,-0.368860837822212,-0.3575422460582406,0.024112520748709586,0.03725675905242638,0.029587679788341502,0.03158133196524657
-0.34606728496369865,-0.7251914121250761,-0.35372289691356573,-0.3499335303890162,0.041247775673182066,0.06578827494408528,0.007181081666907375,-0.0020570227548032598
-0.3594799331405718,-0.6961462595599456,-0.376208448141005,-0.33416219502470984,0.0452863875512881,0.05894503234468562,0.04409526232826309,0.018854270299586074
-0.3876161474512746,-0.6607474329464031,-0.3978054536337085,-0.3862764182338196,0.012114641186114073,0.0361335304180422,0.017668057791650104,0.08960257729290116
-0.42768922206561627,-0.7016574789922383,-0.4437568228296006,-0.4671045255150392,-0.03236014562095599,-0.0287903912972122,-0.03827613161885545,0.10142406100625276
-0.32645308042188625,-0.6543954552243733,-0.3450980425103704,-0.3306215948667963,0.06650454710305469,0.0968265012424765,0.05620673139909451,0.052386747550516755
-0.3380605255122709,-0.6633853660489819,-0.3541516463765446,-0.3386955977349747,0.05693965871969832,0.08605035554105885,0.06119564982340735,0.02073548647367827
-0.33753036909652,-0.599392896861422,-0.35988511077245966,-0.3544381336701643,0.03610888172144007,0.09803732839377477,0.055561692418110174,0.07680180280346988
-0.3906030875287705,-0.6143422912450411,-0.4029169220002897,-0.4163515610343707,0.02741259030431052,0.026002224263226452,0.004344610295411425,0.08995136120401455
-0.42338188074375893,-0.6124542705915283,-0.4293229762906878,-0.4402772869715866,-0.03781322937556729,-0.02666728940463926,-0.06822675144296485,0.1035176030377553
-0.30472701919636236,-0.5947978886554451,-0.2876711262459095,-0.3012086722246414,0.08724402692041777,0.11644140676548184,0.10160409729041356,0.10096500909874673
-0.29894637905518456,-0.5607158772290393,-0.3043333814411389,-0.27829257736911917,0.09152074521473061,0.14813091448947857,0.11982387539488323,0.06507834086653658
-0.32392257606870073,-0.5881630102308881,-0.3169297166210173,-0.3164914239982765,0.0988462691027629,0.10808583065575411,0.09720339430352742,0.13747283861521187
-0.3627991275002563,-0.6288194737974071,-0.37025191637874305,-0.37038180929730063,0.017964094251099738,0.02713392678818922,0.015295053566333493,0.05843444713354519
-0.3864938911239436,-0.6666590763009023,-0.40343232622149233,-0.39467605311501985,-0.03493429572918155,-0.0107761501186634,-0.06156663034561979,-0.09250420281167145
-0.2817266122269959,-0.6416111336649946,-0.29701835513942193,-0.2604928581465663,0.05881004912908395,0.10209435206132185,0.08914843380454629,-0.04429148869236369
-0.3051644118218951,-0.6599626497537181,-0.3268987321765176,-0.29155401754444876,0.08900710373526959,0.137023038707597,0.06117546440764721,-0.015207368252679838
-0.3218768763305618,-0.6152998617930511,-0.32969622644853175,-0.299673046139028,0.07826814725070895,0.08519102485654698,0.07148670889789142,0.06460471268415936
-0.37021510100721383,-0.6024442305603909,-0.37800768482406877,-0.3566160950001455,0.05602328288035806,0.03849728245610703,0.024469641100969153,0.15408839282019562
-0.36393651031401253,-0.6580863717583614,-0.3754081433662484,-0.3520271791723361,-0.0020795820479375554,0.023481126044706913,0.007168939685689861,0.07565021208584835
-0.30266365883775465,-0.6412611246548995,-0.30685156063604546,-0.27684995101744897,0.06619441731386855,0.11314009017188816,0.0581911801478068,0.003455516884755734
-0.30775643311880985,-0.6725555575237796,-0.3315702298943304,-0.28248868332735194,0.05546935795742541,0.0798427119237737,0.055304898933988544,-0.008045706210485112
-0.32888512356919175,-0.6686295737073127,-0.35187962988272686,-0.3047119240416722,0.06991642901286213,0.07568932910325486,0.04675349446465868,0.06958106611549893
-0.3726989525995462,-0.6921811251517753,-0.4000109518637896,-0.3657355441790752,-0.01927901779655654,-0.0016712752105149528,-0.027990876824754304,0.029162036847317035
-0.3105467834235744,-0.6570075316860755,-0.32370271861530703,-0.25290412574327276,0.05767600091602909,0.09917053900727563,0.07210822767384573,0.009445285051903523
-0.2776902086133082,-0.6497325164961033,-0.3080552558682073,-0.26208547633502116,0.08375395693989686,0.11284402133469171,0.08850523708532611,0.06932189833651349
-0.30644261870550393,-0.6120786475812223,-0.30983872352738784,-0.2754530227321921,0.11367510356268908,0.16057272635968833,0.12584557297069435,0.1275909420721312
-0.3421371041842206,-0.7084266883187657,-0.3645978480976598,-0.34391428430037135,0.05991287038182312,0.08676726449556885,0.044833599266070806,0.10305229298926945
-0.3852981454793627,-0.7658404458898826,-0.3969325638844656,-0.38158247392136146,-0.004250419378677876,-0.003808522085447138,-0.026962849514296297,-0.023298172977454783
-0.2747144048832073,-0.7222161599848232,-0.28799806364093566,-0.2311853173891568,0.08282250779986153,0.12232065982517382,0.10200659192005773,-0.02649505514946884
-0.2964457719328073,-0.6536233144141026,-0.2977189272251353,-0.24935360672132917,0.05672841069841432,0.107849073572255,0.11320900333734693,-0.008902022027765839
-0.29356618096675047,-0.6379644902888378,-0.3288096784966095,-0.27141768178234993,0.06787891066592518,0.11187542328555546,0.08082130984404602,0.04333537780863954
-0.3420637853460614,-0.7060965604310321,-0.3862363891069256,-0.3367708768982532,0.02300598942884483,0.06841009803838542,0.014974258528803906,0.022459171619221445
-0.3555793594406356,-0.7140055742032526,-0.38192135904830377,-0.3380026284584166,0.003174426469199422,0.03669340095711673,0.024517235206432144,0.03044401843931103
-0.26718030618209276,-0.6327391603940222,-0.2676918956638491,-0.22481053295691478,0.11951935462814811,0.1733011782960303,0.14235211912612752,0.12380081663435037
-0.2775072384699835,-0.6719553703938502,-0.3118921461317481,-0.23978659501411742,0.13105240699824455,0.15566183625393945,0.16310593759632605,0.08982419922974284
-0.3091388040820555,-0.7103219300826015,-0.32119604045254224,-0.2931078941981237,0.08717476350352993,0.12197710145335407,0.11455979648051362,0.08768719667522126
-0.3608106283050515,-0.7645007438004113,-0.41374400543993944,-0.3587909255477749,0.006547539478963538,0.04873429861565179,-0.024834961698258565,0.004656403351192932
-0.3805548013134946,-0.8216842550835617,-0.41609354899023393,-0.3765247039143396,-0.00949006491687087,-0.022440426264030536,-0.016850928542662076,-0.09211594923060992
-0.25996675623975607,-0.695013704478603,-0.30375749571987015,-0.23781138918297096,0.0864217916162457,0.14253328579618765,0.1007354513275845,-0.011258425420558901
-0.2827774113878705,-0.6684983598359906,-0.32696180593811464,-0.2590610558618941,0.09436167010174888,0.12740774193006918,0.11861983241420541,0.07026603441286197
-0.31854389003872524,-0.7112881109192456,-0.3396554093555623,-0.2869674696961524,0.09326169709037561,0.12548182344670497,0.10043859458070177,0.04541478155080001
-0.3505064742846531,-0.7259822922928976,-0.3950494722690984,-0.3777194463164949,0.01967305965875581,0.053961988908371866,0.025053981202637302,0.059949081870226795
-0.3298695923031471,-0.7044165440201523,-0.38019535900837714,-0.3258110090470109,0.053220648588750544,0.06701777869835217,0.049861462640263865,0.09934267494603054
-0.2761358578167334,-0.7131507871087234,-0.32400840101858835,-0.2746584102444024,0.12763594088042413,0.15699291209544397,0.11086618865852578,0.15209814729308646
-0.3101179588306828,-0.7549256793026292,-0.34713751192987413,-0.3092468270662243,0.08867355145128562,0.13401453926989323,0.09010994587862707,0.07282010398560085
-0.36102827081664823,-0.8290213369861832,-0.36590009938930507,-0.3587843422590042,0.026920339367335438,0.06412476532584054,0.04936630629491455,-0.028479782866893046
-0.39241132698121645,-0.8464569911211183,-0.4479586042199085,-0.41770795284454865,-0.032380569185460915,-0.017078779875403835,-0.04210547324831294,0.020090786179652716
-0.3060571294178524,-0.7681713421248374,-0.34119449539270164,-0.2996806278024513,0.06591919550134408,0.1106146201320019,0.09972635554853515,0.12105603532835832
-0.27984470496023883,-0.7067988515169548,-0.3148567020511394,-0.28494394370379184,0.10930547620794766,0.1485025486450762,0.13951446613564658,0.17248653799613262
-0.30244227817132036,-0.7458612011408515,-0.3401322468211588,-0.3000570637564748,0.06816034596372351,0.09301430887053787,0.10144879620961075,0.10187473243445062
-0.3510852879115098,-0.7462993953680354,-0.37955970324545135,-0.3446289751904525,0.002134306646898151,0.052197035507651736,0.04140706554167957,0.08189829284345465
-0.3492723461910692,-0.7031997026429982,-0.38638263747433854,-0.35114339396031763,0.029901492087387824,0.053381488193084185,0.018392937367941103,0.12982296370834995
-0.2614521255502515,-0.659058871325154,-0.2723965337167733,-0.22879516718581625,0.14256762676660675,0.17925314017633728,0.16289043260446706,0.16632541728713882
-0.27127691214226307,-0.6605377394476181,-0.2945281598524439,-0.25209522871530904,0.12009339364026617,0.14966330359877297,0.15369110822543683,0.18796554259842338
-0.31146076566620967,-0.6856815376132713,-0.3340470765980221,-0.26581681657490197,0.09235285168294075,0.12579521441665995,0.11522991965235137,0.1290745314360281
-0.3363263226677698,-0.6966544628948376,-0.3702821637744183,-0.3160051882410949,0.047545917476394466,0.07198357690999402,0.0681752462484855,0.08891430282972948
-0.2388093838275322,-0.6349369871308305,-0.2794039679492914,-0.19135662485759458,0.14759904142510571,0.19025494031578255,0.1853154706853943,0.18833262010037802
-0.26619449584100807,-0.6246217951650126,-0.28879107816076527,-0.2255020704351591,0.12592316978770382,0.1874391524452613,0.16998869511355813,0.18100428828019796
-0.2856270776902589,-0.6945649873908821,-0.2924468020959263,-0.24111382182051044,0.10045404165752111,0.17591855027577563,0.16234888400244865,0.1472723955565517
-0.3164951239480492,-0.7446717247468436,-0.35978580388441156,-0.31236047829887365,0.07580843634337063,0.11013540747703167,0.07581841469584227,0.15548627150774247
-0.2584015914107715,-0.7522545164404336,-0.28471298758110614,-0.20442641074558893,0.13196970150174026,0.17533689250851642,0.18858802953011594,0.19734642376744163
-0.2484034383839847,-0.6829481375907691,-0.26334810991319024,-0.21318105520518238,0.135791230535556,0.21593887609914658,0.21862250628927307,0.1333158679458982
-0.2669804233222305,-0.6344574626390964,-0.2727274100726649,-0.22440566782496874,0.13145860611316892,0.19681308664580796,0.1989351769521953,0.17038593345378714
-0.31879765077267236,-0.7012963595979467,-0.33692762255788095,-0.28505621671480486,0.09294154293156785,0.13510456191133752,0.13043949161699817,0.1741930373920615
-0.303949712211811,-0.6905852819874694,-0.33429912363094755,-0.27345463342261317,0.10699767484062264,0.12268808579318119,0.14995309826464076,0.19336742611600105
-0.24003953226845576,-0.6341543277641163,-0.23719164835983414,-0.18307870014800107,0.1877339385039083,0.25304275094421963,0.24315232431716605,0.27416563409530864
-0.25402847775531695,-0.5632332686309988,-0.2633042226171566,-0.1981008459356192,0.18750450884358472,0.24193353557279723,0.23769355588682864,0.2949703283076908
-0.2787396327267642,-0.6194414900389239,-0.3076106168738519,-0.25681131785529726,0.15718362494126992,0.20101176269152882,0.17880811189030837,0.26291766010527123
-0.3208124103476568,-0.7217583331700063,-0.3530746942172583,-0.29068326220917134,0.08736562658899714,0.13845889604266823,0.12500524194528015,0.18220994238978877
-0.24772499149418747,-0.6289188586955367,-0.23262714085818734,-0.17796979710030517,0.19258391978871714,0.24525057540137465,0.24452317751210523,0.2645423397492945
-0.25755495283525726,-0.6217817348674182,-0.2752244319120921,-0.1946436874025424,0.1816359208306827,0.24745077500401788,0.2480843754565237,0.27983434757143033
-0.26080825243360195,-0.5804450997807695,-0.26612622969582417,-0.19454480239900412,0.1220004862055734,0.22323431488475753,0.2034743247582654,0.19150738672168396
-0.3111992791735719,-0.6872744820127394,-0.33210690158682993,-0.27715876095423364,0.055338281146373035,0.13573438674472743,0.09555442052123356,0.13199790309191298
-0.29155985980137034,-0.650695161618968,-0.3095253659230903,-0.28000648674155776,0.07507664548237643,0.133272144687388,0.14669035999859495,0.0959664358756664
-0.23684808918449948,-0.5481260312068735,-0.241078775957426,-0.17452032456788769,0.14670945762915957,0.22630253735038477,0.21467037544744222,0.12817415098150026
-0.24587815927186102,-0.6196211314015294,-0.270551015109795,-0.20789196627546128,0.10954231125989769,0.22827857888022282,0.2076073724517256,0.10886019575946784
-0.2838567349417854,-0.6980720856672606,-0.29132089087273183,-0.2469347785398396,0.09829670646783799,0.1656315200286083,0.1766339202668057,0.11693509289574235
-0.31763469907853464,-0.6662474211187535,-0.351459440430831,-0.3071106687766112,0.05803750272541723,0.11622100049814545,0.10425588328005048,0.1424626129643865
-0.23947111830829568,-0.5686792336674872,-0.2596090567295861,-0.18867084042584553,0.17098608312714073,0.22104886801541,0.22879404487292582,0.21971396185714306
-0.22417847159708448,-0.5534228088533122,-0.23305457425982842,-0.1940548461219946,0.1780793232963092,0.2757609772179081,0.26501205333469,0.24634621782651905
-0.24686252208148365,-0.5790114901182812,-0.26133448680888277,-0.18763943734514438,0.18256853534018838,0.2510929401591271,0.26024079681574797,0.22348884206822484
-0.28541584483530924,-0.5652963917510835,-0.3035173058431822,-0.25976169381375763,0.13629816062179903,0.196235517682242,0.17954607417451515,0.26353868898018323
-0.33432815921459175,-0.6121578611610391,-0.3736131594848407,-0.314449781665812,0.06433866270633648,0.12322189251363518,0.10427904343524122,0.18625641551428782
-0.24895881229918734,-0.6543571869087067,-0.2616848605099139,-0.197834318190753,0.14473417766496827,0.23198234296762152,0.19892635586095325,0.1494496463313765
-0.2752259406478901,-0.6660525594737191,-0.2727879367960706,-0.21400456720644437,0.11402385459120455,0.2163693114322475,0.2116918223545966,0.13481099757051598
-0.2608933607699923,-0.6190200075328036,-0.28834521255381274,-0.23365844809450972,0.12178692761728341,0.22265050140811313,0.19037088423066703,0.16764161156529284
-0.3356893348292107,-0.6095402103878479,-0.3324144134931979,-0.3093112490803563,0.10549365760135794,0.145298291599118,0.14737467131439375,0.15827894816814964
-0.3239476482189892,-0.6552849304228225,-0.34427265117690575,-0.30510232703395573,0.10251538631455832,0.11125308923011128,0.1312007215952964,0.2212565890359528
-0.2510200623497304,-0.6427128954756365,-0.2654390386643142,-0.2182068915288045,0.1603246485596406,0.25387141782804096,0.2606479913961751,0.21602841257646244
-0.2943093523744318,-0.7040977103811482,-0.3002533676032767,-0.26272747039323635,0.13791893702197322,0.20167240178557,0.2281465892370888,0.20696924225674457
-0.3084605853506629,-0.7813099259585295,-0.33145040755918337,-0.3041547864642923,0.1018038615344487,0.1611592116171241,0.17518484793641556,0.1384280050164123
-0.34438061596302383,-0.7647359515440105,-0.4042621068935649,-0.35128698411962905,0.07134018184074704,0.09251010278220301,0.09739308415157567,0.12294492121081203
-0.34224839293275416,-0.8183622467873259,-0.39225002362672723,-0.3310605499955652,0.07081927449915933,0.11214228920926848,0.09025683644722447,0.05979942722098796
-0.2916598787603478,-0.7368279678408677,-0.3005758103410015,-0.2511421704311807,0.09950439292634307,0.1738947187996588,0.18032568535242552,0.05597092923650449
-0.3045037915418822,-0.7087600974532822,-0.33816382960165453,-0.2688694100387623,0.11376108228521864,0.18257260961245908,0.18425929226013957,0.08253859737318726
-0.31720001189635294,-0.7047767426693485,-0.3306346047517457,-0.3086268164926785,0.07760886969118914,0.13114220066960575,0.158045540101784,0.14580711418396186
-0.3642059178625995,-0.6271769545022762,-0.38550863752089626,-0.33726692110724965,0.07967899135815935,0.10013717616037382,0.10106339523927271,0.2478934006973877
-0.31322125179179283,-0.6507167735035168,-0.329252560229111,-0.27347653262972577,0.09478119233853402,0.17814017871912022,0.20182628717447268,0.2072025088309767
-0.28704600558863325,-0.6845268258364822,-0.3380997703953215,-0.23413133194314045,0.12175187739228206,0.19868573526908268,0.20363995578339833,0.14014370324263137
-0.3123784203778665,-0.6938244334703852,-0.3292527716174722,-0.2561729244185127,0.11919450089173682,0.17947206151363615,0.19010076421337402,0.15866423275463062
-0.3337512790354813,-0.5860942569949411,-0.37215766038028286,-0.321494509547528,0.12338432707720622,0.17482184741009987,0.19505115949854188,0.23111093923352985
-0.36618641681035,-0.6210353572551273,-0.3789619911457366,-0.34242479219473754,0.07920181840699751,0.11301313611826991,0.12747576600501895,0.17966641334418584
-0.28328904108280184,-0.6364555607262309,-0.33304300412839166,-0.28665098619267876,0.13073228062466194,0.18803540354379164,0.1930392621305303,0.06410177297353695
-0.33513276600281233,-0.6693707774735641,-0.3636009616210234,-0.3178613633380853,0.07558482370795115,0.13093258431438695,0.13106676031574405,0.06101048897216631
-0.32476596864955243,-0.6726071672522819,-0.363801607191917,-0.31183615063591513,0.09025983627952128,0.14996899451560786,0.1528462026849184,0.09953958561646344
-0.37440531564212354,-0.6600486482841812,-0.4086870104658549,-0.3922682517582599,0.062492927202556746,0.10411270957073138,0.11049204704354558,0.14031904613195592
-0.34421375172565444,-0.754482614392908,-0.4062527037778147,-0.36228518180555597,0.0865795625555408,0.1239317922016568,0.12623237246707064,0.14851283973206444
-0.32194928783968796,-0.8142699278094453,-0.3675149453365437,-0.31208445920560385,0.11437384066607682,0.1979416666503195,0.21087018814234623,0.10581722498244255
-0.3329686460619671,-0.7825082625966716,-0.38028019577970334,-0.339053780320904,0.11660013703925912,0.17831455546630354,0.19676774798696894,0.1412666247046859
-0.36775186141992994,-0.6765262895015753,-0.4154340299691886,-0.3640907131122206,0.12028861116970989,0.16555290304752202,0.1648409335616001,0.19301116029929535
-0.39171437897611844,-0.7176449186245745,-0.4452914567835993,-0.41384308484489396,0.04542911573768584,0.08858115389930532,0.06957690946302407,0.13207078692307112
-0.320000422029142,-0.7281332606745536,-0.3839815988887891,-0.3251047311371779,0.10263091907569494,0.16857282005676386,0.17188635785897644,0.06686242999598196
-0.3309644811779675,-0.7115587775627248,-0.3654335729044293,-0.3213932910681922,0.08419168824516565,0.17113241650867175,0.16631916532104915,0.015344863307972804
-0.336320463265375,-0.6999778850729368,-0.36189680060655555,-0.3209966787929884,0.09924928348049528,0.1735781953758341,0.17515835460604245,0.050258832686310526
-0.3712577239778838,-0.6792464863357378,-0.4197961774435281,-0.36008893891386395,0.06218139507502216,0.12241103734750232,0.11494807211539453,0.07870445334621995
-0.3823582043762048,-0.6806904804741531,-0.44556559679112573,-0.428722435501148,0.04143118938551488,0.06831813755776157,0.0731485618062974,0.08603914608033118
-0.32438224130645177,-0.6329161886023384,-0.3447584294084186,-0.317852286640367,0.11309782180832784,0.17503120103695427,0.16193722204176775,0.1196321341086314
-0.30763899256564037,-0.5666323406844542,-0.33972384812697515,-0.33389086815757985,0.12654880410159153,0.1795725942171291,0.19787903011776706,0.1066068146227376
-0.3140627792186282,-0.5431701426789513,-0.34704829636708506,-0.3349756219444673,0.11811922661386028,0.17826843513206686,0.1503778624303912,0.12493690253740189
-0.36543720046293593,-0.5161776400629463,-0.4057004348126739,-0.362965676725981,0.057265549555540876,0.11808192147603978,0.10272780596916203,0.10122840324403418
-0.3665868841702761,-0.556816059875955,-0.39402013991184087,-0.391347833752036,0.03976303327616521,0.07226694481813346,0.11658647965750686,0.009557902894276679
-0.31762192244715787,-0.5883755203435752,-0.3531897619877431,-0.33925732071307696,0.08223251099654609,0.11641718532748045,0.1476836045031677,-0.03403754002411323
-0.3280962643787838,-0.5519049859965179,-0.3763944230172242,-0.3680138825363757,0.10386290079055407,0.14329758530804357,0.13543322989966075,-0.001164177481756912
-0.33563706581686714,-0.47779632799966465,-0.3831213102982963,-0.36838999102095205,0.0629726721389343,0.12230479184480463,0.10875319931622489,0.03997853040260297
-0.3845168531208096,-0.5821857454291004,-0.42334285379396663,-0.43833486796642435,-0.010023868193648719,0.05715138300363856,0.04465917148214088,0.013319657518529121
-0.3249618507295744,-0.5225740700587699,-0.3498324212622188,-0.3246274637937439,0.1013350911366291,0.13729649844906097,0.1769558546120133,0.05669878601803235
-0.3164814696719065,-0.5208947138690985,-0.3291081377681355,-0.348234902883537,0.14095898050226813,0.18621070378320173,0.18430880345375303,0.12057762009541863
-0.33269434490511374,-0.4901029346474824,-0.33987318271381206,-0.33578045604074025,0.1202841585514226,0.18893020929032034,0.18582496127517112,0.11269626657315461
-0.35896994755798484,-0.5117044053666551,-0.38962036366208097,-0.3843351965846579,0.06824914081489408,0.10843308153692963,0.10912017368717522,0.09370229560139749
-0.3782853287403815,-0.5459813292854394,-0.41285564333823876,-0.40434027472646844,0.015994534229903896,0.07492067271691517,0.0880295055975527,0.02018489815557508
-0.3202251274267395,-0.5094752150204921,-0.33126282860526607,-0.30510211450796865,0.14176902040529024,0.17924397956398816,0.18075714293434963,0.08360145646723963
-0.32787079486948223,-0.4869692243417249,-0.35592643130151513,-0.3108887538979258,0.13077829318963943,0.19472858568416515,0.19368823020337178,0.06096582131470531
-0.3418228189086527,-0.4985392912296099,-0.33686270479073865,-0.34270119300996565,0.080588593961303,0.16879816118568666,0.18401526968432594,0.052096805648953276
-0.3907911763976023,-0.531317733059521,-0.3967278715040155,-0.403328251109652,0.023701808948438548,0.0968792117816077,0.10032627191691745,0.02441337438175076
-0.392546337575879,-0.5587272916642858,-0.39747868844231876,-0.3815514471667779,0.0641658300755285,0.11344243720714435,0.08890624298752016,0.023596904827262788
-0.3264382738790908,-0.5281982721250166,-0.3693418011511696,-0.30964182803735474,0.12084421862197656,0.1902260422850235,0.19726883179778715,0.07043002726900051
-0.3580359971511592,-0.48914087473232626,-0.3686671910942615,-0.31495860191342695,0.10663369348163197,0.18029371934409866,0.17155227834070366,0.0015929358515547009
-0.38701827257459226,-0.5550227159789832,-0.385309523068236,-0.352485608470998,0.03713076641197579,0.10284755758004425,0.11674006838996398,-0.027456284781175344
-0.4188077771593675,-0.6317604777414089,-0.44650060695148736,-0.4251380295162464,-0.03642193712932342,0.022830339401680704,0.0018261944957147487,-0.1751962938682455
-0.3826671462085403,-0.6437154622728388,-0.39863015564160553,-0.3885607328481346,-0.029305321799821316,0.017979040206361634,0.06166945899533138,-0.20079914048680478
-0.36895290910728645,-0.6248881764102924,-0.3810766672425319,-0.3371381447404434,0.020037583135041302,0.08900851404296527,0.09964462191388514,-0.20239621917381026
-0.3829654302026004,-0.640302337554251,-0.41589369158177436,-0.3781345043742131,0.01972341730971157,0.09672246461559358,0.09527893175476299,-0.15535477565068798
-0.42566260541156425,-0.6606187739341955,-0.441086538522355,-0.41223481674905144,-0.01117787199827928,0.07927030014720038,0.06962227958103608,-0.12176369994392222
-0.4439615016208182,-0.6119630058352934,-0.46972512290282786,-0.4528305486617731,-0.013909914578817911,0.013350371077132927,0.03497514673541031,-0.028455965193663026
-0.3782920175293974,-0.5486556699365475,-0.39076529765377516,-0.3696563932428742,0.10050953034924867,0.18216276182493782,0.18007436617198128,0.1153601588571919
-0.3856196035038038,-0.5511506226785663,-0.3982686902636575,-0.38484189933870977,0.10745201268128336,0.17371208078422537,0.18568319128184052,0.11753332775749005
-0.3719941542373219,-0.5619196265802299,-0.41185109271148984,-0.40281548085354735,0.10843147332808005,0.1472590351191085,0.1658174223930081,0.07877371254811003
-0.43643477525681446,-0.6067584993614555,-0.4582222283623797,-0.4538999451500983,0.027024123043744415,0.07404648206418583,0.07649778249802289,0.031858932035126956
-0.42564914386408237,-0.5645936869143894,-0.46133901753371453,-0.44223370505122306,-0.01825390950320877,0.06384363627385067,0.06517984498776953,-0.03231524989031465
-0.36416907361432227,-0.5681885919274778,-0.4042404745826531,-0.3693993710679666,0.08665478247159451,0.15435442004897046,0.17209020838813938,-0.04476739312518767
-0.38920549444396774,-0.6093140496590276,-0.39677600356957926,-0.3794134119235288,0.057407549237160536,0.1270418228400054,0.1566522217497395,-0.056756042284549287
-0.40585792192407527,-0.6328369576445885,-0.4478518270379644,-0.42178930399157777,0.0486831819301708,0.1352806687071725,0.13424712461132648,-0.06579670412162998
-0.4417938264934475,-0.5880681978947244,-0.4764043772822004,-0.4442289142142332,0.01603190718171435,0.07184120098966852,0.05651928166081587,0.01289654416403763
-0.41430016953134363,-0.5656091320730863,-0.43781058147401775,-0.38561235221626106,0.07097646773242318,0.1499903055905982,0.1776373489464904,0.07063804200706339
-0.39701116736131614,-0.6213823627041758,-0.40646110150404474,-0.37049935305094517,0.12329553705829135,0.19813247748116378,0.2078548034997852,0.09911895439712043
-0.3814423498435963,-0.6263689357648489,-0.4123606823005322,-0.3871465712566502,0.0991767589755522,0.17477660642980858,0.1536994216535966,0.04806160692321206
-0.41302392226712986,-0.590061072434614,-0.43831406510775833,-0.44233733757735455,0.0859888149304521,0.13218865035618713,0.12647222039764597,0.021467041415005012
-0.44455595308163176,-0.6119938903121587,-0.47121020589333584,-0.4728773195967576,-0.009092274774487694,0.05590353535676093,0.055767406063575775,-0.0010949690507965903
-0.3969083275906587,-0.6051860869706351,-0.4243073625934711,-0.3752776002285736,0.03479248994322775,0.1314298625152474,0.12942169267814418,-0.10757371831674539
-0.3962158783563122,-0.6270606920799131,-0.4421407212780943,-0.39257967016218925,0.01069352355276643,0.0941872968533292,0.10629207129102516,-0.15470694622279524
-0.40683907138824393,-0.6038964434246478,-0.4227626682922546,-0.4191017768409859,0.02404682550193259,0.0895541060491837,0.11155846483463955,-0.15057859964120027
-0.4434089292221534,-0.6433556937884146,-0.47182754392293585,-0.47213622496357116,-0.02362256783410352,0.06943874538409997,0.09009654570205189,-0.037625126400823675
-0.434637650165859,-0.6690410332297937,-0.4411580913985376,-0.43359443897374983,0.030394471336452192,0.09484376869362093,0.10970762118803655,-0.030242592396762916
-0.38784409087454425,-0.607029286620267,-0.42209390648950523,-0.4061523378945777,0.09793873449785458,0.18764203713259284,0.19889659252060002,0.02000272661894784
-0.4143876166721576,-0.5590289269026643,-0.4175136277493781,-0.40157851843673686,0.0915410501474729,0.17295912512283898,0.20446621941206988,0.0548504420081131
-0.4123382035512121,-0.5888762452949466,-0.4397773312694308,-0.4309969679026004,0.08110850703795634,0.14191116296108305,0.15770563085385936,0.06708558700899636
-0.4504379215922815,-0.5763433261614329,-0.4885719124298388,-0.4959919630189235,0.0038552923641488757,0.07124859325854523,0.08831147979726864,0.03844532060601966
-0.4165118567498941,-0.5919629277693291,-0.44580934171146036,-0.4241143658401654,0.09344987201342542,0.14752807028602383,0.14070322607003286,0.051249818754397325
-0.39696044354294224,-0.5521636244982008,-0.42082007404154886,-0.3913875582334458,0.08858079595447688,0.1895349225651365,0.2087831387392926,0.04324545141893261
-0.39508423557111616,-0.5736404329898379,-0.41429594877018633,-0.4221193609690471,0.10807676479283425,0.15907340109058857,0.18612213745550246,0.04259128533860761
-0.43392703716156533,-0.5534882431708181,-0.4661482847537948,-0.4562455456450485,0.04056544248191861,0.10967062016951538,0.11701388596228333,-0.01495863401192011
-0.4692606734462218,-0.6184683940573916,-0.4937556195501583,-0.4786108782066815,0.0010302171241854392,0.06422487283717818,0.07395182444128325,-0.016482553141409693
-0.4086325865413817,-0.6399287748831087,-0.4459733578225495,-0.4141648720442644,0.07132391958718313,0.16709424868301445,0.18128688313973498,-9.106113717295462E-5
-0.394696389600192,-0.5640604886970291,-0.4277712669889008,-0.39605702946888816,0.13066843434453587,0.1977625664800933,0.18221195889729602,0.09868421849240466
-0.41778384801541807,-0.5712750152724703,-0.4245065358070855,-0.42432660486377016,0.1270945246271803,0.19327822290514798,0.18808527851421267,0.08702146598304536
-0.44866951139236805,-0.6015416344278524,-0.4669740547162514,-0.465413389257812,0.054058178618658956,0.13064291308241277,0.12337375761380838,0.018711569507943702
-0.4734956577018627,-0.66008997219101,-0.4941296488865723,-0.49073236218965277,-0.02120282941472726,0.0570545984155653,0.05890895029847603,-0.018658560741697076
-0.4176198500807347,-0.5926669332190041,-0.44500109495032575,-0.4187676318984572,0.07657129057027252,0.11816531969188607,0.14921300214342034,-0.04185193325774334
-0.4200556281476221,-0.5490597246312406,-0.449955033488683,-0.40522405620139873,0.08812777821646335,0.1352078840579932,0.1650234180298556,-0.053457271171319425
-0.4456624467361903,-0.6285808194080148,-0.44862510060094274,-0.4291172910335928,0.060877887679205815,0.1471481309401471,0.1666897716301376,-0.04593745346690556
-0.4717058203662488,-0.6428144617317005,-0.49398057468180573,-0.477649512969255,3.4468380604868443E-4,0.1158216856898331,0.09423089696545167,-0.06922923716381699
-0.4859356836137253,-0.6917256072462229,-0.5379515325770764,-0.5088555303273931,-0.05290569919343902,0.03644032462162487,0.029620467591377115,-0.07323637679694259
-0.44232245997357844,-0.6334337882419666,-0.46026271657928214,-0.41771620808223786,0.018897923520915776,0.10364552380272896,0.13313083349352206,-0.09235046785903395
-0.43803387204529454,-0.6178869357355667,-0.4518241388680056,-0.4212733124716089,0.04301074838197252,0.1340847259365914,0.1361884249843079,-0.03164494123271103
-0.4517349674081152,-0.637046553465746,-0.48113051269932894,-0.4319807737495378,-0.007601126612287052,0.09176944793205927,0.10075326247900453,-0.11743531730486281
-0.49691147839789745,-0.7405041330972871,-0.5287105370400774,-0.49979941015837115,-0.021598283040366987,0.04737477865938917,0.004086284503585366,-0.1810671887369707
-0.5162007380403562,-0.7092271374615774,-0.5294361206650702,-0.510111748995672,-0.10463581845254367,-0.011501330148890588,-0.034486546765400854,-0.19134041776589122
-0.44546414844359883,-0.5421443789717911,-0.4355586793237542,-0.4018960996101536,-0.005282045495093303,0.08119921219413336,0.047850698304976624,-0.28916604412172675
-0.4244741627658963,-0.48670499987674914,-0.45623503101106033,-0.43205955180665623,-0.046986957345817544,0.024606907782052146,0.04788652838360868,-0.2996753677162997
-0.4521802273125522,-0.47249110922285037,-0.4698909612616605,-0.4384159181298728,-0.046580553244451414,0.012097494120899258,0.024554435488945064,-0.31564343237377424
-0.4822923152510263,-0.5723194654849776,-0.5053883416238143,-0.5155008395684139,-0.10556241160845221,-0.025965495466457007,-0.02053057538852985,-0.35568723019613396
-0.4769167068870953,-0.5138277859415599,-0.4805554656972028,-0.49685526799705787,-0.09993025211842257,-0.02950093164972168,-0.04612450477480876,-0.31519554633037516
-0.41295552874863845,-0.4902867254028285,-0.4285455509883038,-0.4051359959195673,-0.024051269059161332,0.09784612445369524,0.06534011023936201,-0.3077173113033051
-0.43068008710879346,-0.4965759288257708,-0.4283145676342105,-0.42570854610781683,-0.05980606756389506,0.06611081207898346,0.06381517316556502,-0.32176337599323346
-0.4497191919770806,-0.544963489891681,-0.44415127110948405,-0.4305632841915838,-0.04404764452539253,0.0342946526681832,0.01880220326960356,-0.2837785161583703
-0.46370309451925834,-0.5340624075591404,-0.4908850475756218,-0.4947612281334849,-0.10581300509460874,-0.03491764652321962,-0.05956417813452192,-0.3538700908348191
-0.4362844094534219,-0.4280200379725525,-0.4465079605470368,-0.4419554737980695,-0.08447555050570789,0.01541580981688745,-0.006238121296052626,-0.3600123307229616
-0.41598005607558625,-0.44956942326098404,-0.4159091967312788,-0.38780115926803393,-0.020581886978461642,0.08189259676721286,0.07046183372775212,-0.30699850471508416
-0.4133397671377642,-0.48193666249834033,-0.4245577715840217,-0.41605985163573356,-0.01100841330335797,0.08752773454381686,0.09017297682168995,-0.291950960061472
-0.44422199211675356,-0.4609317297779276,-0.4463035814838944,-0.43789800365945497,-0.06432110230776264,0.03413746351991373,0.02973271297380622,-0.30051833246461307
-0.47039975934518435,-0.4475796927298024,-0.4820711784608843,-0.4738889454324502,-0.13648301012942948,-0.05900250314644519,-0.06002467894475881,-0.38248015588032336
-0.44841502601741673,-0.4905427819372758,-0.4300147228470203,-0.40244854940509395,-0.09302852671201285,0.025908287168391407,0.013548173209052345,-0.39719037498362714
-0.41807780292451974,-0.42054835763185056,-0.4123512939587966,-0.4212754297015258,-0.06350081529074726,0.028110695224131576,-0.004091895226880894,-0.45979842822614747
-0.42457277035899355,-0.3016089088941877,-0.40776068594533293,-0.4023289278500163,-0.061485917292617875,0.025364680141650695,0.0029275859408265047,-0.43373791363886954
-0.4415543102922438,-0.19550225603146862,-0.39908513227876125,-0.41916388979314245,-0.14552069663368636,-0.06401244916784651,-0.05819084815993871,-0.511465726216488
-0.4367476723059064,-0.18270581544171333,-0.40372355875119326,-0.43778076091480694,-0.1524518498160684,-0.06848399724450852,-0.07970477053509328,-0.4883925084620214
-0.3860553124609603,-0.2793966320741114,-0.37833513630117704,-0.37499611627370666,-0.056587981725771855,0.04071823444855112,0.010054672759648827,-0.47119947339820395
-0.40401100992958117,-0.2790208859366397,-0.3798398588024547,-0.3839579859671504,-0.07660486419529008,0.041192509245422226,0.014036255221707502,-0.4243141209322722
-0.4125923393294634,-0.30532937512676367,-0.40549989708424217,-0.4067586030541368,-0.09546776246171068,-0.005633342514444273,-0.018184455872768467,-0.4896777353577061
-0.4427249985735777,-0.2772750574895435,-0.43943838590293915,-0.461324875403793,-0.18570665637513328,-0.09558666304116194,-0.10963690732619973,-0.5415675386367034
-0.3994228256459848,-0.24130645605926268,-0.3792995363012423,-0.386886172045558,-0.1020489051046658,-0.015429109219303558,-0.02892290045834685,-0.4950465650934114
-0.3916158897270303,-0.2678442213442256,-0.36871557225820123,-0.3693702504827471,-0.09037802185257661,0.03254463824890085,-0.004443061588315671,-0.5324984564225582
-0.39169362350324016,-0.3472148220571622,-0.3812312104956765,-0.37834417268596515,-0.09549855231311524,0.02944748134160585,-0.004200144834591047,-0.5165740772836758
-0.4327723118628037,-0.4101776541370212,-0.4137956575579625,-0.4385334554333307,-0.1443972412629367,-0.07433101393850025,-0.08544440298587448,-0.600139393524264
-0.4546566134519623,-0.3184548232511893,-0.42951147016969454,-0.46127911872683625,-0.22329340663122724,-0.12072836709021553,-0.12450017219217557,-0.6534392019181536
-0.39689025582505366,-0.32916876734049844,-0.3527497317085906,-0.3753110670488734,-0.12399040251780648,-0.026153478570404107,-0.039937977609929676,-0.6371461187814415
-0.38184928656702305,-0.325267205679806,-0.38646555689210793,-0.398658766510289,-0.13427680823774785,-0.01646985269450144,-0.03419266833566028,-0.6086156131731271
-0.41479693203993123,-0.3703349495333738,-0.4007115872032986,-0.39202546299829044,-0.10940347737241973,-0.025147497094456343,-0.04417576346080568,-0.6044336813282687
-0.4451118541802308,-0.33620572148690137,-0.4330023879280408,-0.4569604522753732,-0.18845865636804615,-0.07673053238235744,-0.10949747282451651,-0.627914110738153
-0.4175928610629867,-0.3185273561219466,-0.402804648999334,-0.42119497862198074,-0.15606896368264062,-0.03350153352690602,-0.04759369120926971,-0.601915487660233
-0.3993922188198699,-0.34382812512662103,-0.3719304739441986,-0.35644117899153344,-0.08609661995238907,0.03226106794553458,0.020829252332938253,-0.5520935688637612
-0.39938155075082654,-0.24952002892006234,-0.37653996770508075,-0.3850312250649315,-0.08753189723907238,0.027716644127246486,0.023874458589652658,-0.529584184436245
