0.10707378766786133,0.06895322628336929,0.17232527765406624,0.16398061067275232,0.10108937516767227,0.16410851233973894,0.169630085205347,0.0091010416670947
0.09038176971928583,0.10062980878988442,0.14759810934543147,0.15955556077879848,0.1106949305088072,0.15358261970175147,0.17159266854880065,0.061875126173727646
0.034313724107064555,0.04099087637824502,0.09741809454409071,0.09371679837768394,0.04521202701860837,0.10589807872121274,0.11153954223605536,-0.035463600568365373
-0.011235319168846855,-0.02203342356824875,0.012762867622522427,0.01005012147656504,-0.029102183130400285,0.02031448945267951,-0.0062302997770889365,-0.1298201830275133
0.05404395845463216,-0.014258932509547819,0.08074019430036611,0.11053159618764641,0.005644438269094252,0.038933220976595025,0.03996461241690041,-0.14633999844995915
0.07638092372494075,0.028899818592841214,0.13482416219717105,0.12614260348904002,0.05541257568209039,0.1188573224071022,0.0944922468478124,-0.09958385981992027
0.06399755552721482,0.04031716126794485,0.10840086813807988,0.10590380095830412,0.05077075226193821,0.09376578198368943,0.09665623867989227,-0.07057874851157936
0.008586758290076154,-0.008108579428663734,0.05165846019521238,0.05391737042223095,0.02284347559098264,0.06790538603628044,0.06727524602586565,-0.06177808226263766
-0.022928743489921268,-0.028672050214245674,4.448711452065962E-4,-0.017620266247445088,-0.02465044374310227,-0.011387965977641995,-0.005733653575837508,-0.10388680244420809
0.08964122139077213,0.05107708140383375,0.11697980412073677,0.1356967827776112,0.0730708694717214,0.11292008780172388,0.12523040916090877,-0.03287459998087655
0.07588427206263232,0.07346882841685363,0.12887038946860885,0.09769056590431505,0.088331023617603,0.12342212113267192,0.1137075331665783,-0.00308646917544681
0.043247140727475986,0.03691871114556838,0.0902958470867474,0.07556765909213747,0.035768899033508765,0.08973771370269164,0.09667015876234751,-0.01801215328130776
-0.02774399740294369,-0.061261255733878146,-0.002081573229431352,-0.022467187576330296,-0.02255733639954748,-0.022631428122452488,-0.017945275576895126,-0.15348927808978097
-0.04020484853145289,-0.09214396044263119,-0.026706914555373364,-0.05793997545024547,-0.07746462840289048,-0.06242947243272913,-0.09063822422106856,-0.23586381524217212
0.08035613426525742,0.011667434450200784,0.11625534134815935,0.12185135696862175,0.015245625398280633,0.055969420092129116,0.060467141952192535,-0.10208898104653763
0.06100443746218263,0.030932883584388594,0.11480685920738576,0.09821427707583123,0.051908655343065796,0.08471277064944385,0.07737570845893703,-0.08146353124074608
0.021380433633309815,-0.004673758370147319,0.06423833379123986,0.049558792359265566,0.021545772348859467,0.06526985778695865,0.048217507557042585,-0.07494570146920618
-0.038284294269517224,-0.05954918632541298,-0.004686635742285471,-0.010006033935779979,-0.01557998980284769,0.014027310732201315,-0.0013417269452179748,-0.07049307015343897
-0.05404554841449007,-0.051020329820578435,-0.03209949636900734,-0.06139321386996891,-0.03407279524650694,-0.020644033619471314,-0.03077193662642321,-0.06289637553172896
0.058761929264183,0.05172611308520468,0.09937996962747742,0.11319729799554651,0.07413125699469547,0.10246749802893654,0.11574277622891231,0.009190533380800753
0.031128078055931777,0.021676397752813083,0.055949084675558196,0.07784332413064897,0.06802368781367586,0.08732587682674338,0.08567946815493929,0.00833517133533183
0.009755777963657215,-0.051138528638128816,0.04829313937670826,0.02529892092206465,0.023596616626059948,0.02359093331790097,0.025668755199055968,-0.09290942549181821
-0.055157226280876354,-0.07118290394742438,-0.04394792317475242,-0.07429625244658124,-0.060749349578324126,-0.033570789512788586,-0.05547790383391711,-0.1456734896345681
-0.09590502847033697,-0.05999438658255105,-0.07523715937875333,-0.10113910886543667,-0.1057275935485456,-0.09851794329891261,-0.108387707706388,-0.17157234911207142
0.02287093527816176,0.0038850496772794285,0.038339535891111,0.04629380610707705,0.009780053474786901,0.01933452280042494,0.012202676596827555,-0.11221330565104741
-0.004677446708191963,-0.041958374141265006,0.00816463358512163,0.009525735576297378,-0.021528591666701184,0.023162002682051375,0.007757161938277524,-0.11275304076297024
-0.030241528829812854,-0.05375631512873726,-0.020053085491294427,-0.027550857248413392,-0.015632366365670534,-0.006407878464914488,0.0029187829160163964,-0.11196722242400074
-0.09411659699220025,-0.03687227980773246,-0.08883860007781366,-0.13683626368570398,-0.05412819689841701,-0.07148698492092062,-0.06379674031703453,-0.07023714383084025
-0.07779239197200286,-0.08264985445270547,-0.06879315302256354,-0.11663309917383259,-0.07036258942324616,-0.06971953543178014,-0.07464201029822941,-0.08862084450661721
0.01301291784039294,-0.01207936801206861,0.026134985971879562,0.006641309084923011,0.024661529860306917,0.03920321462277998,0.03924525723664449,-0.03824203451379848
-0.030212970288027143,-0.0636182067171402,-0.0295856878438571,-0.035431941629760155,-8.190507377597439E-4,0.006815804639020831,-0.0028921527430234018,-0.08094048988975741
-0.073354985633109,-0.10413322184029847,-0.0803894518150559,-0.0928602109291724,-0.06807959101638855,-0.06017098064800872,-0.04928849868224108,-0.11835001188125321
-0.1406788844407835,-0.12509678331073165,-0.15347463855405497,-0.18669807007458739,-0.12295136866896358,-0.13220784010122477,-0.146758698593131,-0.17792630091341233
-0.10218989611736282,-0.10042629434039851,-0.11985960824022256,-0.1347095196612333,-0.13205408278800107,-0.12638317751007516,-0.15769416101843728,-0.19435028005597738
-0.008905730456680222,-0.09552070186149983,-0.015639289658508727,-0.03527018873206554,-0.0518639039399197,-0.03631797199835613,-0.03734288489035162,-0.2156173499929677
-0.046708970399118935,-0.11510205129623131,-0.04471062790409072,-0.06464227207235354,-0.09616609476356558,-0.06262399220863335,-0.09870111070055698,-0.2572073426046865
-0.08404813594286206,-0.16585774668312153,-0.11370475082425811,-0.13288353987488846,-0.13309522631657364,-0.10728793571372292,-0.134683497572113,-0.3193639218879805
-0.13919998172403558,-0.11792324851148989,-0.1574792318066208,-0.18500765182693063,-0.14654337459206512,-0.14108376686795487,-0.15188438959246384,-0.2388562826848601
-0.0956137638982583,-0.1521547960900237,-0.12960376509245602,-0.1593444050645202,-0.11785585053460604,-0.11449064449139468,-0.13478724931535685,-0.14983124860881622
-0.04378854132504862,-0.17965817557344851,-0.06052806186362062,-0.09213494884214066,-0.03214103679020067,-0.010903871924122933,-0.03276047715802494,-0.14627354247873608
-0.07302377484894934,-0.14142279860359683,-0.10010325540674747,-0.1297310949436296,-0.04315218607317553,-0.04710766894958343,-0.06433812856295193,-0.17538744149401814
-0.10954165955812803,-0.138597104210633,-0.13076901242795866,-0.17517368388815846,-0.07736124716706358,-0.06751601599194776,-0.10491949978197138,-0.15221742639078095
-0.20839607530591053,-0.19143090720854894,-0.21069953086638468,-0.25569433364762423,-0.15597007113472924,-0.17916678914349987,-0.18604229174516418,-0.2040337649756554
-0.11867502324748613,-0.15491085766269624,-0.14046795054183436,-0.1744047593252066,-0.12384543308756363,-0.1327677268455979,-0.151099911128117,-0.2194448649081989
-0.08394106257056419,-0.16238160159582893,-0.1307423055297771,-0.13359700912207545,-0.07482797923570983,-0.07708552611263675,-0.08570374658701918,-0.19361797836611658
-0.09710848673248437,-0.16463174374729866,-0.13132273000151815,-0.15872796458318206,-0.08366664206487752,-0.06361121520374738,-0.09379929940988667,-0.21275634677232452
-0.14584486287352696,-0.19896310399617173,-0.18721713082936553,-0.22731056505523914,-0.1158567855648609,-0.10352513128764615,-0.12285808783173809,-0.20215006362612847
-0.1964683461732995,-0.2564456444703068,-0.2547818626535733,-0.3010500813506369,-0.1652023006278054,-0.1889056166406028,-0.18148440335489754,-0.17661194114460144
-0.07056186921967861,-0.19131750539742487,-0.11861272261692625,-0.1423455148979552,-0.04287036222454359,-0.05288730780623745,-0.056545177950036225,-0.1546938501386863
-0.10018784808111515,-0.12256249880479052,-0.13591781498649308,-0.14916164993595682,-0.0613391318524637,-0.05454484711689797,-0.07195297680542108,-0.11540745234631683
-0.11124746137051283,-0.18155305749544742,-0.15198514654516687,-0.2155184499121593,-0.07434839331041027,-0.1004871912812231,-0.09879247008309339,-0.1371771852782815
-0.1791958946071477,-0.18413267893765678,-0.2138966677417612,-0.2685022677892165,-0.16531009565515226,-0.15665015462853132,-0.17270067958523183,-0.21032231787076255
-0.07374776192347109,-0.07485492856071035,-0.10925496893179701,-0.12269395166669739,-0.09776531351819623,-0.11283721701446285,-0.12299649401751134,-0.25558254751164383
-0.04733927256147896,-0.04269285663904159,-0.08427649662338854,-0.10669974970867946,-0.10478768266511758,-0.08814407814943881,-0.0977163086520789,-0.28995812273683325
-0.05429706405674194,-0.005472558414387388,-0.10076760463579404,-0.13285137447962783,-0.12271506153699964,-0.10809058890184621,-0.12530531683590418,-0.29263604870883614
-0.13054876240925295,-0.06891079366712606,-0.16164873137731456,-0.19627808061527055,-0.16860022735384583,-0.15471761700071673,-0.19445614467217642,-0.33634545964520385
-0.10703449043801133,-0.1146676489232264,-0.14892292437798552,-0.1530680274847621,-0.16336485033984696,-0.1271959228585421,-0.17240112481595582,-0.2785932674926269
-0.06693889202654185,-0.15963625244267782,-0.1099163791306847,-0.12472930828815079,-0.05478219165536112,-0.020462850733303214,-0.05671623941855707,-0.17460619327183638
-0.09843037488741412,-0.22581421762798848,-0.14435559774084694,-0.16260848656805782,-0.0380652102386167,-0.012333700146009048,-0.013430096621465187,-0.06329963147462042
-0.14573308867628426,-0.2645711633035851,-0.175920153475921,-0.22266348989145274,-0.0417843343899812,-0.03531500630425838,-0.04121513992038089,-0.03926628595726174
-0.1266513117594163,-0.24685272817528117,-0.1902195464744977,-0.220211042863237,-0.05081201578109023,-0.031116771065395912,-0.06338153126964904,-0.040045603846721255
-0.06063745367409629,-0.20114415592888985,-0.09267008072868509,-0.11766174239386662,0.006460427235925492,0.03577565043500817,0.021908078618232907,-0.03350259046281088
-0.07567073081995451,-0.17905778598783928,-0.1218659050033497,-0.16202731511052704,-0.03691603333550936,-0.008181702012726104,-0.028356893013843608,-0.13372550709797312
-0.09329993050444525,-0.13406025548326383,-0.14537426568492168,-0.16532472970196105,-0.07638152110196204,-0.0593206514839417,-0.05775813003655625,-0.18444691832595111
-0.11868726014458272,-0.1819142661058179,-0.18067903216219,-0.22007712557599005,-0.12835584675627465,-0.11418150787903363,-0.14519581057473435,-0.25681895480342104
-0.026306110489557905,-0.11301063078140973,-0.07028388228118905,-0.08069439777549582,-0.055087846339511914,-0.014366596168279719,-0.04270689638033712,-0.2074795712328068
-0.07147649736324171,-0.12746288208297823,-0.10544641141438141,-0.1435285086336484,-0.047874594811514855,-0.02188994874786522,-0.04265077404395625,-0.1841350092189106
-0.09926679195280814,-0.14890112213082918,-0.13570089042797784,-0.1998714284635733,-0.06931391380621638,-0.05224335580283008,-0.056496942951763086,-0.1694312250604006
-0.15098362501506696,-0.1602977774298233,-0.2105999663001601,-0.25547020599647785,-0.09252483466393158,-0.08371166864015096,-0.08261967484393336,-0.09386250562249143
-0.05716409432114825,-0.1495441983975502,-0.08796186307403325,-0.10900567082940184,-0.005083765911182432,0.034406158724248966,0.04458214260452567,-0.05656177532013366
-0.0530087357712144,-0.14231248774077632,-0.09259577478376833,-0.11144411333665906,0.028712373664875675,0.036877216317653394,0.05413397794972874,-0.05488127778617424
-0.0662401691590777,-0.16592856157284025,-0.11057263735806999,-0.12660057359260654,0.008221759024616977,0.0268161867523852,0.05124796429935154,-0.036174497624126015
-0.11884845869558638,-0.18039204601693848,-0.16266441725238973,-0.20849047989785474,-0.04346091129699565,-0.020861215550082295,-0.02247794717220194,-0.03278498914875497
-0.10004488946207188,-0.18676258536361973,-0.14558542286808246,-0.16918155074273777,-0.03689738343373784,-0.013173512696350455,-0.014736121782756129,-0.05363108364607691
-0.03667888876113855,-0.11720403063613305,-0.10305358349334497,-0.11219832616958503,0.02465603010590932,0.04863723629252285,0.06745392484767176,-0.05248322038917807
-0.07166011531280839,-0.1667331149679047,-0.12279032499289891,-0.1469808829673408,-0.003905751093547981,0.04090424340979329,0.0374919354065262,-0.0696695070567857
-0.11167054229631926,-0.19451732645335879,-0.1586253314449277,-0.18049131956589207,-0.031987320385169035,-0.0018431870035569356,0.010113559225349539,-0.07899002996671264
-0.16815786789524206,-0.23994120089161408,-0.24265642746356203,-0.2500111468944002,-0.05270700036978549,-0.04996548997716185,-0.03616819150598635,-0.05832949479747579
-0.11009211839212249,-0.22935897290424134,-0.1869004169498198,-0.19100623956132945,-0.03290443109052026,-0.001594610324048694,0.004364060481769655,-0.06629663205367425
-0.08850529690109579,-0.2465948390627153,-0.14845062836604442,-0.1681687419210821,-0.007468235841746315,0.038147781391253466,0.04666248161432808,-0.05475871249367914
-0.11217260743683558,-0.21648817751807886,-0.15707218187746605,-0.19401734760346911,-0.02823218339967592,0.019588053671400034,0.019359113148455127,-0.0679609050015414
-0.15938229128022224,-0.24830348392939075,-0.203597533157575,-0.2245948548044468,-0.06202846894152364,-0.06128430993783405,-0.06506607904019528,-0.1568361186598891
-0.21697513586958705,-0.3082746824483161,-0.2768878464222514,-0.29379727093512914,-0.1330290948745388,-0.1376789556332769,-0.13006653486205347,-0.21285562897654267
-0.1257208529311188,-0.2817726261076987,-0.17971533731106437,-0.19232060080814498,-0.07120301854634692,-0.042292091599269735,-0.04185780175760289,-0.1824233440889477
-0.136286680642807,-0.2523307517990899,-0.1989908654645472,-0.20693718594983024,-0.07513494538325766,-0.050739986209943966,-0.06480473427125813,-0.1764568473474045
-0.16243131537136507,-0.25521901266053004,-0.22156890743757357,-0.25372893104364064,-0.09093091232276128,-0.061568920529119074,-0.08702266373078157,-0.21583530766843045
-0.20781366414084834,-0.3159637208934417,-0.2868203700276444,-0.3257273643744505,-0.1428631154769959,-0.13087221757517428,-0.130105067388504,-0.2423515281240216
-0.2128447866418295,-0.27569398480896196,-0.2743315145160231,-0.30929718004791074,-0.13583323296988126,-0.13927554386313884,-0.15533499430252543,-0.20446700774064053
-0.123322583016342,-0.23763534604543868,-0.18756480424073596,-0.21266039734708964,-0.04379882886652337,-0.033203028049875544,-0.020907202916094637,-0.18626682386789306
-0.15490710821374898,-0.26341000079137367,-0.21713271820467808,-0.24585741895708085,-0.07744818038608539,-0.07329625958462845,-0.06596472581709163,-0.21492332723683832
-0.18637898761065042,-0.30086282762775507,-0.2533452242868358,-0.2785783613792065,-0.12877864861281219,-0.10475742843165176,-0.13555339588818283,-0.27623829725968235
-0.23834015160755537,-0.29698826640347403,-0.32089966515304935,-0.3567258614156888,-0.18429636271269878,-0.16896055575289143,-0.19937907974817598,-0.27299291608969856
-0.19699844451425208,-0.30062686663734134,-0.268811883818717,-0.3002589560523653,-0.1296398934322031,-0.11957599045040745,-0.13109763256724263,-0.2406900166020347
-0.15594566078670716,-0.2841107209841514,-0.24667793345852074,-0.26060902978285383,-0.08040030791063088,-0.0672367179876686,-0.07406257420201864,-0.19737721600955743
-0.18754244643111276,-0.3080482235662607,-0.252046549103941,-0.28415908565305015,-0.09795244498499989,-0.07637879467533312,-0.09879117653578498,-0.22955555078255613
-0.22330535873577842,-0.31444771278936506,-0.3222186390356766,-0.32300964002733473,-0.13695436242348163,-0.1388178293364022,-0.15043650483684462,-0.2687895558112438
-0.27021692938731134,-0.37736483729545944,-0.3601908259360035,-0.3800934885698601,-0.18006188448047922,-0.17926696677628884,-0.2131025956186595,-0.30047014042441944
-0.17787186570301133,-0.32417564675635346,-0.2446451622062666,-0.2589370614689789,-0.10149972916272298,-0.08857100166212267,-0.09396031232123048,-0.23322399976065492
-0.2046907653187195,-0.3003361004448939,-0.29099898741722074,-0.30597117977497756,-0.13278984439370972,-0.12189171933039603,-0.15552154058442186,-0.3170800007473301
-0.22619711235792778,-0.38237970026686147,-0.31905970649624704,-0.339372412821792,-0.1848676915885195,-0.17464700191978252,-0.19824900038853627,-0.3730745141777311
-0.2861500217926645,-0.38582303401708107,-0.3856594290350024,-0.4171526806107974,-0.2559494018933882,-0.22882634829195922,-0.2821430320488961,-0.42728779845871656
-0.25280860736415345,-0.3671120496667798,-0.3343440131114836,-0.3650489105693937,-0.20102496918581236,-0.19425332057201103,-0.22373983928061947,-0.3863788893386054
-0.2054438746144806,-0.35575467194268484,-0.2928969968590962,-0.30702993234906284,-0.13390343769227123,-0.13284183138227895,-0.16069909266217497,-0.3227355703913849
-0.23327308551958664,-0.33740237285109,-0.3215477112735653,-0.3250301759175096,-0.15081139651354702,-0.11218231522946312,-0.1741571794250834,-0.3115020428093951
-0.2687856106582461,-0.4257129579952085,-0.3673416058746076,-0.4001794378141381,-0.1959246921217253,-0.1670593226181274,-0.22074961859109232,-0.343714955118498
-0.32106393402539946,-0.42723137591388516,-0.42273321807299624,-0.44433147000179307,-0.23159953023424296,-0.2266040032201231,-0.26874521648750627,-0.33408993312143564
-0.22944943486105937,-0.3574175646757006,-0.3229471950237067,-0.31527891545341313,-0.12196688846706927,-0.12034699361973243,-0.16874079288557975,-0.30715802396660674
-0.25338143323468015,-0.3893515882401966,-0.3289906874795552,-0.33114589396704874,-0.1634192065288109,-0.16984873074133294,-0.18783388944062163,-0.3694590589105027
-0.2785106298364202,-0.44027297973735485,-0.382709869189554,-0.39891697536764126,-0.21562465512370213,-0.17942854488515658,-0.2170941057710755,-0.4189044382929099
-0.33732152533168214,-0.5154400793247145,-0.4410278452563801,-0.4758052345166524,-0.2644223086270469,-0.2724949333179645,-0.30749083701952296,-0.4750235311183254
-0.2864153664689153,-0.45942881862138074,-0.41299471756070877,-0.4193470922433372,-0.2196328985930428,-0.2143021556714863,-0.25529540858108324,-0.38453912870798107
-0.2780281946665291,-0.4742845177363522,-0.3644272530033899,-0.3835489354376287,-0.15680432058641225,-0.14579886420325164,-0.17007558290571928,-0.3456585054280128
-0.2851738423415665,-0.4798409696159459,-0.41187800280961523,-0.4065147764420847,-0.17373849647078798,-0.14968815270202634,-0.19498388354779,-0.32957588393861315
-0.31623136267144286,-0.4735039640779831,-0.42894251568999253,-0.44608395291347036,-0.18628604528930376,-0.1896164821340412,-0.20764585277691328,-0.3127636393479444
-0.34105207323555903,-0.4500704244838881,-0.4469307415490145,-0.47757724205770696,-0.21356576518255907,-0.2154318879332094,-0.23697674587043743,-0.31089074873324685
-0.27871334261686476,-0.4590601142918408,-0.3723717644565619,-0.39011152471116595,-0.14015517172909633,-0.13786018425842336,-0.1628701646779961,-0.3213953798100974
-0.2822068396605459,-0.48662688468865056,-0.4011321404747127,-0.42272035416699927,-0.19366407027252888,-0.18199645296703387,-0.2100199165797895,-0.38267540331595046
-0.3270751110064254,-0.48504371407240976,-0.4274494378904513,-0.46444488165529174,-0.23005690577066495,-0.18871016526396978,-0.2491532825680215,-0.36656182200827747
-0.3464357259643539,-0.4561442682740064,-0.4750958422660993,-0.5100561899597772,-0.2667156687761768,-0.2308856386667419,-0.2665421541017905,-0.33208451444994225
-0.2606278374621271,-0.4105708590818348,-0.37561145348259656,-0.37969333482877804,-0.12414569937338796,-0.09320175614506382,-0.1406925879094631,-0.2449010172314035
-0.28156407818154006,-0.39450778574221834,-0.3870469821388346,-0.4005470422027628,-0.11482225274233532,-0.08983582697724411,-0.13158986480482582,-0.18164625179632463
-0.30627009627193036,-0.423665055191216,-0.38838513958955445,-0.4122030784696571,-0.10386475984507534,-0.09981223773673745,-0.10201043190360617,-0.18195318164035237
-0.3395863016341069,-0.43901780035950505,-0.44429648013686757,-0.46865265330832445,-0.17991791735430362,-0.1528726242024926,-0.18310373373397865,-0.20668130504199686
-0.26095696760133946,-0.41579181858876624,-0.4008072728515904,-0.4024257610647433,-0.14668134717331494,-0.1326185845961539,-0.1723742043494137,-0.33790883416954326
-0.2904760165771164,-0.45143556436030485,-0.3966178181042439,-0.4015671314577062,-0.2065154955415721,-0.17682574337673965,-0.2330031546738277,-0.438286893085982
-0.30617929316330267,-0.5313023087820942,-0.4144557136451572,-0.43487690484998753,-0.2516423977047251,-0.22535552784976504,-0.258314077796466,-0.5311485956819055
-0.35142597973078854,-0.5553740357911264,-0.45659397830355464,-0.4844068983417693,-0.275151743937022,-0.27355150758071617,-0.31972175531541064,-0.5420822623535091
-0.32591723903281267,-0.5145897318038337,-0.44750375376900264,-0.44631940389366653,-0.25640802883597696,-0.2163445038742161,-0.2581001913897083,-0.46215114188223855
-0.29499955830604796,-0.48519118006863415,-0.41370713824110006,-0.4164169081050678,-0.1641346862286541,-0.13246578844823004,-0.18641347254633023,-0.3919281343016024
-0.3128942671868257,-0.5034415625804742,-0.4449569637107094,-0.43332059852362587,-0.1604253647160975,-0.13875237556374093,-0.17086101965616235,-0.3115179740420292
-0.3615013044579012,-0.5284115716778024,-0.47642081459493135,-0.5005624115761296,-0.18760262694859092,-0.16549678930693015,-0.19931272244167356,-0.2989726931842348
-0.3716144478253458,-0.5213433617247133,-0.48262881098150034,-0.5146170422398725,-0.2014163640401694,-0.1872894483358396,-0.22481993849995063,-0.3048066960126812
-0.31132980506610136,-0.4961335484572845,-0.41173230529925375,-0.4251798464569494,-0.12968261514208035,-0.10860017446142646,-0.1400759153159496,-0.32769576455167987
-0.3281646999168979,-0.5063975789976243,-0.42741926613045467,-0.44959383841913914,-0.18579531661384038,-0.1664891116455665,-0.20805362639573116,-0.4104630302691944
-0.34847942486449224,-0.5609108372305031,-0.479033159922188,-0.4986015669227193,-0.26083639927578206,-0.22930458127523318,-0.2680624702016742,-0.49752731278740636
-0.39856285212558823,-0.557213506173341,-0.530659068202523,-0.5693426467443857,-0.32317731237858516,-0.31103188092063283,-0.3449234092733706,-0.5731073776013683
-0.3205738091829811,-0.5146993455670958,-0.43838597844371574,-0.4539295417371979,-0.22378702400318118,-0.1841813325956855,-0.2275694730377326,-0.45964104451430393
-0.32368617797897675,-0.49308268523018184,-0.4314196888618357,-0.454312504698949,-0.1864521171963938,-0.1541096363855617,-0.2016046197923484,-0.4312332410328823
-0.3555112505597305,-0.5258672952855185,-0.46552080602686285,-0.48289101438938403,-0.18917572586364995,-0.13891229194579283,-0.20475625594930585,-0.37822322632849814
-0.3836395783961054,-0.5447544371227006,-0.48544205406920016,-0.5346287485007591,-0.2219171764679698,-0.1820004155620853,-0.23844888938253128,-0.37394175524039797
-0.3868538683242556,-0.5502564327972425,-0.5049228993149444,-0.5196003264738294,-0.2115907694895264,-0.20339658353523976,-0.2290966621705324,-0.3878669902055044
-0.3415063089457174,-0.5680611685973228,-0.45637926119467254,-0.44764648542312474,-0.1577507611717886,-0.13404833235929708,-0.17116294847571356,-0.382368730816199
-0.35815946330640536,-0.5310154468408053,-0.4690320426182957,-0.48168176726009315,-0.21402126921086612,-0.16779500360462302,-0.24218432042644458,-0.5011972540818528
-0.3937579972167158,-0.5712837451663562,-0.5091860070993799,-0.5175315116778956,-0.2491307735154189,-0.22385738752325104,-0.27847859252620594,-0.5193480663000347
-0.43029512157363725,-0.6136183469438314,-0.5679989609698098,-0.5933138921835039,-0.29161286237839246,-0.2821698766048627,-0.30635953510724595,-0.49154714442674796
-0.3623527039207716,-0.5906334137343527,-0.5073520494748879,-0.5238471328262315,-0.1927281678475382,-0.17640467935994208,-0.19867869842180683,-0.4124747145336602
-0.3698205499641214,-0.6022612286698662,-0.5131744174753862,-0.5072889760119268,-0.19580201515154394,-0.18527921938573183,-0.20875769631086336,-0.4016330478035665
-0.39684250027884405,-0.5654789191467743,-0.5110244339779513,-0.5219468981236477,-0.20873727848716955,-0.18576305009849778,-0.21600044775137311,-0.4211064391789742
-0.4261264392379241,-0.5706784466687249,-0.5751799146269344,-0.5854826714929914,-0.24360344722885036,-0.21720974298537024,-0.24903226378112736,-0.35888109643099725
-0.41378159339879583,-0.5517839903864852,-0.5458065267961869,-0.5609004233217627,-0.20882003235422295,-0.19858709106642303,-0.24563556208469378,-0.3537586891602311
-0.3661043893248977,-0.5294755300757309,-0.48577258613170027,-0.504285795711351,-0.1672030751051485,-0.12530343937243946,-0.1646674414814938,-0.3247891281710339
-0.3936947570444656,-0.5206220088686601,-0.511286654676661,-0.5376293087924493,-0.16932939494039373,-0.1372317707829803,-0.1539523053453156,-0.3064940560452709
-0.4176774453258092,-0.5219822374460871,-0.5432879897598487,-0.5602590509559188,-0.1865822794061998,-0.19144627178900409,-0.2169448247631142,-0.33149127950648477
-0.44878918140646457,-0.5781265373236114,-0.5868365503133175,-0.6222928678536439,-0.2626403378321416,-0.2611283606135274,-0.2841208136164587,-0.39917689713217525
-0.3794751265219986,-0.571685660482447,-0.5046928474037892,-0.5156685225987374,-0.19661144077150244,-0.18099050457482646,-0.20042155822998203,-0.4211390543955585
-0.3759794765044825,-0.5746519287796138,-0.5154923738691035,-0.5325844529947213,-0.19996676346213388,-0.19343619830637174,-0.2304966068674603,-0.41049780546175196
-0.3991136142246359,-0.5494037877655402,-0.5139961582233399,-0.5435032041215773,-0.19208357841094864,-0.1748733371131833,-0.19742667156712124,-0.35784019441204723
-0.43476724715762566,-0.5389219322550654,-0.5713284123522401,-0.6025864708675386,-0.2320094508294649,-0.20870610839530337,-0.22017390713804808,-0.3474836630958563
-0.3903269936694752,-0.5466217354729616,-0.5300379205914626,-0.5431420847673869,-0.22639308178925416,-0.1917805038172094,-0.2276240746696498,-0.3881894484664361
-0.36318419747602637,-0.5446412457425064,-0.5051122895549268,-0.5128321675845073,-0.20039858926542597,-0.17555461741046677,-0.2355474350371976,-0.4732955754643328
-0.3864818986835345,-0.5518716957595827,-0.5381274453095792,-0.5307612803879466,-0.2404409664842692,-0.2009259042014483,-0.2529392447417896,-0.49372713096043935
-0.424143758867429,-0.5517223102128075,-0.5686361728919633,-0.5713016824069475,-0.2774310627647003,-0.24131568809186657,-0.3122534839369048,-0.514043453056585
-0.44031890339795227,-0.5693399357089731,-0.5839813413436303,-0.5957607461034461,-0.3148260309524557,-0.30663545449141005,-0.3481004282803103,-0.585315647815179
-0.382822269821627,-0.517429773687106,-0.5024686409616046,-0.5095712623675467,-0.263458131795743,-0.2168073935135214,-0.28024414533264713,-0.6301382717973333
-0.40250475253132506,-0.5555959320289968,-0.5097670668289834,-0.5186763632012893,-0.29343734304216484,-0.23048092868147668,-0.2758167741864712,-0.5824373777589674
-0.4039107817286943,-0.5270875675391923,-0.5540317482083454,-0.5439578253500507,-0.2525883548761223,-0.2186435278979709,-0.27479734766132635,-0.49612985241867014
-0.4539737150416998,-0.5638137984629492,-0.593217457870889,-0.6113723749359279,-0.2584947863265578,-0.26385051921213143,-0.29035287920038677,-0.4713330062230583
-0.3879901033294463,-0.5483777750029354,-0.5225425365972963,-0.5202191091726577,-0.18351655363970776,-0.1720838814912991,-0.20297534194283454,-0.38173965052418374
-0.39168463287285593,-0.5694345049762957,-0.5166087949823702,-0.535762452237392,-0.18853492013240472,-0.15320809301817886,-0.18598848586554134,-0.41105546113374813
-0.42641537477195024,-0.535921097296705,-0.5394309528355159,-0.5518056733879807,-0.1858066239907614,-0.17173925825904227,-0.18767334148607318,-0.37907779236453343
-0.4522943342880332,-0.5438234098099067,-0.5936337196359516,-0.6195672165904098,-0.23681234593114314,-0.24931643954629915,-0.2516106753724143,-0.4239980261440938
-0.4278508484760283,-0.580228288754847,-0.5548513521027806,-0.5875101648003005,-0.25010306544388966,-0.23965634354182314,-0.27685284425141965,-0.44804339217872385
-0.39520491688852066,-0.5454708969293285,-0.5182342331909059,-0.5286386344650339,-0.22119292275845176,-0.1768266959736982,-0.219482772321528,-0.5103500110753997
-0.40544895732191705,-0.561601644937738,-0.5412488364359083,-0.5533630304755808,-0.24429450414653714,-0.21059396859538765,-0.2579857708638086,-0.5340447292198811
-0.4388288244022011,-0.5924997140987946,-0.5765304735857143,-0.6036982785723425,-0.28118280321670003,-0.2500444563481595,-0.2996695082084333,-0.5534836791460266
-0.4745835391186908,-0.5940159597717884,-0.6087974627091288,-0.641822865975557,-0.3152830531309056,-0.3039850988502239,-0.32650663920639156,-0.5390318180725898
-0.4060373676362826,-0.5426522123579082,-0.516977031495216,-0.5575721398474525,-0.20003363577813785,-0.15975881748928844,-0.20863783140673964,-0.43223439363933963
-0.41556935215305907,-0.5472613087646412,-0.5405851884399858,-0.5611661416038387,-0.23046226761101546,-0.1936288159226832,-0.22236382445658476,-0.47527498265157586
-0.4344143243533112,-0.5499586111290236,-0.5751803438694452,-0.5724881088323551,-0.2596891723651193,-0.22596282818715158,-0.27994232321451784,-0.5346477268714167
-0.4763325235165796,-0.6045376050126339,-0.5974528772101966,-0.6327089739835116,-0.34278518141057146,-0.30775894511603674,-0.36972831475397,-0.660376601391879
-0.4493148161172512,-0.6286948350493539,-0.59119242858388,-0.6153588338329895,-0.3736328303095734,-0.3415789825743287,-0.3994187484048891,-0.6962522928294513
-0.43560923964381715,-0.6375364116083797,-0.5661173324876012,-0.5715395817894067,-0.34792759066246787,-0.29070838891653594,-0.3682850378701268,-0.7596432091271031
-0.449160995272824,-0.6592014814388152,-0.5778052599670214,-0.5991109838468504,-0.4087791119983522,-0.34151247544493485,-0.4207463039157491,-0.8541871617360167
-0.47092770298366554,-0.7044542784304807,-0.6252178659543994,-0.6263042425177778,-0.4468000482041269,-0.39195333963074674,-0.48900161067113523,-0.9125041640003232
-0.5140098101330965,-0.7159562417409981,-0.6550496735450196,-0.6799689426704082,-0.4705226243253593,-0.4544265755216058,-0.5379344662020172,-0.9303420450402313
-0.44096439837944823,-0.7346459474976352,-0.5984495947270858,-0.586378057713202,-0.4197236552839611,-0.37562899269515687,-0.46922598013303796,-0.9183545368354533
-0.47407806931297375,-0.7495688717075224,-0.6094152078717757,-0.62591024134101,-0.42442124598365044,-0.3917889831790481,-0.4747750363659778,-0.9731564332189159
-0.48463314194715873,-0.7305056100426226,-0.6463311645309122,-0.6446372463404859,-0.4098893385456731,-0.3734716673319697,-0.4240355941464615,-0.8065858372177178
-0.5314151383896251,-0.7282919060888375,-0.6818132585825245,-0.6946747360457672,-0.3759014247779458,-0.3869857329271502,-0.428189289315814,-0.6625760008979775
-0.47252409404508333,-0.661895899002723,-0.6125550415604428,-0.633612519928596,-0.29312871496013687,-0.2607949747522632,-0.32571044169769897,-0.5545351106254406
-0.4621967814898269,-0.6242439940138553,-0.5898629140160919,-0.5903735427966232,-0.2660001871894914,-0.2280216729963424,-0.27485046021568404,-0.5710918079797799
-0.4752995092442102,-0.6540566921318953,-0.6099751129082536,-0.6391846029606489,-0.3171295417850063,-0.2716943495689614,-0.3406358175437397,-0.6215788263813512
-0.5004063146350008,-0.7045223289675936,-0.6359116492515875,-0.6666736150821775,-0.3851147037739571,-0.35149631193467223,-0.4195788752658408,-0.7427057414968535
-0.5193428849429046,-0.743509125908706,-0.6706939333821702,-0.6786956387210009,-0.4381902449437284,-0.4113255002466216,-0.4739599985188746,-0.8157888820057246
-0.4749645076357346,-0.7139058373696665,-0.5820719107356113,-0.6014534586566128,-0.38495204756020956,-0.33845655134102737,-0.4188268783948733,-0.8823236461126432
-0.49819610862055025,-0.759180924137423,-0.6128831278455681,-0.6381617778797213,-0.41469019982673533,-0.3755070886214132,-0.447477458844337,-0.8503607590424469
-0.49675324834477347,-0.7380419619529043,-0.65346495421883,-0.6567437995084432,-0.3834830790984302,-0.3499796809403192,-0.4188982106311443,-0.7817952309338865
-0.5517211739728046,-0.7688653503219516,-0.6893443508295157,-0.7164365602214016,-0.4068584137430843,-0.37799797665415724,-0.4479002625417532,-0.7125606206631109
-0.4747990125312473,-0.7153053894171735,-0.6281434084342084,-0.6330798754294664,-0.32043866476308314,-0.2799812001748525,-0.33063807793458144,-0.6646576825342115
-0.4840777080238688,-0.707396106947256,-0.6134772648080538,-0.6485104366463734,-0.35679891369993477,-0.31834742536612193,-0.39214159190978765,-0.7165631278920571
-0.5066026109806522,-0.7354587739055944,-0.6586976609968189,-0.6532563279144512,-0.3945476404402648,-0.3521349663525666,-0.4275665957103705,-0.8125705241712056
-0.5434197202858725,-0.7828469506766389,-0.693919938428702,-0.7233821105320914,-0.4623917308649754,-0.4164757257233046,-0.4983042255095186,-0.8440389737622618
-0.5084860171236455,-0.7793602433846646,-0.6463222596873466,-0.6704480631645208,-0.4416844775323996,-0.4020851566156923,-0.4727441550803909,-0.8719641540225582
-0.4740639794644352,-0.7331949111284827,-0.631331723501541,-0.6417466383945701,-0.3923263941896991,-0.3495793724672106,-0.4386254592390819,-0.8776794959487151
-0.49086140927710303,-0.7352476682908617,-0.6346940710375514,-0.6442200372293708,-0.40972698244269196,-0.3606923747666654,-0.4296152819056235,-0.8574798736271466
-0.5279236784428624,-0.7822480614993771,-0.6739666213634294,-0.6909071436074016,-0.4715550937333717,-0.40944955243830955,-0.4841613406793077,-0.8838374379429154
-0.5221964874201055,-0.8147346188396151,-0.6842925579726795,-0.6849106972008436,-0.4752322700235402,-0.4430225254923008,-0.49713619721346225,-0.8890539049622436
-0.4614941522103234,-0.7672419721810787,-0.5997195657148605,-0.6148401655519082,-0.3693295496707547,-0.33046688898225773,-0.4101727794007921,-0.8186693928493205
-0.4783109108374149,-0.7615973486830634,-0.6176839261740803,-0.6220634056113008,-0.32516231558666264,-0.29114814766150526,-0.3567315076393123,-0.7192184391966753
-0.5194713142424825,-0.8747928934279496,-0.6613800821544428,-0.6685447411079011,-0.3469941731128951,-0.3107632761845018,-0.36999417221346553,-0.7482289407928082
-0.5620001293912971,-0.8921399788746737,-0.7085790004768439,-0.7318351290732983,-0.4513896781132642,-0.40180912151197196,-0.4856206662505519,-0.8293280071409738
-0.48346323420459525,-0.8048305864202869,-0.6333276040380216,-0.6328671977713511,-0.38685337876423626,-0.33663554017872965,-0.4116668552938641,-0.8316534268873467
-0.4730387090368213,-0.7945098140349921,-0.6148695288035865,-0.6257377295249837,-0.3835024022283463,-0.3461360082577098,-0.41758189708222276,-0.8795445244681063
-0.4891600147312578,-0.8053736709042315,-0.6367667638818277,-0.6562791673719551,-0.4076765548161776,-0.36634094783552235,-0.4461036729896467,-0.8965784750667345
-0.5314857953198182,-0.8020624646481573,-0.671266766247439,-0.7119902916826157,-0.4956593512025419,-0.4458216912440443,-0.5338995664574446,-1.0092832196026833
-0.4854933603359739,-0.781604681972392,-0.6566523890155829,-0.6486694821894827,-0.4607542471014334,-0.3910948520798759,-0.4967917114938993,-0.9443372750611114
-0.48502203780788833,-0.7726176501518012,-0.6200106088724654,-0.6296182491203381,-0.36551006772230266,-0.3244867692720699,-0.38199596391777263,-0.8260499746284142
-0.49753547840731926,-0.7355463620288099,-0.6397189432277293,-0.6112715201534681,-0.3525576370916128,-0.3190543701739115,-0.39227566300906525,-0.7779819233988464
-0.515534761382369,-0.7695804168700141,-0.6419694515764958,-0.6802422645228996,-0.38751291998658366,-0.35728225927256535,-0.4132294961308135,-0.7804866964210517
-0.4976159183214705,-0.7770114236437664,-0.6326322283548931,-0.6568868727575842,-0.4026595941983239,-0.366168186767947,-0.42682382522995566,-0.8312599041064443
-0.4704913788615313,-0.7161100270782894,-0.5878223025850281,-0.5995170255127169,-0.3689300535640763,-0.31769531500629633,-0.3759430426021917,-0.8432797677704562
-0.4789062979383863,-0.7446932277228164,-0.5976620723848685,-0.6117131663254224,-0.4109773197780363,-0.34925594593352666,-0.42370753302968805,-0.9305770379607821
-0.49321563273644375,-0.7153027335841537,-0.6243294199412053,-0.6583045149185289,-0.46405226500926783,-0.41597947895191184,-0.5031033029720835,-0.9972750524463526
-0.5060049517902928,-0.7245281017841622,-0.6294393292494381,-0.6666604687811302,-0.48335849868378117,-0.43066647137750513,-0.5286868613096161,-1.0080316637243771
-0.4530930609750276,-0.7019118796819109,-0.5633317448055017,-0.5886729933176558,-0.37431507646198664,-0.30793837023422316,-0.38219490271581236,-0.8983329125513744
-0.4669431464585803,-0.716543241849046,-0.571682637918686,-0.6149898128413736,-0.35197317899580577,-0.2873933737647629,-0.35964274079895475,-0.8734095869757674
-0.48531604325192096,-0.7126307110812095,-0.5944743012410929,-0.6474864294654794,-0.35987681964537604,-0.3129700606833989,-0.3749357959661334,-0.8386458419382278
-0.5188942442266065,-0.7754847687409763,-0.6426262921480104,-0.703515232892461,-0.3981155726624894,-0.33785962724292823,-0.40762831688376433,-0.8098416665710358
-0.47275225738482096,-0.7960438734611143,-0.591795473291902,-0.6103006695971778,-0.29576821691666194,-0.23503563178093553,-0.29413749941340683,-0.7403886924366221
-0.4860116545753975,-0.8260631395116667,-0.6014248306085829,-0.6294406756172077,-0.2836686766102432,-0.24593824809308074,-0.27295585829054775,-0.6820650562901426
-0.5098706543626415,-0.8828489139163933,-0.6171892488479906,-0.6522048366099137,-0.2822064889607127,-0.23584368635045722,-0.28725852276739505,-0.6505100382396223
-0.5655869532230314,-0.9212864786730537,-0.7033306307975191,-0.7158102446671974,-0.34012309090076165,-0.297864686881254,-0.3570341302740716,-0.7087897522726877
-0.5194664769151871,-0.9643555403305173,-0.6530888550946914,-0.6850452582662114,-0.31368734094402484,-0.28312037577709476,-0.32755809213928916,-0.7394107811196456
-0.5195258457846424,-0.9641505479310707,-0.6616365207454213,-0.6875261188617123,-0.33797951617864125,-0.2821120883821669,-0.3478230280935035,-0.8413669163540684
-0.5307995629510487,-0.9443656586999284,-0.6810925947862504,-0.700506279061978,-0.35823461296693015,-0.3166848300974603,-0.37128738143547513,-0.8686853657276317
-0.5622904186975859,-0.9715696196394504,-0.7201320755646254,-0.7366322523059811,-0.4055253845224085,-0.3475429398760382,-0.4129449284605959,-0.8648165104913335
-0.567496199179812,-0.9837798378308228,-0.6950486104354381,-0.7292376501374984,-0.4159852141067802,-0.36178004140549547,-0.43583111321032064,-0.862706376209486
-0.5032024505523749,-0.9052773636402955,-0.6419661395151759,-0.6610986399284532,-0.32950370937505663,-0.28616173023292635,-0.34259482012352227,-0.8348434328296634
-0.5285407170050064,-0.9027947954609641,-0.6530026233726424,-0.6912969846127446,-0.35539965329606227,-0.28493142929521864,-0.35304455905285836,-0.8051543315767977
-0.558492024281738,-0.9042277728921665,-0.6969466845400925,-0.7290432799738723,-0.3828633233554947,-0.3345485123517833,-0.38950574765344836,-0.8443842993208158
-0.5732890971793022,-0.8823553661805531,-0.713861307186441,-0.7478747666739358,-0.4402446170430828,-0.40487093355493114,-0.4536652417856162,-0.9008352772138394
-0.5183213770846323,-0.8579644846786552,-0.6329792421586617,-0.6614690412203378,-0.3622272154125239,-0.30316267394027213,-0.36909825909455285,-0.8694797875837451
-0.5145991659333791,-0.8653353315943169,-0.6421524426744452,-0.6792220654306231,-0.3899729406696782,-0.32748097640493257,-0.40273167307647084,-0.9058390041194117
-0.5387797403291186,-0.8944400451575719,-0.6637931487998638,-0.6880997546251391,-0.3948973806577673,-0.35202232241145437,-0.4296888297232805,-0.8959185079083185
-0.5757884374535969,-0.9219337073729339,-0.7178340048443911,-0.7511635062096018,-0.47267870064447826,-0.4230894788565981,-0.4808778392161796,-0.9478419090352093
-0.5308752409609976,-0.8303079323665683,-0.6623229790692049,-0.7005190561338841,-0.4392105258629786,-0.3938404106145462,-0.4753804914301915,-0.9869917435047749
-0.5090770123619592,-0.7812628412905546,-0.6444273573343617,-0.6578379113677504,-0.43107480044924623,-0.35828866123694425,-0.4470904684141924,-0.9803341452122682
-0.5311668111890593,-0.7956687955676364,-0.6529401533613031,-0.683652712772963,-0.41715915498612405,-0.3541394659900269,-0.45389035989038273,-0.962671641829082
-0.5593552971773587,-0.7801238808873356,-0.6904335745471748,-0.7228613046540605,-0.4449185016165334,-0.3976518598897627,-0.47242041500626997,-0.9046076364772303
-0.5517691892722828,-0.7786570793818517,-0.6774803655058598,-0.7127241833516563,-0.43993527286582357,-0.3964522777658363,-0.45998920776811825,-0.8765794265144992
-0.5070403355772632,-0.7820318356236097,-0.6325982191319602,-0.660570722817981,-0.37787917150302097,-0.3190213501584437,-0.39780166178823245,-0.9032022439490226
-0.5329192968244825,-0.8112834599818151,-0.65257528714082,-0.7059001408601588,-0.43511290270404734,-0.3775707798196423,-0.44704609504936776,-0.9277965591652869
-0.5528210675279647,-0.7565173378648122,-0.682712720014375,-0.7160819709450783,-0.4675094283411151,-0.39578837716756743,-0.4697727133130328,-0.9158098855385568
-0.5790394028946682,-0.8225770310172259,-0.7097667267483537,-0.7614145731323925,-0.4827675617944468,-0.43651117028778835,-0.5323759298305482,-0.905238110697794
-0.5013351749021335,-0.7653332145320978,-0.6393469050773894,-0.6747061670789685,-0.36416468459184304,-0.32241851525202153,-0.398967471393464,-0.8480379738498312
-0.540827303913679,-0.7938078731979896,-0.6614499922435582,-0.6759641052779226,-0.43427254712071395,-0.3785297945093479,-0.4928014280257034,-0.9546993967648566
-0.549330448447675,-0.8017610770677394,-0.6892165066316727,-0.715788387723661,-0.49611721706353,-0.45024284901405653,-0.5483330098906254,-1.0488500502407312
-0.6027790787926945,-0.8318247181460743,-0.7401990639981947,-0.7974386565012352,-0.5283742578010602,-0.5065023655319637,-0.591760339240643,-1.0632665464580588
-0.5288234395165373,-0.7915283795478318,-0.6458775779462967,-0.7117882884772455,-0.42376513665592375,-0.38021436051102575,-0.45792104957813373,-0.9576739442362265
-0.5281720290383243,-0.734975954868466,-0.648381710600415,-0.6894280039339346,-0.43863097542039986,-0.372373059253397,-0.4748206020275655,-0.9940022042562144
-0.5374746196535666,-0.7153035011884828,-0.6497986525444281,-0.7020714672659427,-0.4745029705570096,-0.39505265050837857,-0.4902901808894241,-1.0137299208867867
-0.58189961480439,-0.7446447654391699,-0.7016892421838498,-0.7710017748296797,-0.4835031614407209,-0.45262330920939625,-0.5307411023687775,-0.9896024022654891
-0.5482432317602672,-0.7129594132740171,-0.6691596840792264,-0.7061355675199633,-0.3609470122179931,-0.31304190205999616,-0.3804338217947196,-0.7269405380807967
-0.5346232203987658,-0.754928040109065,-0.6531097962727925,-0.6797007804116662,-0.27713089733458957,-0.23607297954457668,-0.27407915564611807,-0.6432807291165941
-0.5539475431573521,-0.8113302222561456,-0.6682667169037084,-0.6990373283295768,-0.35363958561613407,-0.3103378696746445,-0.384029779999871,-0.8133922713795478
-0.5837270607519421,-0.8872901050611814,-0.7115701607574677,-0.7450232214766722,-0.489034310833003,-0.42399409742642735,-0.5169869661587029,-0.9403618534431872
-0.5807959408050474,-0.8433945064040543,-0.7290997361231613,-0.7739816858550909,-0.46331817075435866,-0.4219871936115194,-0.4863579585177257,-0.8657881086067266
-0.5375270862703876,-0.8180282968318671,-0.6570112539646779,-0.6839118082173715,-0.3275852393055194,-0.2690703828890595,-0.32944595160239387,-0.7353727432839848
-0.5575054674688,-0.8342438175071741,-0.6967622719109963,-0.6964975951499917,-0.35656222595255893,-0.32251878770234166,-0.3712032994244951,-0.7837727257133736
-0.5721929737686947,-0.889489634394661,-0.716392306588067,-0.7324275053719999,-0.4120578888109998,-0.3893764959724788,-0.4562845321624066,-0.8814346778669903
-0.5980963573477154,-0.8424810853527047,-0.7336822035735351,-0.7794522341037754,-0.47424810307267296,-0.4198217140326039,-0.49008172763767843,-0.8502106879265311
-0.5211379448158246,-0.7763108101592597,-0.6579415148701286,-0.692931584305873,-0.29804141057210337,-0.27493889842327546,-0.3134142423731687,-0.70504111676163
-0.5384294813878535,-0.7633776814540982,-0.6697370328240723,-0.7039287488316874,-0.3238079141734458,-0.2957207664382484,-0.35369974590418746,-0.7413661326300414
-0.5690562709585548,-0.7608404357891669,-0.7083914280480423,-0.7329630534353738,-0.3808075671072532,-0.3529233264612676,-0.4215719171686777,-0.8066280394342304
-0.6115635047766504,-0.7879868450813697,-0.7636234315382334,-0.7884073524061221,-0.4210588915089352,-0.40311625477558266,-0.46619555243950517,-0.7653574393123685
-0.5389098576515376,-0.7562992201649151,-0.6632323874542544,-0.6898349789710024,-0.3354039442280948,-0.28994383765761217,-0.35566232097970607,-0.7913915870687672
-0.5408349045641696,-0.8008514356968507,-0.6733771383759448,-0.6929885500146494,-0.39852194584851386,-0.3245524841033286,-0.42173969198529904,-0.8346694834636775
-0.5589343230120601,-0.7881363339645773,-0.7023926863035368,-0.7183910675250362,-0.4220307979282152,-0.3869740779525357,-0.44812690896078217,-0.9342038812158686
-0.5948441002151772,-0.8111107712999749,-0.7291428784543947,-0.7850821354637665,-0.4762742694010492,-0.4306460911405603,-0.516134438557613,-0.9185102772160432
-0.5458100884921686,-0.7823259113286878,-0.6854449577070295,-0.694363890609191,-0.38331047001313584,-0.34970050909397243,-0.43353281136769106,-0.8574974430187998
-0.5424524758756812,-0.7702161847681662,-0.6608710448132047,-0.6957898807237769,-0.33698106200018385,-0.27959572795433624,-0.3625052236008717,-0.7720372177273735
-0.5448536838511504,-0.7425029945166581,-0.6596175289519682,-0.7167690788158039,-0.32854667033657803,-0.28396324013666857,-0.34560934859034653,-0.7560360451128292
-0.5756890718024821,-0.7260253657547083,-0.7065594858651177,-0.7711026004009875,-0.3454222359773455,-0.30972311878241965,-0.36322851558654645,-0.6816706119560674
-0.5806290566896497,-0.7376341633203709,-0.7152888376453026,-0.7684847474275045,-0.4105348098929392,-0.3660303112656623,-0.42882316260695874,-0.7828040664566669
-0.5289834384121862,-0.720955426290058,-0.6696297922774626,-0.6867106161135486,-0.31060546353412116,-0.2592288685041811,-0.3120204708999778,-0.7128078572793863
-0.5661437065310241,-0.7811508346468266,-0.6827136337889397,-0.7421500077281221,-0.3006432544391129,-0.23479750220128515,-0.27394327297113696,-0.6672230463009478
-0.6010525726985279,-0.9018283034123593,-0.7282775287023284,-0.7739829958287621,-0.2763429580926455,-0.22670766524326835,-0.27442056886743316,-0.5170027221748165
-0.6730646522789664,-1.1120972337420296,-0.8168201473889138,-0.8795893168368925,-0.3437767733614762,-0.3129360107659398,-0.36811456653625374,-0.635786511270867
-0.6240360721191593,-1.2628937874724204,-0.7742501238543906,-0.819395981884421,-0.23056759841518043,-0.18566271757792313,-0.23362052389200444,-0.5162023842539208
-0.6690957734918227,-1.4967130674867293,-0.8599505745983713,-0.8769830984459878,-0.1801467371064152,-0.13616851894132767,-0.18133952965885938,-0.4008518326662753
-0.6978320990769054,-1.5517242066523853,-0.8795547347406836,-0.9294990653715145,-0.11703244306110538,-0.07944053317471589,-0.080351189137258,-0.1538491065041843
-0.7470108825418269,-1.495467030298892,-0.9350685208217151,-0.9769703222308075,-0.16976854624724466,-0.14356402405507895,-0.1761250835894005,-0.14082738969754954
-0.6863658029125781,-1.4256098507544381,-0.8766283217816071,-0.891194276510158,-0.1243157104124237,-0.11650721075067255,-0.1068562685692728,-0.18753428322008497
-0.6619689414379668,-1.3565993507083363,-0.8624175439643951,-0.8974850193001276,-0.1323862530291703,-0.09856510911992175,-0.1242267568203,-0.28466075586397716
-0.6857027940652786,-1.3306057317843982,-0.8855950782632749,-0.9155851230184164,-0.1284399197928035,-0.10053086736322825,-0.11785715679626535,-0.22387118573573733
-0.7120266784217435,-1.4027044193022047,-0.9421394642211802,-0.9796514688053922,-0.2035495485853472,-0.19322146198860113,-0.2013704188180983,-0.30354678593031376
-0.7017972466911578,-1.4221294394744444,-0.9111385841422204,-0.9480280334293913,-0.209547490877264,-0.190184607578927,-0.20644376616618493,-0.3629089245102007
-0.6758662180230385,-1.4048196827844053,-0.879376131364904,-0.9095065041779213,-0.17134266303218337,-0.15250615073385926,-0.15678267264516704,-0.4063436852434242
-0.6907767675453088,-1.442255291814623,-0.9125461062613587,-0.9336398709897731,-0.13970101879608188,-0.1145593456164099,-0.12082624890598082,-0.26977901657396564
-0.7195192012077835,-1.4131275394574174,-0.9252544716421716,-0.9807793675516177,-0.15843113282009194,-0.13050815289395543,-0.11839103409486783,-0.16022982003603015
-0.715047787237143,-1.4039459748252605,-0.9325620635342016,-0.9568301632690102,-0.1708401241206562,-0.1563436584554159,-0.16570296919519736,-0.20059197539168488
-0.676471485038428,-1.4292521168072334,-0.8900015566020939,-0.904627978182063,-0.15411397123067877,-0.11434465802727205,-0.1145646376590521,-0.2975122409569188
-0.6991530083388596,-1.4893623343586333,-0.9331968730907867,-0.9490128817414247,-0.17233320381311654,-0.14490860904383654,-0.18845810447091887,-0.33933696029688654
-0.7374017411834053,-1.5364014308811567,-0.9534938294614607,-0.9841291813860247,-0.22088431389669133,-0.20303192565770717,-0.22111561614848607,-0.3407557026290604
-0.752707377398159,-1.4861281455428983,-0.980376353546921,-0.9988645436912285,-0.28353523763070193,-0.2695365361313104,-0.2971909891262241,-0.39993221249260374
-0.6811442549824046,-1.5274050429311408,-0.904849877345342,-0.928765735221573,-0.2115374786300484,-0.1760946363666635,-0.2097513935071103,-0.49256910179644264
-0.7052930117680373,-1.5261869394879222,-0.9187058678704789,-0.9560133399318127,-0.25233494761661884,-0.20259434692114991,-0.25108000036231504,-0.5162311008509702
-0.723306517291567,-1.4787929452685655,-0.9472453929964917,-0.9677240181909592,-0.21986827115996427,-0.19765019466545203,-0.2182623987131723,-0.38394491820340615
-0.7558091775793714,-1.4517863462723308,-0.9818444670756092,-1.014603183135279,-0.24734682211845738,-0.24491476904962398,-0.2607694373812851,-0.29047395489426453
-0.6650946403044862,-1.3688351664349072,-0.898130355751178,-0.9139175709861318,-0.15363492502373227,-0.11104215035094128,-0.12865379008550423,-0.2703126281647384
-0.6689269590433216,-1.3633678935792688,-0.892340528785758,-0.9216377553127277,-0.16447725640883187,-0.14546057968715004,-0.1676678169205994,-0.33098406063917096
-0.6868552054491777,-1.352222745770447,-0.9074775785739736,-0.9562883572382874,-0.1818729186300836,-0.16457181353511044,-0.16304655418821223,-0.35954256490465347
-0.7267886856494525,-1.3690751700032853,-0.9445821158930632,-1.0039784388982345,-0.24228854168652614,-0.2276705430877037,-0.24111256456205746,-0.32638165423186166
-0.7014817227517594,-1.3713223503161212,-0.9465480662608423,-0.984718697778366,-0.26647540083691,-0.2370142205978693,-0.2631210066609969,-0.3892989590752932
-0.6772292340950246,-1.3752626285416887,-0.8951130694895374,-0.9226128947416182,-0.24253432746867035,-0.2190117568318667,-0.23871221550435512,-0.5227017632841472
-0.6895192912511877,-1.3539316049514827,-0.9203273154398355,-0.9290654371144142,-0.29564809286463495,-0.2626364739568323,-0.3114989180086173,-0.5934116045807848
-0.7197274646933833,-1.3961654460561417,-0.9491457075707126,-0.9759994414858428,-0.29917034509416673,-0.27653756211447583,-0.3209348230977794,-0.5632985952028181
-0.7454656436573508,-1.3949861202574858,-0.9681777919695513,-1.02319259299476,-0.354247100414168,-0.3323697142790683,-0.37974607259187976,-0.5802422401631037
-0.6680273995305901,-1.3463725925199026,-0.9010193636781958,-0.9243568362928068,-0.22669536768283452,-0.21365086229070157,-0.22687467856208518,-0.46665093146539527
-0.6890287342328844,-1.3385861781736519,-0.9217549493020585,-0.9464662374083219,-0.2358274915253682,-0.21776881528332376,-0.23249626745834362,-0.4348635419430089
-0.691270267563638,-1.3732150376586856,-0.9450163253136435,-0.9731560362445724,-0.21991523837576135,-0.22263691736997354,-0.2382011482092196,-0.39448311219256627
-0.7501242565783017,-1.3694136223204227,-0.9929894471583733,-1.0384445448680861,-0.31553999472820626,-0.30378888491076894,-0.33582125517881195,-0.41305599102819546
-0.6966899405295414,-1.4094463068378045,-0.921078990997267,-0.9455882104320837,-0.26717846817979507,-0.24876638638545828,-0.2987517563416098,-0.4676431715672802
-0.6889635115966757,-1.369376578831616,-0.9177813266792602,-0.9421666274166713,-0.26138844216575347,-0.22592472985617346,-0.2716575262970025,-0.5095149084312859
-0.6949436126488276,-1.372205272930511,-0.9311303044886774,-0.9442227850493299,-0.24818622683958155,-0.2208431659169982,-0.2740915209701831,-0.46581231292482894
-0.7326915937791902,-1.3538804696060505,-0.9544902545327392,-1.0262706939404875,-0.28227820909291346,-0.2700755071536707,-0.31972379890140723,-0.4259611443577565
-0.7609462044798305,-1.34679138245031,-1.0139478126859829,-1.0452524491617114,-0.2914057959988873,-0.32321962323199693,-0.34283834338528185,-0.3940171824956159
-0.6645332027010145,-1.29969250406331,-0.8920773749474044,-0.9157194338985251,-0.15591975541951275,-0.14212050800385945,-0.16738249086798726,-0.26402119545749014
-0.6892636954489989,-1.256392036305153,-0.9130949330494279,-0.9419696580768894,-0.1560856217251492,-0.12320276640886031,-0.14790226804171994,-0.21077420828384613
-0.7028519346478627,-1.2938255608302696,-0.9444579697735693,-0.9632218054932146,-0.16364090050293859,-0.16253377040035422,-0.16352717116699517,-0.2080861907198281
-0.7402364072500256,-1.2841882124454758,-0.9822954604431605,-1.0265161309248167,-0.24593944658209188,-0.2574399857311758,-0.2930806801061857,-0.27894267127458994
-0.7402142625078016,-1.3284885943141829,-0.9845895396059668,-1.0464730353002132,-0.3470800293884181,-0.35225919770400105,-0.3739718188520875,-0.40163637115791656
-0.6671822074410512,-1.2686658221607579,-0.9066988750472491,-0.9370478617511772,-0.2158119078736889,-0.18912517626556946,-0.20352953981007438,-0.3483486610975677
-0.6942065790276402,-1.268675664054592,-0.9246625778897953,-0.9558055308278832,-0.21792561830625104,-0.20167776805562637,-0.20202129342992237,-0.29094795762466624
-0.7141738985165413,-1.2910678282048584,-0.9493385994548229,-0.9912042702336764,-0.22800339996394065,-0.22631742116224168,-0.2448120115937939,-0.282256421558598
-0.7569160664399867,-1.31293464223799,-1.0153193285202218,-1.0604800804350178,-0.31001391525361177,-0.32830573756260617,-0.3390464552707076,-0.29644925387045806
-0.7665075748603184,-1.3237893269467473,-1.0165890114846838,-1.0587882384391394,-0.34606976551874946,-0.3529944295184321,-0.38361863308430355,-0.31665712135503515
-0.6805287029614123,-1.2741381342993205,-0.9171625136533704,-0.9527867053624952,-0.17086807559560424,-0.19750913513546844,-0.19624995400788656,-0.27475968701706355
-0.7120798596832932,-1.3057560804330444,-0.9557968758416735,-0.9908151985986579,-0.2211118077816377,-0.22877109344187238,-0.24831857049609207,-0.26786294477491834
-0.7305657318282908,-1.3113051858486646,-0.9770021683768771,-1.0191450819995724,-0.23888490677950858,-0.2704574498185941,-0.27668802852990626,-0.29663514366043725
-0.7750753748227495,-1.3355197824883733,-1.0224035745695625,-1.0831104968106269,-0.32941982212288784,-0.3649475392204528,-0.3882352543357452,-0.368593684061835
-0.7588683598242681,-1.2979060597032646,-1.0031779767478013,-1.0413279371290483,-0.2799784128304133,-0.32537345240506593,-0.32789426593222193,-0.22288251600504247
-0.7040328824297221,-1.2777726761616481,-0.946651048586945,-0.9881005538321841,-0.1707207014158637,-0.19757547034615736,-0.19498830972771505,-0.14643086426667462
-0.7126532135547681,-1.2504349792563185,-0.9670784405088052,-0.997820663915155,-0.17575735527736155,-0.19099141978306855,-0.22691653320267718,-0.13880106493882668
-0.7517101822193722,-1.2618334172895418,-0.9893323719020288,-1.0393590831675132,-0.23134608488696562,-0.2634462842860974,-0.267809874162562,-0.17102128125450247
-0.8059095934943237,-1.2794658068496412,-1.0574432809091832,-1.1087548147449127,-0.33958618342263147,-0.357191175748185,-0.3818567356832867,-0.21656420254562758
-0.7423260287618021,-1.281755845224449,-0.9705964559549141,-1.0151360458408205,-0.23502347500563897,-0.28998028217585675,-0.3015136356865903,-0.23968597765551955
-0.7135687154334027,-1.309208417862043,-0.9316767934790968,-0.9798138894097124,-0.22552770619960455,-0.22956588301334335,-0.2736196226245138,-0.29549422825440597
-0.7193765096329194,-1.2706084350789435,-0.9572104961974263,-1.0062803759833066,-0.2821104187339522,-0.2911071576648898,-0.3492750119272695,-0.43365933397438894
-0.756257330389122,-1.3056058960963417,-1.004281928674967,-1.051890086904529,-0.3392541641385405,-0.37255156091283964,-0.39174805149578507,-0.45021321149101373
-0.8113309384712357,-1.3311711573343072,-1.0512603098312576,-1.1241170101931812,-0.402231203741239,-0.4326950113884186,-0.46416207372976204,-0.4360437397619442
-0.6947448790751019,-1.2992784958010657,-0.9492586452354296,-0.9968541681257848,-0.2697166971135271,-0.3003119256408969,-0.32119711759683517,-0.37283194169196243
-0.7015263237497659,-1.2997384314280804,-0.9371368541002649,-0.988646401709673,-0.24050906665371344,-0.24243735540243602,-0.27516889366882025,-0.27242911942022546
-0.7079241537142269,-1.2583693808715317,-0.958387122784864,-0.9977532919188283,-0.1916430555690429,-0.2265053449076948,-0.24125352299005792,-0.1649563756811658
-0.7519791778459082,-1.2837539398452968,-0.9942335760555856,-1.0649547405557223,-0.24379650998363755,-0.27614744242943096,-0.2886365573256625,-0.1943083117043028
-0.8009777493232798,-1.3401681354162875,-1.0479248350496273,-1.1283736967133116,-0.3566789733910208,-0.3708821139056657,-0.40727156868090464,-0.31408996911319126
-0.7105955071171544,-1.3000052828573967,-0.9424651965587936,-0.9813102136854236,-0.26545375090804696,-0.2900884790008892,-0.343584779870313,-0.37927217191246787
-0.6977880499512088,-1.2988621510507914,-0.9281893462393712,-0.9837626203475784,-0.2509598535605465,-0.2540121548139189,-0.2974330196704966,-0.3568863209233105
-0.7266183068102257,-1.2815231548428696,-0.955130210388709,-0.9869719749560917,-0.21168427540237517,-0.25928038876569504,-0.26812354364924024,-0.2683978869721231
-0.7598164131669918,-1.3041473483731043,-0.9832482860633179,-1.0490829860921995,-0.22753081005223402,-0.25040471379370516,-0.2868217519358571,-0.1550408761103139
-0.7985069822849071,-1.2964418206415023,-1.0441566324326015,-1.1188999121735372,-0.29230439306634765,-0.32553306971931484,-0.37432379748721556,-0.2524699989422639
-0.7046428137814821,-1.2779968609243604,-0.9662407729478588,-1.0084012352429772,-0.1766504642042469,-0.2097502219954036,-0.24497071512379165,-0.1809201650244036
-0.7128750037544771,-1.265166404438719,-0.9519362305767607,-1.0070010069017794,-0.164921053931409,-0.18852204560147912,-0.21836107747233718,-0.14298517454135606
-0.7141996641471304,-1.1835641470200926,-0.9405768566573603,-1.0044120097380513,-0.15866819837659363,-0.15892744593667152,-0.19634255910947251,-0.12322072808113001
-0.7516688332647363,-1.1644082074237823,-0.9758854023488203,-1.0478320560082817,-0.20775821027325667,-0.23649765626947075,-0.27793190842361604,-0.09972155612624942
-0.7741639821035209,-1.277530199602292,-1.0176048559365751,-1.0812714884857906,-0.31338089022409776,-0.33079578864761194,-0.3814287491121354,-0.27672097107126936
-0.6715962795372624,-1.2036924978160712,-0.9142953773680369,-0.9600726946777678,-0.19029788868304626,-0.2069839031037533,-0.2740204259748683,-0.2812538518781803
-0.7024145217197807,-1.1821023995224584,-0.9350902613904879,-0.9637530799431937,-0.16996031222315244,-0.1852226741462987,-0.21871035129301214,-0.18627850213361472
-0.7184559614312387,-1.1575593126825523,-0.9388359846425709,-0.987125188698626,-0.15811918598192873,-0.18766278465028624,-0.21352948720943588,-0.11773505382478448
-0.7738776818226927,-1.2399443156391872,-0.9941446209652354,-1.0578908545011039,-0.25019564632574853,-0.29735195389914115,-0.34571542893502316,-0.22988663861702166
-0.7434705274453526,-1.2255835538480813,-0.989304539817138,-1.0582756433348364,-0.28227694618289273,-0.3198959693262132,-0.35367107727707203,-0.2399484845355922
-0.660876206097675,-1.1791877394870087,-0.9029655344378914,-0.9243192785718987,-0.1478828265166088,-0.16573751902358755,-0.21293575098080098,-0.18281376343528158
-0.6760823943061455,-1.1361930523353183,-0.8880866555948237,-0.9283259106743198,-0.13894591625144206,-0.17421203399387472,-0.1988716729920087,-0.1746007344167735
-0.6794353295118423,-1.185882229522889,-0.9144747145450378,-0.9550835279141532,-0.2246973626788646,-0.24294203866345854,-0.3048994819713683,-0.33827435584587207
-0.738903532065548,-1.2221731711493973,-0.9713234105321895,-1.0264011362893362,-0.3257071463696497,-0.34238706415328835,-0.41995654893732626,-0.43980053550297715
-0.7143090763862748,-1.1773762897031328,-0.9269825939172291,-0.9843419517516814,-0.2676185480807024,-0.3017468640406263,-0.34032229088803934,-0.33811706580075
-0.6446054771022117,-1.1729035878967347,-0.8478259058490512,-0.8893276807247728,-0.11970909224664444,-0.13377652116567518,-0.17691429366556002,-0.1804975200284269
-0.643454489180139,-1.1486070184824162,-0.8582254526823949,-0.907336254258845,-0.1492106482178736,-0.1565159736485851,-0.19863964881808627,-0.18701498931660332
-0.6657586953297702,-1.1645073743321754,-0.8856651753319063,-0.9328957744949958,-0.17984057894132444,-0.22206480464887474,-0.2469848129601198,-0.23850356488225566
-0.7174240968882801,-1.1684843214112866,-0.9506583280065863,-1.0087512579363918,-0.2541574782150241,-0.2853353545519488,-0.31985699620010755,-0.23727845539579442
-0.7053709255625537,-1.1952727504718477,-0.9333936771210096,-0.9968633818262496,-0.23865767297876297,-0.27729477733282437,-0.30550440636634857,-0.2040217637629657
-0.6292097789194053,-1.1448111758301511,-0.8467523629209748,-0.8670128934613931,-0.11754881186857191,-0.13617433979531218,-0.17604743993988903,-0.13142779726098128
-0.6519209418359553,-1.1323179868119504,-0.8668169118234006,-0.9012738813297287,-0.12854928157506992,-0.15070183574387766,-0.18597024305437976,-0.19229604413501084
-0.6920901642456452,-1.2206541149786392,-0.9034325882079894,-0.9397239799211473,-0.17363326115023967,-0.17518203143175703,-0.2321672414497032,-0.20993025527903547
-0.7312102667545723,-1.3507215433604027,-0.9602455348249225,-1.0144755329547739,-0.2497363277118459,-0.2693638665295771,-0.32890385880787776,-0.31009668755058106
-0.7410508370235328,-1.4114380661953547,-0.9853876633531015,-1.031676758215256,-0.2882535456697907,-0.3201717949643436,-0.3690395402388923,-0.3853135704016952
-0.6744155552956556,-1.36322462259015,-0.895797085493641,-0.9345028761216276,-0.18071401418483826,-0.1939625104220967,-0.24490481265412692,-0.3176441183279332
-0.6842824208294167,-1.2938088555512117,-0.8865355561360859,-0.9531607936065158,-0.16135314198353265,-0.1700767896411429,-0.20539542524703455,-0.1652623393658108
-0.6859685955701708,-1.2003809818317062,-0.8992281285594621,-0.9693580667431921,-0.11092961920202452,-0.14738969122226336,-0.1743800147888565,-0.03189560729786385
-0.7248575902783964,-1.1898502911442836,-0.9610220255396702,-1.0072719227049003,-0.17514362069258038,-0.20383201948759766,-0.25788995973054507,-0.07530971221257624
-0.6936027312556601,-1.1704146046449848,-0.9392282754895334,-0.9794154446330101,-0.1778767924701541,-0.19615526207870781,-0.23739273132600602,-0.035263740046840616
-0.6418055519960293,-1.1272938354443125,-0.8492787269513511,-0.8697218799180202,-0.08248873728048543,-0.06782379970283034,-0.0964975121000261,-0.024202419862897298
-0.6554365914905623,-1.1859440114343227,-0.8546004273476158,-0.8975408866901012,-0.10808485989457453,-0.13150524796911425,-0.162165065879401,-0.11158603586409907
-0.6848582963456759,-1.170963675811183,-0.9036056096250135,-0.9397827936335861,-0.1431296942593803,-0.1745439563929364,-0.19629816166985492,-0.1604344013496061
-0.7332404228594318,-1.2303542127006202,-0.9614335941869782,-1.0071349488548609,-0.27797027823308684,-0.3083842407278982,-0.34803968519001705,-0.28639401178789625
-0.7369632949277867,-1.290764842954482,-0.9850652285757266,-1.0036219287263244,-0.36452407227721656,-0.4070375569130359,-0.4730603845565312,-0.5014110976398013
-0.6319721702683764,-1.2421185573605078,-0.8485804266646217,-0.8822233745462023,-0.2579291242955717,-0.2568467870097777,-0.34091153576986133,-0.49083433283694217
-0.653137924580085,-1.2703936408543361,-0.8497537844238308,-0.8932151112215256,-0.2483102845830114,-0.2462408146060588,-0.3067048733759194,-0.41206920131377567
-0.6481919331671769,-1.1808954834439154,-0.8463528101265979,-0.9030712286926117,-0.2032196961432076,-0.22862911348325762,-0.27791505889122103,-0.31840870356963985
-0.7036997406790225,-1.2055907606167349,-0.9165518082418069,-0.9677206609055131,-0.27525837508239087,-0.32019898362422117,-0.3523054456388166,-0.3630591034220938
-0.7435020970321384,-1.253651103727418,-0.961048755720004,-1.0215293523800877,-0.3273457163214564,-0.3758397735035204,-0.45005046580132757,-0.4134413346407147
-0.6342590506229671,-1.1752104162150676,-0.8442716805836473,-0.8729234463787625,-0.22564852611285072,-0.24553237761380925,-0.2912145651684698,-0.3473310381302606
-0.6254721403511294,-1.1296629294133267,-0.8408185904656892,-0.870769496853628,-0.16639342037274715,-0.17910397710556575,-0.23105819884979378,-0.23485831211106867
-0.623885377855478,-1.1015469207901019,-0.83061749899336,-0.8630574851465745,-0.13573549884618663,-0.1726354209501707,-0.21197498760983446,-0.1824374020407053
-0.6757377675817386,-1.0968084939774898,-0.8756048669743781,-0.9127030450591935,-0.1843393502358595,-0.21502241196310803,-0.23958506383264905,-0.16139408956253354
-0.7066118612314468,-1.1484914416223504,-0.9275376710753735,-0.9650834172375564,-0.24479029503707334,-0.29373123437701937,-0.34327945340883714,-0.17469099275597003
-0.6825218676068858,-1.1493637764498912,-0.8856784864396631,-0.9279613617135514,-0.22639052477419006,-0.2702370818464533,-0.3239846333773422,-0.20329931239077353
-0.6131097671829595,-1.0846023071004591,-0.809866615662961,-0.8625630442034085,-0.12716330293076683,-0.16261781971208347,-0.20657178483305738,-0.1733299745438204
-0.6374260334440812,-1.1201418710906896,-0.8273758969257062,-0.8563102798194278,-0.1760397769700386,-0.16903115833086574,-0.2046685953455175,-0.16321489039118092
-0.674036832215871,-1.1513044969884398,-0.8675042690091987,-0.9052559458807917,-0.18925588008711264,-0.2014292364561367,-0.24206735170995008,-0.22079163573712318
-0.690871085905896,-1.1811360454559063,-0.9115658567462297,-0.9630057978521211,-0.25762195249125247,-0.2852023310988308,-0.32492909676805076,-0.22565032904871649
-0.6714969882392098,-1.180743338616362,-0.8728825640617331,-0.9177744214670225,-0.1964571283766252,-0.23396798856871664,-0.27426740624708434,-0.16702760353679483
-0.6242623288188278,-1.096362016445691,-0.8115791888578676,-0.8464864490456802,-0.1205487447123191,-0.14878075603124774,-0.17317969699653107,-0.10662349337330804
-0.6304242629059341,-1.112457478319823,-0.8300672841334324,-0.8771188193418276,-0.12530828074104394,-0.17084112667142132,-0.21508245359539557,-0.098793927183045
-0.6627423425760558,-1.1236646937774541,-0.8554274791982621,-0.910290686473113,-0.1426488774119853,-0.1998100574933298,-0.22338831735603148,-0.07467205714099952
-0.7088581933466224,-1.119016254802331,-0.9131344654924733,-0.9618905898818895,-0.2388203415080468,-0.29577047512058474,-0.33618350652963014,-0.1713617880088698
-0.6404893697714082,-1.0734646964452936,-0.8486300851241285,-0.874856061701368,-0.18746735637313178,-0.2429779181241839,-0.26685106269588876,-0.17427271890155635
-0.6080766824035002,-1.0217222048237318,-0.7774449478842332,-0.8060852316782885,-0.10651005684418598,-0.15053568718785523,-0.18794846516131147,-0.15584630573063152
-0.5937145201810604,-1.033343616273158,-0.7760039281243412,-0.8130082565628793,-0.14887904002851585,-0.14199334855411286,-0.18585788812365422,-0.13893473187659594
-0.629795162959953,-1.0738728704284946,-0.8153795393441962,-0.8389125140466236,-0.1762931338872838,-0.19166510918765806,-0.2304745400979859,-0.15116895421462878
-0.6623161511439126,-1.0639946195833345,-0.8737097257429127,-0.9154735838867369,-0.2161284025119329,-0.25733267704674606,-0.3033009075384042,-0.16819859942824097
-0.6148019253633941,-1.0433692550811633,-0.8051821977751124,-0.8185999879315836,-0.17661112465757334,-0.19917170168183332,-0.2487416843914524,-0.11496201826864053
-0.5609013797156795,-1.0006009868019596,-0.7338797219895158,-0.7571196738017044,-0.07538340636688959,-0.09419197095535847,-0.12011016281158388,-0.06856967363658595
-0.5655378761081225,-1.0118264152853735,-0.742501102973711,-0.755183368677237,-0.06820206093291532,-0.10119979454369316,-0.12751202887585933,-0.08025765788833995
-0.5930967008695064,-1.054646282135048,-0.774619094708916,-0.8096792966284715,-0.1214083665564131,-0.1528950626300612,-0.18382553680913039,-0.10257166139423682
-0.6315520753128459,-1.0980953129285602,-0.815794309563574,-0.8555998494375401,-0.17169709864724172,-0.2236386706403557,-0.24778387295364823,-0.142616650203679
-0.6215593259567347,-1.0729735504507742,-0.8133977400632697,-0.8434924576814427,-0.1664954481238711,-0.2045491909196327,-0.24799595577995792,-0.11496412022958034
-0.5491114487433988,-1.0008714010779418,-0.7096845824515843,-0.737657090275982,-0.06808709263024504,-0.08374685723222536,-0.11698435268324271,-0.07122460124379097
-0.5682809332945796,-1.0366015882534698,-0.712889541273636,-0.7493865999104069,-0.08715427660443763,-0.08261195123334515,-0.133770678143367,-0.10400226196598272
-0.5793220266699913,-1.0583689290384886,-0.7301790945857508,-0.759929775950771,-0.0750355873332418,-0.105000250697073,-0.14220755412803823,-0.12561947969038686
-0.6346080016365654,-1.028309443280783,-0.7856114430362839,-0.8209554935057884,-0.10447453149957447,-0.13893529559075984,-0.1879002161727687,-0.08220796348290003
-0.6474337335087375,-1.028239243171484,-0.8084104882573271,-0.880113967381289,-0.16673843769052227,-0.1838639234010988,-0.2539663394456686,-0.0921796535956901
-0.5414475731753684,-0.9897681939744729,-0.698895154349922,-0.7308343998106718,-0.06089810662362455,-0.05815386803850272,-0.11856135179391239,-0.022069550335268175
-0.5492616690471878,-0.960434239727133,-0.7026109221648051,-0.7283426655394147,-0.05430628578129662,-0.05826647860082091,-0.0996638911114395,-0.016399429572865554
-0.5610965122474078,-0.9170914685503797,-0.7043557324855381,-0.7221010789462892,-0.04206119024535273,-0.04775136918303548,-0.09092897056792781,-0.00877597129318372
-0.6030206149219439,-0.9953968354878658,-0.7456230156874375,-0.7898378285713062,-0.08038094733525256,-0.08831148109221006,-0.16252596026024851,-0.04006771328318377
-0.6196889969036359,-1.026457491749701,-0.7796041823549001,-0.8466079817716875,-0.13866612411890103,-0.16091471667110308,-0.21887528501081976,-0.09947948872271944
-0.5327644433203196,-0.9221897937359727,-0.675200555113949,-0.7275955411833354,-0.04499683541128793,-0.05722259049210568,-0.07964574312805289,-0.03399388305722777
-0.5549523254052382,-0.92377790704728,-0.6798743354003922,-0.7211176859270004,-0.04601081975908797,-0.06074614671164466,-0.0993252770239789,-0.03721999558545716
-0.552322591802768,-0.9208894965145303,-0.676410575472761,-0.7287367513766001,-0.05939010905873306,-0.06704523578918319,-0.12985062220984012,-0.06317850516486144
-0.6077908178922606,-0.9944737112157535,-0.751124421892568,-0.8109746871229262,-0.14020482209208904,-0.15521864738566085,-0.21454689002730967,-0.1283749704152377
-0.6523761132980345,-1.1020936417552218,-0.7720307517392853,-0.8158228705020445,-0.17728270213636638,-0.1847086865784373,-0.2648956966243735,-0.15594328070593236
-0.5364964025792905,-0.9668764933426628,-0.6372601912911988,-0.6433830495075374,-0.04499351421308784,-0.041977140636785204,-0.06222566486285552,-0.038450036512150176
-0.5224220293770964,-0.8825734162308958,-0.6208495321640222,-0.679219745502658,0.009606984149300044,0.0077060873877068115,-0.030334081944434224,0.04666248694102937
-0.5425103007639869,-0.8729249854109763,-0.6518430102885491,-0.6798365829427291,-0.035615417746984596,-0.0136383452688216,-0.08777439337483993,0.008453099795793964
-0.5972796338525906,-0.9540024130935556,-0.7205015216641653,-0.7642423171875934,-0.10195394825361581,-0.1197000518489637,-0.15499054739970078,-0.0919463630144502
-0.5908594903765313,-0.9935605963949283,-0.7203088158440585,-0.7521116429706481,-0.15303333313831607,-0.16155629914945385,-0.20682615248730787,-0.14433653090573698
-0.49866366505259674,-0.9292851448663031,-0.6183201349342948,-0.6265425463489565,-0.0023381155778145687,-7.327068187994029E-4,-0.048406489792624866,-0.06795919989520394
-0.5089185143094107,-0.8651117835206616,-0.6124939166098246,-0.646073320977987,0.005311685803219255,0.005759763785276963,-0.030924627157142497,0.010514713510067525
-0.5158640793743957,-0.876649491188593,-0.6436451060740367,-0.6659447031665893,0.0018662437983997526,0.018420864257303132,-0.022724127604482704,0.05404234482975256
-0.573036448838503,-0.909446215695882,-0.6870344242675939,-0.7321785946523567,-0.02658323808746966,-0.04579658598830413,-0.09821198539285234,0.09780614294272025
-0.5379628004653965,-0.8707735219100984,-0.6682250809333388,-0.6896759949864867,-0.03751195321725279,-0.0430785265446455,-0.06763174046428201,0.06498925700564256
-0.47586459961030425,-0.806512721311311,-0.5960703510132466,-0.5915397230830888,0.0636360138649067,0.07294824872567743,0.053013624507290476,0.11236358267447914
-0.48563836127722404,-0.7935287602122416,-0.5851296433127828,-0.5924702146132257,0.04071757538125474,0.042209922722217234,0.019293651689002725,0.07833163647215605
-0.523834289547589,-0.8990355661747903,-0.6262268864870666,-0.6623283064197704,0.0030266539559795844,0.0038466763177504026,-0.036850718506803486,0.004804535852332405
-0.5692657177173409,-0.965412411928022,-0.690407351820019,-0.7361709760098187,-0.10564047531179327,-0.09176920336821837,-0.15089317508243671,-0.0767778325575222
-0.48422429027565417,-0.9051009389031283,-0.6118318429005785,-0.6454403681672107,-0.04370339945675785,-0.027129695192119094,-0.07279448923992043,-0.11186375104626894
-0.45668377880774214,-0.8792130522726885,-0.5897784763488728,-0.6059701408263684,0.014858878579016726,0.036868732299562085,-0.008156087260114062,-0.04316806208502533
-0.45853138903771895,-0.8433824540094343,-0.6077703446645872,-0.6227533341571567,0.03870085884816267,0.0764079802168201,0.0293530931820684,0.0483610522420099
-0.5066796258049566,-0.8799856384326632,-0.6288694828067138,-0.6908489869455506,0.0121440546531082,0.011150644157706564,-0.03366640977482281,0.04071952847782003
-0.5457630390163244,-0.8575361410844059,-0.67616575426372,-0.7426407615036048,-0.04231941930754082,-0.04192211550300154,-0.07652931534743294,0.05403017104030612
-0.45051692220670747,-0.7577649928994437,-0.5668160949187482,-0.5926391513251213,0.0439515270710962,0.07536263139196886,0.04402270489375576,0.0927980125086427
-0.41313472273073426,-0.7085437518096634,-0.5347984328300353,-0.5517554714554511,0.1007812915849278,0.12548457045080139,0.09531573409605384,0.14570841706050358
-0.4343034752233022,-0.7019138381348473,-0.5480627529107112,-0.5816615269600109,0.09589724999492784,0.12069660810664196,0.0747761017324707,0.11219480451638092
-0.4766912535257498,-0.7637954321702514,-0.5897029464141437,-0.6398118051905786,0.024186478867907934,0.07116202659274218,0.027457205100661755,0.07563561190919885
-0.5264467493462093,-0.8417067456489393,-0.6451636407330525,-0.7130852227046616,-0.056378781733421986,-0.024026350537279653,-0.08814006960903621,-0.032897596785146574
-0.4850718606924166,-0.8613100692687731,-0.5999144981692848,-0.6425214227430549,-0.04001841318641482,-0.022846376752313262,-0.07879971303366423,-0.04190208859453005
-0.4273102354159589,-0.8613323432411079,-0.5353002915850136,-0.5544786723441899,0.043588453439591154,0.08423134885312225,0.045881827802111995,-0.019691121003341864
-0.44957582023010034,-0.8358638386197741,-0.543944784888895,-0.5776656792291593,0.060855787220841825,0.08491589278610034,0.0537942818399009,0.06270735237298719
-0.46754332604595356,-0.8233365956778738,-0.5647037765941059,-0.6234165809521811,0.06365844173311,0.06264269941787518,0.018714299484966813,0.08865761714555959
-0.5080734645799222,-0.8429099983097921,-0.6256769852505897,-0.6879236509375821,-0.01599912749389284,-0.025786520848151338,-0.07542798551527993,-0.00900609541294569
-0.5315810933093175,-0.7797724004557647,-0.6469238414626345,-0.7069409773041794,-0.0333472693639605,-0.0435052728373115,-0.053422112417198644,0.14274083689040698
-0.4353854805983831,-0.7379138691833427,-0.5405211840058226,-0.5644163314494066,0.09045756100202276,0.09026606810414838,0.04802142934771602,0.12775399521146968
-0.4439192436375588,-0.7737245200005987,-0.5457372446941398,-0.5750506101439256,0.0887237614237226,0.10471087218499645,0.08765469656188121,0.15259438643723128
-0.459333902702964,-0.7927253384127988,-0.5673035104901074,-0.5937679182096963,0.060100445506038616,0.0893878343653911,0.07571125710112717,0.1379447901949459
-0.5079627061484873,-0.8390626491976984,-0.6250475457690287,-0.6737960297360557,-0.02684611042477508,-0.006941730593609134,-0.06123831422937707,0.046298674948524285
-0.5499700401536872,-0.8697717469164747,-0.6770995738419634,-0.7111563526971133,-0.06920376438426043,-0.08781858193690144,-0.10391593420981585,0.02382433205904194
-0.4243809440025033,-0.7823616024630864,-0.5610775076432432,-0.6038605557181833,0.014276676306948156,0.026848764525787404,-0.004940140469520529,0.04810202774849924
-0.4519582570113486,-0.7704509011194426,-0.5753883575095551,-0.6067528240593684,-0.01649654418914797,0.007828980141350007,-0.02752108655976824,-0.106147353746791
-0.4788769922125625,-0.8002869071285461,-0.5944892865737381,-0.6175999122932545,-0.10934938001041267,-0.09375734756114312,-0.13216433244222567,-0.25923403655094607
-0.5047893707549624,-0.76081701391158,-0.6393345133779492,-0.7336609745719596,-0.14659640027681178,-0.10634071269890741,-0.20386318654281277,-0.22303903423095703
-0.5681637329729239,-0.7347306726391313,-0.7208126040750118,-0.826449126782026,-0.15151390980781448,-0.1525803549637828,-0.25136808269384325,-0.21916149036001487
-0.4523263922412981,-0.632236673071344,-0.5767480369710547,-0.6605664248266458,0.009609582569204543,0.007485605603176071,-0.05705898871047147,-0.025050488214104067
-0.44861515830750226,-0.6143897154497148,-0.5669244657579544,-0.6384510021272238,0.011826679052895177,0.05530799312082635,4.0012471087665785E-4,-0.0052516792108517375
-0.4705843458719601,-0.6641078017297648,-0.5748270235487822,-0.6375790856410593,0.0435751464812579,0.05647434664511053,0.003701359352682218,0.04824628835509183
-0.5235574653989523,-0.750006785801201,-0.6572562504313388,-0.7214591860303925,-0.012976209496961256,-0.005907325044221742,-0.05096295319122431,0.029444692002081538
-0.5907326523887839,-0.838844258976227,-0.7398315386204539,-0.8296084555740009,-0.13079780392271617,-0.14385898317630713,-0.23653125214753085,-0.14947780802448957
-0.5109517207561591,-0.9346439668760895,-0.6575257744131222,-0.737763044882785,-0.13931180313453795,-0.14562425127941434,-0.2140502084127066,-0.3145319900418991
-0.48836930981919463,-0.9769660209900953,-0.6275277232766386,-0.6937140561322063,-0.09949852166718001,-0.07988642052404799,-0.15267920216418535,-0.33535021089641126
-0.49533919316336866,-0.9046364542758584,-0.6235116928287676,-0.6750591525605916,-0.04411809970687483,-0.007164060066925257,-0.09020559919573545,-0.15382952647494658
-0.5148819613535873,-0.8699377470061119,-0.6620544177105439,-0.7274049958097272,-0.06484892503230383,-0.03058392652862158,-0.09907298142094303,-0.056770306675879324
-0.5658796099980422,-0.8603036819063575,-0.7264548873354694,-0.7988188453755376,-0.07688892279461423,-0.08232596971199321,-0.14535836239220593,0.012121574828827225
-0.5254852558971573,-0.7727396790768384,-0.655270095848876,-0.7380339792361561,-0.03575413702760324,-0.06146363998027436,-0.11129186884597986,0.024392237764097525
-0.4510691223515962,-0.7032197964867078,-0.5787944135702575,-0.6374552446478039,0.06666458755904109,0.06633860670431903,0.031386280182803136,0.17123070421130868
-0.4514976065404925,-0.6755237514846016,-0.586871649306324,-0.6285094449586536,0.08103921665529823,0.07221140267684902,0.054127151562981,0.22775479029932702
-0.5024986742804323,-0.7097311543517394,-0.6030301989085831,-0.6756002390530048,0.018008592015676173,0.02070128787555023,-0.035160654002497786,0.10440933495435345
-0.5614963557446908,-0.8071897822952573,-0.6835983165799785,-0.7677736089008886,-0.06661837231739866,-0.07787027248299035,-0.13975898410109314,0.021028312536516616
-0.4781411902198883,-0.7374059140302304,-0.5977040040829112,-0.6867440037210224,0.005865041897981649,-0.011100294043501407,-0.047082820673921354,0.12475403963738313
-0.45455175452970675,-0.7478271558980956,-0.5698388007282755,-0.6399887393293928,0.04490706728651413,0.061842484872653876,0.042009096346292206,0.14555761876467907
-0.49392205609285733,-0.8001029281566766,-0.601057208361827,-0.6643783921912962,0.0018541236648991766,-0.006185701296700909,-0.0414719301290659,0.018186639836242594
-0.548019808940942,-0.9354277458481521,-0.6928785982277497,-0.7750210663120763,-0.03917957153719624,-0.05303551137186074,-0.12287329791357207,-0.048728808574588625
-0.5998422870348611,-0.96971007947095,-0.7537042433786829,-0.8426426013780788,-0.09803042959110585,-0.12162067524098252,-0.17160919365477958,-0.053154749568883566
-0.49724673886749743,-0.8661360231159304,-0.6188023321144818,-0.6844039538069046,-0.00745322133369139,-0.014940525750209432,-0.053719477439396736,0.07037510008125746
-0.46759856292286006,-0.8854349900643217,-0.5854115659447252,-0.644392961943442,0.022895130105590078,-0.00199346331447689,-0.0360991803603942,-0.05707036893961433
-0.4825009848837325,-0.8841327139057908,-0.5964285644775689,-0.6343052365180333,-0.02136518348196031,-0.017402169348947057,-0.06813789041806462,-0.1068909900236436
-0.5076065250960353,-0.8290393607279046,-0.6275952388017272,-0.6750110094832058,-0.038378939432716995,-0.050335708320648265,-0.11052641160961518,-0.08526648275624678
-0.5411194031835672,-0.7273459656688729,-0.6531796558001046,-0.7205597385965352,-0.03950861059346071,-0.06517461911909082,-0.10185500432088027,0.07847069479246079
-0.4288601981190582,-0.6840633814871689,-0.538417182878368,-0.5648189604351977,0.0716183178273288,0.054577223427268264,0.040826643848842506,0.17073636364424422
-0.4286774133701929,-0.7127074640412876,-0.5173463329171393,-0.561254598942989,0.07008104936166407,0.09198611632688501,0.0573718141230452,0.1573091595958725
-0.4398091038782471,-0.721482995360847,-0.5269547450426123,-0.5605417406976297,0.08342363096306299,0.09962790389480367,0.05658214395543116,0.1471658588808758
-0.47274106809729816,-0.6915234577941667,-0.6022991231134632,-0.6202294967468874,0.02846203284653915,0.0256322574339497,-0.004076482678420534,0.13851102628104922
-0.5384221555849904,-0.8099669445096015,-0.6454247659859854,-0.7104781246086395,-0.058661180178986735,-0.04942834594852237,-0.1061745426057126,0.06934009089067589
-0.4470648069900507,-0.802343758453624,-0.5408943752106655,-0.5824964710317041,-0.01095183269252295,-0.008881735102702591,-0.030861214776345673,-0.0046801244670284375
-0.43900451474585583,-0.8134399069251852,-0.5272623567186218,-0.5708432170472411,-4.920428797062365E-4,0.009469186271931516,-0.05395378281341046,-0.03962396109260383
-0.44570601959024364,-0.7856562527907882,-0.5453120124397676,-0.5664860036218999,-9.874914539580656E-4,0.010493652892589717,-0.007943637557232333,-0.025013425006400716
-0.4898168052224832,-0.767920543729449,-0.5858447433302935,-0.6217796707905057,-0.020889658203380033,-0.01640504288523293,-0.0454666835437495,0.020731170365766494
-0.5240053881546614,-0.808520429377241,-0.6288598917497561,-0.6914495654400281,-0.0769225226811753,-0.08880556188358167,-0.09930931786202062,0.02733347071986382
-0.4110428904273041,-0.7442501004706477,-0.5099882328057953,-0.5453127793355771,0.033014681113324645,0.048147170765531516,0.00855183740618734,0.021142173565684708
-0.42548845220720644,-0.7524980027847068,-0.52667441798053,-0.5632749464247913,0.018608432022946257,0.033191396779226584,1.2708072933311637E-4,-0.020490395066295086
-0.42451809502558,-0.7072890119896643,-0.5359984442451303,-0.5758905165371513,0.006312576092313175,0.03989739550266337,4.137954432055918E-4,0.027214290696204214
-0.48880103794181196,-0.7352787577185064,-0.5796805913989368,-0.6473191426717106,-0.02150523356191723,-0.02700468439707942,-0.05253620404991783,0.024783584746387713
-0.5181110401114468,-0.7389540095567356,-0.6190018191600142,-0.6703916669654488,-0.07904680836784833,-0.08665858540440748,-0.1265171635641863,0.026559957813191606
-0.38484186234121953,-0.6849110530380589,-0.4619183077502468,-0.5169876796884033,0.05371429673198812,0.06889509386891776,0.05284638157348647,0.06250292168591064
-0.38711149180757864,-0.6586041524471078,-0.479195916755803,-0.5004625796690498,0.058369752396464046,0.09626925951165691,0.057597164796551865,0.03265049705419762
-0.40896555508088284,-0.6890986380029415,-0.49406517310286313,-0.5329791967949264,0.06644402857846321,0.06408064014045259,0.04555199879039849,0.08771864743063071
-0.4608329672785005,-0.7327416057084372,-0.5547445649434374,-0.5983450056444395,-0.023571589118232955,-0.02596768532222297,-0.05019464726296928,0.006907616232842084
-0.47254313726404146,-0.7698283732482721,-0.5867322441654144,-0.6209298040842709,-0.07800140370817318,-0.07491657874603957,-0.12415174282447927,-0.1305777751635332
-0.3679233830366877,-0.7229900504999471,-0.45901620742724203,-0.4824107899220121,0.022523123925849757,0.057136067463402995,0.02325062448706565,-0.05316471862462791
-0.3830143894373973,-0.7384344777933961,-0.485509095504823,-0.5135526420202299,0.04713431003114844,0.0806880513482314,0.01737479162780059,-0.034851092294052234
-0.41044359838773015,-0.7066409367443002,-0.4999401919822902,-0.5205309615688042,0.03901647818237863,0.046401464579633,0.017696433862127117,0.02409318975006429
-0.46649411597324925,-0.7173297988080333,-0.5653473310329573,-0.5937808386538345,0.01142781665310657,-0.013070468508977598,-0.02615881542204822,0.08240136391457256
-0.4521385297776659,-0.7568063158191962,-0.5531572151719564,-0.5774640865302857,-0.041078320514418565,-0.0300424438029001,-0.058259140614569084,0.01807576438185443
-0.3838544702337469,-0.7209450978986215,-0.4706878680085071,-0.4913065413320642,0.02765071366151057,0.06689519254651105,0.011617215548922491,-0.0175528819586524
-0.39771288072571653,-0.7548962210417708,-0.49283118046958874,-0.5043717592392822,0.016913410876496074,0.03159631831741395,0.004920431728857408,-0.03407219285371109
-0.41990458215508975,-0.7579125452516535,-0.5179041375568345,-0.5371341744755995,0.03281497834852646,0.026062447745343574,-0.008308162945842752,0.02277861947444816
-0.468671334151856,-0.7933566941817862,-0.5762628264326706,-0.5955840262086783,-0.05979036258402042,-0.05753433916918982,-0.09219274441012497,-0.03171864747773499
-0.38314396505012377,-0.7379378198781329,-0.4782547569653842,-0.4730593766143453,0.025544572680972183,0.055206763618171104,0.015688484815689525,-0.01798249385260544
-0.3707943610498321,-0.7257249585580212,-0.4687346527293429,-0.4751617605413464,0.04781709495918372,0.06970873817573517,0.03889623519502191,0.044719242165254705
-0.3891699181822564,-0.707167613040812,-0.47600655215791843,-0.4899177460637335,0.07633966140096704,0.10849264641855233,0.07851302808193669,0.08386677283432226
-0.4370427887319237,-0.7980061322337592,-0.5391623623235526,-0.5681241789487169,0.016873969357255325,0.024933305677189974,-0.012242605323891105,0.045076293037922564
-0.46949303966872885,-0.8476044608717261,-0.5717638073854887,-0.6054352679844486,-0.05011957976517668,-0.0615543014668117,-0.10226450627009416,-0.07436203371129027
-0.355257486448359,-0.7832240070046949,-0.4481099627045517,-0.4460119986959442,0.04495917808870129,0.07423790850041334,0.04370629500833143,-0.043225920338957315
-0.37677729914586555,-0.7324172825662087,-0.4597150941266052,-0.4680287220770113,0.02693574110361392,0.05781101972516636,0.05653635704361233,-0.030294508110702473
-0.37931026213373453,-0.7286655984903724,-0.49089746707043497,-0.48730896678975155,0.02434954335383964,0.06559329391290941,0.02785787505035018,0.01356641380654491
-0.4391352791713005,-0.79620573457295,-0.5560632892648993,-0.5646401169901719,-0.020351243117910468,0.004497153376945867,-0.04162374049155174,-0.0253412416883931
-0.446548692384234,-0.798630390510835,-0.5494120371092858,-0.5583187243388001,-0.03972773265821828,-0.017211763886872795,-0.025365259641701426,-0.018952579138516938
-0.3481498430036781,-0.7057135620124638,-0.42618153218193333,-0.4325256423759444,0.08883231590924859,0.12835924576979713,0.10521588996239901,0.08856246179988636
-0.3619916732791323,-0.7401556426355538,-0.465265043316762,-0.4521436963184625,0.09490345600708279,0.11388202770477916,0.1215011896084162,0.06360372613427812
-0.39614795732258873,-0.7827249937581683,-0.48530886452969174,-0.5096754740471723,0.050800105794861064,0.07450807149653427,0.05944520637239855,0.04306588213050537
-0.45788020142618957,-0.8452200421466981,-0.5818126507761141,-0.5802807013048331,-0.04076880651325226,-0.014237880863939567,-0.07356201090067896,-0.047637124252575734
-0.47359893433045364,-0.8912433059103829,-0.5813519107458153,-0.5959433251167353,-0.06670449153825203,-0.07121162012458035,-0.08342321269057193,-0.12889872205914782
-0.34654334122263347,-0.7616939299326686,-0.45181604960789423,-0.4418657169888264,0.04890357535298848,0.09472465280781753,0.05391010715420208,-0.024450288649060778
-0.37214290878579015,-0.7449118729162717,-0.4818446357096694,-0.4620723629251726,0.05103752215733391,0.07709733994182182,0.05861395684647947,0.03419401056539433
-0.40539122355902285,-0.7846038814690508,-0.5009233237881138,-0.4970294750102131,0.05489263632920449,0.0750376977170981,0.06005682038915695,0.010475536157142938
-0.4468667474887562,-0.8159578058813433,-0.5609637332222316,-0.5851272929726058,-0.02144035952934221,-0.004098234406171061,-0.0314949466664942,0.006658894327885724
-0.42240990307353365,-0.7887978407214362,-0.5337448223174872,-0.5337303820250516,0.01030982699749946,0.019682256247320576,8.068941332489699E-5,0.04433300120503771
-0.36370778220772526,-0.7807438408569265,-0.47174222358824747,-0.47306026688147146,0.08402270449670025,0.11167375525495189,0.08355992738262996,0.11166963434642106
-0.39524798864829414,-0.8191412419809606,-0.5010378387090741,-0.5114071555110165,0.04674585306054708,0.08401905765230912,0.04387240481502381,0.0340629017636792
-0.4502113942279041,-0.8967819529920424,-0.5304948531304026,-0.5675886618652094,-0.022754054132220262,0.007741398360523254,-0.015590668952645895,-0.05842042230592731
-0.4872954609077174,-0.9170928562531654,-0.6097875171029279,-0.6337051598899445,-0.0744240238868688,-0.07147509661107333,-0.10269210988641808,-0.03798819842477211
-0.3877034988720733,-0.8236916480576362,-0.48696953752651273,-0.48405917302029355,0.03266393359015453,0.07810188751396956,0.06740051988125687,0.07769387677714236
-0.3673908630478937,-0.7732913564023911,-0.46330903504242216,-0.47321716573412087,0.06887051133601821,0.10480003020026918,0.10479271048577671,0.11935534693066957
-0.38794916803891843,-0.8181559668296445,-0.4935132988814611,-0.4915874029468723,0.02565019329860812,0.053674773349544944,0.050197162035235644,0.05436391016935257
-0.4448057681560257,-0.8332491493832413,-0.5430072747545985,-0.5567534658549557,-0.03350581713728363,-0.0041680845188194135,-0.009648388584746002,0.016562193417580973
-0.43325090608544475,-0.7960807371855857,-0.5490649001827717,-0.5553212561944305,-0.011139816336848341,0.002145054066819467,-0.02149526715715613,0.06255516294837973
-0.3437323797392804,-0.7388836508723735,-0.42944940615367866,-0.4273022910047063,0.10512867673460394,0.13773017871362916,0.1397994842407216,0.1228844251260506
-0.3586073986285962,-0.7409096199824703,-0.4540030374193881,-0.45307439960558116,0.07968293217022913,0.10509842006558318,0.11744932515191933,0.13263446743790536
-0.4007263052420544,-0.7783274861168258,-0.49720346113325947,-0.47473351111174444,0.052617866603068504,0.07542151402932157,0.07125396741039469,0.07468534713906164
-0.43255616710475175,-0.7871829200214399,-0.536119003064325,-0.5300042305027586,0.00212409908811622,0.022126287472551395,0.018659632189703852,0.033903965757655814
-0.31862196177075836,-0.7151769485999437,-0.42291456979566533,-0.38688763787569674,0.11107703851459841,0.15323869290629233,0.15820973229427376,0.14209840364038218
-0.3487621744635334,-0.7060222247728788,-0.43401012826255325,-0.4250497001995287,0.0914623120886591,0.14430391959254893,0.12643402305968304,0.13734084457763243
-0.3736784901755127,-0.7741392481443361,-0.4529268540580618,-0.4456637169996361,0.06584260459873652,0.13215687392580205,0.12143619782271399,0.10140620048546833
-0.41353287009037865,-0.8295442199023304,-0.523645896085319,-0.526983443670068,0.03154027274896615,0.06500366285505993,0.042886581226287794,0.08949334195194891
-0.341727563193423,-0.8099968682314166,-0.425315029973229,-0.3981679916961524,0.09765206064499152,0.140485964035041,0.1566572614935986,0.15091430607179798
-0.3341435098135876,-0.7503847203237953,-0.41359694584394047,-0.40540863786860915,0.10591159012256061,0.17559337388734864,0.1783071160654351,0.10167695412165749
-0.3530053450771996,-0.7163772756433638,-0.43158639610736615,-0.42185880793991987,0.09881738654948857,0.15386721567348252,0.15995137110234597,0.12932654735299187
-0.41123547694706014,-0.7881684968150529,-0.5014214823112627,-0.4944195892633837,0.052339039409210045,0.08992685032069418,0.0863750436347821,0.11379997292839375
-0.38728689866965926,-0.7720888454406389,-0.4888252838342758,-0.4695266988066571,0.07108664315946983,0.08314439321688408,0.11413732448122424,0.13456832174304106
-0.32378401428575554,-0.7051597047215151,-0.3928973690583408,-0.3786533083934692,0.15427361368788456,0.2101985527064701,0.2135333954219864,0.22160589227862468
-0.33740270287914514,-0.6561039981587633,-0.4230265955624498,-0.39710618389245367,0.1534946076718363,0.20383216032492613,0.20892747246579904,0.23785808808312572
-0.3693747700371001,-0.7151564832233391,-0.4685037410410803,-0.4588698553501023,0.1148358889445309,0.15782002270633252,0.15535873898492597,0.197877505255373
-0.41996585455538754,-0.8173803431828428,-0.5146875932423689,-0.5014477079853837,0.04576260725239917,0.08946579172963942,0.08447381386178845,0.11677520938386698
-0.3305694786837523,-0.7084548458359111,-0.3893267932954335,-0.3797369663618684,0.15643816737729976,0.2052369356929302,0.21610145977830314,0.21359485890524973
-0.34247897792894,-0.7024826347910832,-0.43005223880749854,-0.40146840964875574,0.14302470124019429,0.20840596939641365,0.21208540577436735,0.2258512176440026
-0.34859581652659477,-0.6771513045652309,-0.42905176605988127,-0.4005194870107487,0.08519774830890132,0.17625127808259106,0.16028933194755002,0.1401257658529325
-0.40386343835045097,-0.7794881626320517,-0.5012162521691479,-0.4843957866583588,0.015745966383458,0.08086972141385865,0.050566539432519014,0.07559152814560648
-0.37584398598511193,-0.7365584122807994,-0.46376149993771176,-0.46978050993078396,0.02998669373831042,0.08861941065989395,0.09445470537525949,0.05236017263051976
-0.3227096109802295,-0.6356462665399669,-0.3934021451490855,-0.3665752032962898,0.10701178280740392,0.18078450072629387,0.1749610231975276,0.09518589072392558
-0.3289422497886826,-0.7029772362470161,-0.4229285768871278,-0.40350099369400205,0.08391044779870868,0.17633860376241614,0.16498669989073633,0.07675138244146157
-0.3747402403064718,-0.7754130844075893,-0.4521803817380978,-0.44682670768790966,0.053937691003534946,0.12190128230724369,0.12750830859053155,0.07474035591411986
-0.4174875275701535,-0.767090796783574,-0.5131272023898724,-0.5107156567307592,0.011411114408078071,0.06350870615355743,0.05967969011815098,0.07901361634452399
-0.32042114042780334,-0.6515751333223018,-0.40432175593318964,-0.3801489035527208,0.1327490902632631,0.1809948708523651,0.20267432369053576,0.17493038668301109
-0.3103283633072847,-0.6399802314387405,-0.38687746610691054,-0.38575005895550407,0.14146060526239024,0.22966371613455538,0.23067530412823095,0.19625780810700222
-0.33410104592251455,-0.6758875446856418,-0.41412863513529785,-0.3872746382066387,0.14572964655392223,0.2049128950693565,0.22036690194977368,0.1750220235187437
-0.37984506085710784,-0.672726399827667,-0.4669931828664323,-0.4599112082575587,0.0898334473843437,0.14308930029548594,0.14595459110326134,0.18967113910107986
-0.42605690739729996,-0.7192829629375975,-0.5345855593159345,-0.5182716181420647,0.02114354725256945,0.07497861895867343,0.06462384018457806,0.11676806136819422
-0.3279813754399321,-0.724338502046693,-0.40909569181110317,-0.38632440568313087,0.10272847678271245,0.18418053905852297,0.1682028838971853,0.1117134787059342
-0.3616634181352901,-0.7404431979228828,-0.42096711573624035,-0.41193864259092816,0.07840466372955149,0.166115608059867,0.16611837329330933,0.08762968454556587
-0.35551171889657546,-0.708671555564681,-0.44645705720396267,-0.4376232668830876,0.08168369909041684,0.16822004106513017,0.15698658543202365,0.12207050861972502
-0.4217724819110759,-0.7118297369028803,-0.497410391585827,-0.5105445708876827,0.0616781265201442,0.09470909377091577,0.11236089418634385,0.10061712485994961
-0.4132429536413226,-0.7534927318959421,-0.5061406137552781,-0.49733940312551184,0.05294596697546273,0.06466713580980103,0.08677926035957201,0.14652352157113396
-0.3377619978820887,-0.7215435530995749,-0.41505661015805456,-0.40088832733574253,0.12343638214613067,0.21182878047940795,0.22710357684540475,0.16360847143422486
-0.37917578252274653,-0.7828461042243651,-0.45240029733430087,-0.4551889482307055,0.0931667762125521,0.15526832076294766,0.19301482499388545,0.1503736755032983
-0.3973340611457269,-0.8501952369483848,-0.48736796676989735,-0.5043800300228378,0.06383978578936217,0.11420932222257103,0.12512033739065326,0.08460192580718662
-0.44231720754233916,-0.8591590480350974,-0.5612199974999244,-0.564854849373652,0.0159224748196578,0.04855074997669221,0.043217524704086824,0.053340143585354216
-0.4295653025849299,-0.8798388015505031,-0.541845788483184,-0.5228635730499106,0.017249423031985893,0.05822544715229572,0.043386087767196366,0.012712343842620218
-0.37435552047803117,-0.8063128678754087,-0.45194233407027573,-0.4438138919929442,0.06119812335348683,0.12839438970426478,0.1328975744863462,0.02981295221633359
-0.3884352865247014,-0.7856399536158007,-0.48688963260793294,-0.4602648742490754,0.06579754975499333,0.13555984303967755,0.13342797591272923,0.0447744222699401
-0.414863903357485,-0.7898834645787255,-0.4929178999565166,-0.5077764261217778,0.030379843775912976,0.08793921825166623,0.10621589542778145,0.08564406768741731
-0.46338134982626195,-0.745396470964686,-0.5569920616431083,-0.5443821513227672,0.027723146288360645,0.0512206939262082,0.05717787368729229,0.1541157058309216
-0.3964865844382516,-0.7411221462622319,-0.48267736852160725,-0.4608028724078859,0.06106913293623338,0.13266139657914994,0.15913824676670135,0.14925636677782864
-0.3828799995395188,-0.7744953501509382,-0.48838468431157966,-0.4355530026944889,0.08328622672550892,0.1534915721466037,0.15338541730907976,0.0961689443029217
-0.4040651100623795,-0.7780970636991367,-0.48420727635099936,-0.4592901717154993,0.08054589958600356,0.13959579556641621,0.15184332837718245,0.111235150833738
-0.42978191514518765,-0.7047046113365798,-0.5342919609768325,-0.5189480113060362,0.06832316150466404,0.1262927871669487,0.1455686446677492,0.1619497462943736
-0.464000943914561,-0.7413150762575645,-0.549602815316836,-0.5431023275424377,0.023439727258530142,0.06314897057673201,0.07507161338847458,0.10548939081128367
-0.3765749485070912,-0.7358717481312053,-0.48637713012545664,-0.47021780645115563,0.08218668692954229,0.1462599449265417,0.14102952404413616,0.03170573207818405
-0.42661990117881354,-0.7715708287241103,-0.5200225502985614,-0.5123855064725672,0.031208557272199323,0.08291213606879841,0.0880275375207801,0.01850859497258378
-0.4265399521143254,-0.7751661717422578,-0.5275777842097674,-0.5123992178032711,0.042598064190461665,0.09711159400289915,0.10465065071319452,0.04783700739389199
-0.4754481513296865,-0.7812701289733678,-0.5799806499685934,-0.5967077836071135,0.004916896000646889,0.05325972804490827,0.0625651987902072,0.0669016517433701
-0.43452680084689,-0.8472789071249645,-0.5562290677989414,-0.5544206553825163,0.03889967874546607,0.08032813967151341,0.08156389086733674,0.08793549451277392
-0.42079170285714745,-0.8892778976253013,-0.5223720695579978,-0.5099015017600593,0.06524148059871836,0.15029192723522816,0.1545035702720386,0.06443221429920576
-0.4255861126031557,-0.864955570917315,-0.535576955806599,-0.5359093002781548,0.0679573090987532,0.13373905748720585,0.14212156330941114,0.0955574751712249
-0.4659918424527911,-0.7900686513484152,-0.5735998348119922,-0.567585147811142,0.06354802690998648,0.10981608326286971,0.112923842072427,0.11792170090796389
-0.4941331698818243,-0.8354191178517144,-0.6161355530913787,-0.6196189699591643,-0.01418375641606566,0.03530684816177034,0.023921474257498222,0.0560865547351254
-0.41526474554431947,-0.8178109557789653,-0.5348975730150949,-0.5166187422762887,0.04242051623406268,0.11178716671500141,0.12150482985183944,0.02437850296485121
-0.42727660281943947,-0.8066797308764668,-0.5207084509726059,-0.5196339455637868,0.03892849599669122,0.11284950039044428,0.10275513258216235,-0.022916768343441727
-0.4358890998236,-0.7987936407447678,-0.5272610507214717,-0.524073919154129,0.050434060510246015,0.12312104811393736,0.12007422342339477,0.009458237976471918
-0.47161391615963333,-0.7994698325523775,-0.5897666224406222,-0.5742589045100528,0.0057973597852531145,0.06298831876906114,0.05157454007477738,0.017296127701477024
-0.48615312325540194,-0.8073400541083108,-0.6156954691419052,-0.620476253069081,-0.02103379765158816,0.010291304471912122,0.015633142408698557,0.012102050951601703
-0.40939985440509524,-0.7465496069193309,-0.495414298954752,-0.5050430336072034,0.06921756073867855,0.1322389665394251,0.12057988843719966,0.0725971198112211
-0.40111715448619434,-0.6920082969654131,-0.5007648687532641,-0.5208747062018384,0.0764533040072445,0.13009000561697182,0.14953600369331227,0.06104598361767267
-0.4101500089325549,-0.6728694185659629,-0.5141217297844997,-0.5276557676459549,0.0627854196624002,0.11779279914358057,0.09722167228447108,0.06606307821382579
-0.4594599369406542,-0.6710087503334408,-0.5741194841026349,-0.5672984670792682,-0.007926664400062927,0.05642673260555529,0.032185957620087,0.021581582907567967
-0.45371867089995105,-0.68908354994365,-0.5622080093339318,-0.5844153569976972,-0.025564942623383095,0.01124859412936819,0.025041025752155333,-0.04691549816418249
-0.4131359765974413,-0.7072235706226342,-0.5221602249969943,-0.5330419234509618,0.022458620732712847,0.059576413734608626,0.07617615247233982,-0.06995707658266076
-0.42451811787037513,-0.6854252059233773,-0.5417383085678665,-0.5536185926930881,0.038177310435030934,0.07851009888358323,0.06268524055543599,-0.04357244404190347
-0.42688913868824113,-0.632329091939319,-0.5504918267808264,-0.565455324579655,0.0015617335928411885,0.05689587130893724,0.038591061085348294,-0.024139811710009625
-0.48297312484412824,-0.7264764062637872,-0.5968967654899727,-0.6327139430795059,-0.0717792872908631,-0.017156921639612174,-0.03169468731843961,-0.060731285297632234
-0.41720950661049283,-0.657007803002038,-0.5192446981028704,-0.520455124433169,0.04048515985485179,0.08293728051651686,0.10150831212039257,0.007031630566408972
-0.40985139881622745,-0.6546076178637821,-0.4995939759527226,-0.5374522807058633,0.08538638241258356,0.12189588719761896,0.12067859757754278,0.061948255038862386
-0.43091388047857426,-0.6371377571059078,-0.5116603554340662,-0.5359162827621705,0.06608136620076932,0.12745504823873405,0.11713186159917552,0.052483332520455055
-0.45901771682595255,-0.6667489980343704,-0.5690521803940928,-0.5900843503603039,0.010058677543207384,0.04829966972053082,0.03856015289844168,0.01945705144314548
-0.4771486984964983,-0.6976899401889995,-0.5937025498245827,-0.6105018517687408,-0.047164594188712855,0.004607748948954854,0.0030521479721476313,-0.04896518375339135
-0.41428210489743056,-0.6470139316244896,-0.49790220250740136,-0.5071123309721965,0.07863061291475555,0.11569753850721992,0.11186746965508872,0.02884567707653623
-0.4253577859921081,-0.6325281931165382,-0.5230741005991238,-0.5109034871818778,0.06987610723312174,0.12739178543026858,0.1192463589455662,0.014688042037861074
-0.44593679727017066,-0.6456527667375174,-0.5163245389454972,-0.5516905369447413,0.023925758569363194,0.10634752256920782,0.10012487684035824,-0.004521404857131581
-0.4952908977389729,-0.6907137924699724,-0.5861117937240259,-0.6185854238237152,-0.04590414704198379,0.018241028620393937,0.01795597051315874,-0.0400317041582971
-0.48158265553517393,-0.7055530114541378,-0.5805672660886274,-0.5875847452372078,-0.006119931805382603,0.03766410834126886,0.011560776450595375,-0.037038855788159276
-0.4279741289076903,-0.6673847120505654,-0.5425667945502611,-0.5191655318480684,0.060936380779017425,0.12141240845976504,0.11794670311723687,0.02196710836142627
-0.4545473393093922,-0.6384929851830546,-0.5452972491017638,-0.535401444940876,0.0407978430387287,0.10830460133169029,0.09918171148204506,-0.04093694348116611
-0.4887153880324828,-0.702255250724604,-0.5706252733760305,-0.5804125901338067,-0.02939398437204959,0.026237586640425983,0.027350039148169067,-0.08739168859164356
-0.5326971155619621,-0.7820731631795204,-0.6421559169040918,-0.6570926603274951,-0.12245502700979749,-0.07045795284197937,-0.11194937897572516,-0.22935466389232023
-0.4880444704443057,-0.7817786051156601,-0.586981645679041,-0.601307782392988,-0.10068204983917471,-0.05494199244520907,-0.05262709617241142,-0.2442714456679646
-0.47547252897567144,-0.7545698308775873,-0.5669646491362429,-0.5585313819681379,-0.04930208860886854,0.013164172675865504,0.008658058542650698,-0.2245061006319714
-0.49439950229771695,-0.7780651610177083,-0.5964412515201551,-0.5992465632679304,-0.05283454430926117,0.011947744653051817,-0.0032331621138451533,-0.1908312084582127
-0.5356148300557528,-0.8027666079226716,-0.6301348238844531,-0.6373541090692723,-0.08166390083777333,-0.007007203040388238,-0.03216206616055606,-0.1784756026239355
-0.5515671100685746,-0.7747132841067259,-0.6643277682917084,-0.6866342416854793,-0.09382967886605426,-0.07130353972982453,-0.06389022366088598,-0.10984430086354283
-0.47748000908875343,-0.7006667712214854,-0.5734048685817168,-0.578499213099577,0.03239843445987535,0.10733381953224033,0.09130695111228466,0.039681691325381144
-0.48959613953888076,-0.7039210282816276,-0.5841251432395314,-0.6008993384140519,0.043191387204670265,0.10072562627670377,0.10047590161636286,0.04834035694522282
-0.4890379688228845,-0.7179407371931549,-0.6003923493803298,-0.6283424430747278,0.02642456788752981,0.07249458007629482,0.07263198754327528,9.829995552580045E-4
-0.5488768874176533,-0.7648161192026273,-0.653866735133108,-0.6790032061643541,-0.04983931143655911,-0.013370963329198501,-0.015033669024698451,-0.0646471352621451
-0.5366216435875155,-0.7362991103936402,-0.6530191968862137,-0.663819426179928,-0.08415091888894914,-0.021824748988085063,-0.028890301363241402,-0.10430094861099956
-0.47645609606494876,-0.7194955394236423,-0.5887600220459717,-0.589887770934472,0.00963095420930278,0.0732041824740926,0.07036188047080917,-0.0988134515254506
-0.4980324814544792,-0.7639699620124838,-0.5869451006087213,-0.6027144171256859,-0.013865314661927634,0.04140866358434056,0.047282928702051655,-0.11250460700950796
-0.5246029007020421,-0.7869558062483891,-0.638113147072825,-0.6517613458956574,-0.027228899512776496,0.04423228732610408,0.026836479627308715,-0.12400323941556007
-0.5621759015652265,-0.7591580204350938,-0.678234665187687,-0.6860546043577898,-0.05909727355733582,-0.019114626943992657,-0.03550696891101842,-0.07629748653250824
-0.5134910152636427,-0.7223811842323702,-0.6243698244990168,-0.6028482369913017,0.0086533351210644,0.0730846836475303,0.0763425908379603,-0.0030046712915172274
-0.501753842626772,-0.7678944857138853,-0.5946854011339509,-0.591371042368005,0.05082405142436232,0.11496756831039807,0.12262323027425594,0.023526934229847224
-0.4953026267644733,-0.7736302169274107,-0.5980270129491507,-0.6062420613939876,0.028359778202738245,0.08708455490351108,0.06587663006403308,-0.01953453352475156
-0.5245833310305947,-0.7582962277969886,-0.6321704447305239,-0.6611203603327546,4.893725378007779E-4,0.038394217849087336,0.02685673774763117,-0.05509610714873785
-0.5524344864463363,-0.7817890651279124,-0.6725508429271715,-0.6957279643345373,-0.08669889540944384,-0.035909600218802185,-0.05773553668414938,-0.09862349705152113
-0.5062661067338012,-0.755507293700356,-0.6193370222330707,-0.6032387569800249,-0.03964121442035228,0.03780885443892604,0.017926283130545992,-0.15970913440931103
-0.508982005962375,-0.7846687723698645,-0.6325383075074735,-0.6155989369882,-0.06751923157197122,0.0018703101840787661,-0.011026625606815735,-0.20155880385046865
-0.5175714534885244,-0.7643510927336518,-0.6217941680169781,-0.6449927204051151,-0.059564011627454796,-0.0056271346742410855,-0.003272480550285853,-0.20310385780872667
-0.5573146570579298,-0.8024584016084473,-0.6756622175726763,-0.6978448099322762,-0.09540815395342668,-0.028861448684999222,-0.02758370038999476,-0.12040433520888005
-0.543195631610284,-0.8241580522931786,-0.6392295279243386,-0.660668501728825,-0.046680775759975965,0.0017499181281975806,0.007198690732071189,-0.10232975992946121
-0.4989820634608516,-0.757663649158339,-0.613588712997967,-0.627094996242016,0.020251081712758856,0.10064479925314378,0.0959281955505469,-0.04878421015961662
-0.518946625441611,-0.7307306876157748,-0.6136070458120905,-0.6290730005627744,0.019152079899681873,0.08482713100297348,0.09767144091019567,-0.01584552137259656
-0.5244456282572024,-0.7612405840558206,-0.6441187647558198,-0.664420647991256,-0.0017489495404654498,0.05067237031139456,0.06813663963941931,-0.0234985916401719
-0.5740961790506108,-0.7672569152514783,-0.6989127012362378,-0.7277220588545376,-0.07492569314832162,-0.02593960348738078,-0.0276064940320295,-0.0596961703378932
-0.5248208521427311,-0.7602476043529403,-0.6408468515943382,-0.6440813030645514,0.014394938822337638,0.056026793225081015,0.05016566892653511,-0.021408838928957466
-0.509636443029605,-0.723094519724816,-0.617947941172597,-0.6228561723281365,0.01836398856130174,0.09692729332359973,0.10325913126876142,-0.028078662449046297
-0.5047727683201347,-0.7470805647217178,-0.6200531885946098,-0.651629030944646,0.02330873491676201,0.07400324947568579,0.07880712134050341,-0.032250328020702726
-0.554765139550612,-0.7380059132359412,-0.6710013074050784,-0.691104305930595,-0.04177861544160896,0.016665001081574524,0.017533258701281612,-0.09954164375781405
-0.5843340991821628,-0.8019597915385946,-0.7061271836391534,-0.7203427567653994,-0.08725363736485928,-0.045988689550988615,-0.0472572440394089,-0.10827310445595634
-0.5196827302824304,-0.8024677224262976,-0.6410202385447149,-0.6448515552160284,-0.0011447975019932138,0.07757387425367573,0.07404003487925788,-0.06688373275081552
-0.509745829988973,-0.7346632508067878,-0.6262983432232802,-0.6302399475406535,0.052335241139414374,0.10669014782875307,0.0858773423407322,0.013966855292073588
-0.5303896030097235,-0.7464006571091901,-0.630611825844429,-0.6627429573056112,0.04385214111177006,0.09511599477941185,0.09034301105241942,0.003388742916326029
-0.5648115434678467,-0.7806222798045368,-0.6782091746883804,-0.7025409434532406,-0.03780019749367455,0.021493447215794007,0.014706808436414573,-0.07401470630710433
-0.6027247070130676,-0.8373870549190535,-0.7125547995343036,-0.7383721829710921,-0.11391219051023584,-0.05113159704854815,-0.06416813651230455,-0.12081807206728123
-0.5332228287750422,-0.761342972403341,-0.6483350612704634,-0.6537486980076767,-0.013297661964731103,0.020821260428941668,0.029071025853920615,-0.1114224155208246
-0.5323006924670313,-0.729012613980199,-0.6557751632858514,-0.6481993478085599,-6.842944079259172E-5,0.039970173288169444,0.050863823329954136,-0.1251658745158767
-0.5586482836881634,-0.79917824620871,-0.6604294863636982,-0.6694315966467732,-0.021924239096065147,0.04342193025943132,0.04549231813953104,-0.1178594558205742
-0.5949982203888063,-0.8237146255385651,-0.7100600593229659,-0.7225356676956904,-0.08669679110187424,-0.0015949948598265595,-0.024786149643952968,-0.15691041013836435
-0.6137555641308132,-0.8702777182079625,-0.7591422010142269,-0.7658958854218958,-0.14953455313079228,-0.08311376488769037,-0.09643757828736861,-0.17983297864816572
-0.5637681093357282,-0.8030276299658229,-0.6755311953518823,-0.6646256900470089,-0.06329114272851555,-0.0015690494157576257,0.0021977692749740874,-0.16228965895593706
-0.5641109277435612,-0.7933569526313691,-0.6683961561248937,-0.6717982650258901,-0.0498125370480948,0.01880517284500549,0.003657553419031817,-0.11779963405173711
-0.5770028781138492,-0.8158357405538204,-0.6973153986432346,-0.693002249726211,-0.09732774122852476,-0.026375132236504076,-0.028357562648981413,-0.19994178440407473
-0.6244396718859606,-0.9138321633459356,-0.7566675465508461,-0.7642633000855867,-0.12817540594265328,-0.08328970185446447,-0.13420911986565806,-0.26844981906907756
-0.6371111221439033,-0.8903775162592735,-0.7616623630316633,-0.7778368809322478,-0.20000804917258685,-0.14659511764294522,-0.18679326814152836,-0.2864461872655952
-0.5585486512312338,-0.7310655671704109,-0.652951281116973,-0.6528549215807858,-0.10218393104211701,-0.03495674416745681,-0.08399210607397173,-0.332716451149322
-0.5525999135172344,-0.6904717828024827,-0.6767710304757746,-0.6713037906435035,-0.13955905698769577,-0.09486296222857679,-0.10242790878430838,-0.3530177252916058
-0.5693032235820472,-0.678551638452681,-0.6904698206159998,-0.6885021471696934,-0.14526068692117208,-0.10819245498948915,-0.12051951629921237,-0.3764390665471891
-0.6049598910546075,-0.7712466302603378,-0.7306264687900678,-0.7700876757933574,-0.20656693065150525,-0.1546308003993092,-0.18370385409855833,-0.42234189086394847
-0.5916736972232617,-0.7174020423826695,-0.7063211716591559,-0.7381383377857313,-0.19827025457219993,-0.15152829420038175,-0.20136873577333267,-0.3869997619275179
-0.5262185652215982,-0.6821329278413002,-0.6425983443649351,-0.6411363975035064,-0.1184935925859597,-0.029789010685987036,-0.07974583925463227,-0.35820872241452795
-0.5475625194323491,-0.6885348041806634,-0.6466969016084358,-0.6640739079636355,-0.14568112345832593,-0.061418116871364656,-0.08697740173379871,-0.3637021136542867
-0.5690110931715113,-0.7414154504878091,-0.666152393017706,-0.6856870158444733,-0.14627105333074983,-0.08339013581684351,-0.12510129122003624,-0.34473224958477944
-0.5865663274695672,-0.7412742486393948,-0.7158604100027313,-0.7420583310294723,-0.21007858451220557,-0.16928440760692554,-0.21894608549293693,-0.4224999532531883
-0.5527514350525203,-0.6386441770317133,-0.6611036365959186,-0.6798583229606299,-0.18858438010751694,-0.11386638555945694,-0.16346402878068428,-0.41544335790079046
-0.5287834750600502,-0.6476789756392791,-0.6288150618775403,-0.6334595726767833,-0.11975424377245812,-0.04028972165711858,-0.07961893982181621,-0.3578817454716897
-0.5279770100898489,-0.6666192582053118,-0.6328817627532223,-0.6557487284184012,-0.10380011277747002,-0.038544775168887116,-0.05147927548727374,-0.34048652025605014
-0.5637163418475474,-0.6594369764130844,-0.6661119985625503,-0.6828431313010035,-0.15957331502461194,-0.09412522039471963,-0.12310297167201958,-0.3656374267695352
-0.5928955628021133,-0.6667652258089642,-0.710462038835463,-0.7275337166619403,-0.23900402070605248,-0.19918770563494675,-0.22733334789391796,-0.45231955020617304
-0.54740474532476,-0.6783737936901848,-0.6424105787129436,-0.6468757528839154,-0.1861328990354456,-0.10307540372027157,-0.14524548597325643,-0.4381281871993445
-0.5263160647987629,-0.6217779652779435,-0.6220803967745911,-0.6577384430373497,-0.16601980709902434,-0.10321232482319932,-0.15818858282848097,-0.4851205416458553
-0.5301588913495957,-0.5152692498650657,-0.6182366501689459,-0.6367056476326396,-0.16326467578376724,-0.11097131221227044,-0.15458512387560822,-0.47113870050497947
-0.5537312062791679,-0.43671178599991045,-0.6282237581575854,-0.6580605466890367,-0.2511275137485915,-0.1995864346075341,-0.23341398234622698,-0.5541704828683881
-0.53723257652052,-0.42274445466442756,-0.6227783267987879,-0.66153490075834,-0.25439391307980497,-0.1980610052761516,-0.2436176130362443,-0.5303516198515726
-0.4927368448526971,-0.4910598646486786,-0.5874703791646849,-0.6091679061869988,-0.1572425143134378,-0.08197811851274381,-0.14127039103317157,-0.49041270577637947
-0.5122553440760563,-0.4935272418677197,-0.5913681470603855,-0.6156566635004952,-0.16600681420226185,-0.08842651144453015,-0.14053786048463884,-0.4611637081141999
-0.5217188672113722,-0.5184606366223202,-0.6182776032369718,-0.6347302429328594,-0.19972366228278055,-0.1386700838237223,-0.18398206416329668,-0.5208744229443399
-0.5491669512873076,-0.510683967253014,-0.6568448437814423,-0.6953757137284711,-0.29284680635054616,-0.23021169919238443,-0.28759278795230003,-0.5878592608084513
-0.49865307532560144,-0.4645038425990069,-0.5796688486422298,-0.6045509116285794,-0.1968000730750892,-0.13825195670716833,-0.18515374429290068,-0.5192699584375109
-0.496858406798653,-0.4796119455384319,-0.5713826983350387,-0.6004716813398764,-0.18411657562714626,-0.09098841913941036,-0.1582697960440754,-0.5476318911090403
-0.5049671397667759,-0.5532879233244967,-0.5830268626039903,-0.6198709070611979,-0.1919926151696577,-0.09852015017878776,-0.16373036988068182,-0.5417711635026742
-0.5447445247658993,-0.607674451695927,-0.6267403710508594,-0.679249866474922,-0.2554671828005198,-0.2033185035097844,-0.26205698128519045,-0.625803784770484
-0.5666864931943522,-0.537861627757243,-0.6449094315671038,-0.6922757688378156,-0.3248742130494373,-0.2529166773562168,-0.31124959056273194,-0.6810703231395971
-0.49893693189384664,-0.5293079755202121,-0.5581481702344357,-0.6037663077663118,-0.2193145278265825,-0.13946330458789186,-0.20081247030531418,-0.6450663199466669
-0.4981796903965282,-0.5250541987792873,-0.590384732656859,-0.6308967505993714,-0.2241847700369577,-0.1399620345771645,-0.1968230253476569,-0.6171711601154648
-0.5221507646640797,-0.5700158173904137,-0.6055338883010501,-0.6256488555306796,-0.2126727282174699,-0.14745124364905365,-0.20482450469708463,-0.6202046637594371
-0.5573164350835238,-0.5517830951000655,-0.6465747619388775,-0.6857490064397993,-0.29801761518787895,-0.2131001974945116,-0.28725447984468877,-0.659910276275173
-0.5265009424456487,-0.5287634605144117,-0.611231146958176,-0.6432497066238725,-0.2620481149480879,-0.1674084866223763,-0.21725820845485863,-0.6166888293472441
-0.5035293436550354,-0.5394687858149483,-0.5753644439672381,-0.5900828982591726,-0.17659125285382704,-0.08991807900060772,-0.13256231634375495,-0.5629633479746065
-0.498869862717332,-0.4589017710241637,-0.5805893119068104,-0.6033690295390393,-0.18662703044113912,-0.09527302659863779,-0.1343919487553346,-0.5440952600287527
-0.5026547231592337,-0.4070937764616763,-0.5821580851740581,-0.6258484936554443,-0.23065183125557553,-0.1418320588255236,-0.21332662580340095,-0.606387174768845
-0.5557949814344698,-0.41681659443421204,-0.635265000046836,-0.6791170377321891,-0.2707213638484634,-0.2175549168090927,-0.28315613505326975,-0.602160525813189
-0.4887008376811876,-0.42632290925217853,-0.5602174568677882,-0.6148307013236984,-0.19469363664743267,-0.10199102451181806,-0.15186286691272974,-0.5619576537082066
