0.008749692240049005,-0.05266584685047598,0.014351455931339645,0.050133108917993746,0.0039619400227876266,0.03262150681468619,0.04957362447784909,-0.10714024224499206
0.00575884610654569,-0.0459901535331436,0.012105855897868958,0.05314334955720387,0.012050950043315696,0.03745717451024106,0.060923925166281256,-0.0979860601613883
0.0052973128696708486,-0.04914060071701791,0.015100683223491092,0.0557057839226089,0.006666313299720719,0.039627692435132665,0.05655474051778786,-0.10475406859492813
0.004366578092731381,-0.05672411811530259,0.01725183822768983,0.05351183060673366,0.01568219361906633,0.030259426760665502,0.05288494710898453,-0.07494383009496115
0.007631011658228732,-0.04707651920848936,0.021191079430003784,0.05683444159893444,0.01364950413690059,0.03145782080846917,0.047891871096007274,-0.05514200471733456
0.007211174938523743,-0.042472822772081704,0.022708179075770163,0.0544548189725216,0.012477609052274418,0.032137488204799294,0.05355027436802674,-0.023727398870334628
0.011258234985882956,-0.03709181075018841,0.021894560354299947,0.06401680570452477,0.014589898450961855,0.02448439560720891,0.04222661279465623,-0.03193655721027179
0.010784172306394321,-0.03789611562809225,0.024166608562490657,0.06026585910569662,0.012398022615451573,0.03534952124192747,0.04529042613566301,-0.040895894212894704
0.011990222772357933,-0.042724957278289975,0.02263442922856652,0.058262229655389845,0.009499498223896797,0.03555260989610454,0.04964882715892045,-0.06588759163207744
0.009602101497206805,-0.042745389706963476,0.022314198355575788,0.06172211339134773,0.01664958773827993,0.027236171617270315,0.05351778864528129,-0.07100736035324011
0.017314274384582887,-0.03756792596341625,0.027167931501913888,0.05854638427348386,0.015814204966218413,0.03295473079768646,0.05820394152785789,-0.08295322085718239
0.017584121301411498,-0.03635954522646638,0.024156754172324782,0.0616135874086486,0.021138825069372775,0.033876754150252125,0.06337147379482964,-0.10073493710172265
0.015357891363320776,-0.03535861168182033,0.02951437490734436,0.06550207315751252,0.016512943071137327,0.03341663873743958,0.05150504164887852,-0.09547852443739034
0.02259816673896067,-0.03316554518329273,0.029373186659411445,0.06556955950019727,0.01775045362944766,0.03564283347831929,0.050303283181488814,-0.07953533546762827
0.01960404129013388,-0.028609670637514923,0.03823454272288284,0.0661549459179314,0.02148010163184811,0.03408263955420354,0.05114998186847292,-0.045881240362729094
0.02035547413678369,-0.02007796398364684,0.04112371617182798,0.06967539779548008,0.021525710842744565,0.027995346517853584,0.04126016015011912,-0.03268645445114289
0.02128594152065673,-0.019468524723146863,0.0394450695101399,0.07305098331923225,0.021085448699614227,0.031938226533170265,0.04861842960004399,-0.041220245577753445
0.024844755023973982,-0.024605836401412534,0.03986773624218597,0.07317173258503731,0.023238269120241666,0.03296293935635391,0.04881335325980553,-0.053115086496147955
0.023755690886367403,-0.013960912108340275,0.046552904729064454,0.07319284409321379,0.017514314317088105,0.04003112411561828,0.04992769678218261,-0.07053928553572764
0.03273500665412825,-0.010090095741567136,0.0465502088602095,0.08071973720856822,0.02967812755408116,0.043666823999676904,0.061607657024556436,-0.07451550167012333
0.030020189622031408,-0.019076540353925274,0.0437935960451498,0.0793074761113912,0.018911696404322085,0.04605709326725673,0.06427924737724781,-0.08943365025770698
0.03351845546678379,-0.017030566923247687,0.04914246274252965,0.08311668073111633,0.026153942658993016,0.03793740705482761,0.05993945028569306,-0.08308396329138973
0.02738428845591308,-0.0096183010089389,0.04760162859562374,0.08099274860241074,0.024836833921356116,0.03903554456566468,0.05795567405435375,-0.06891827991889547
0.025705957449625165,-0.012066642314768951,0.048188754865219674,0.08011002964604998,0.029560961573703314,0.0448838937071114,0.060257475730703926,-0.06736310951123306
0.03110259389206834,-0.002000703112779854,0.05098524408872764,0.08294968354562439,0.023505329233247562,0.04467592071213925,0.051340608444002296,-0.0398323115530838
0.02622344092488302,-0.003162313612901759,0.05070410787851022,0.07733597164574862,0.025574076768502166,0.04202532110135241,0.05036763186988552,-0.029377105578275147
0.024119950255608993,-0.007372638612403537,0.04629926901895033,0.08143540219137901,0.02947279975804801,0.03850670145280903,0.04410955247306476,-0.008455306365244898
0.02779923002348855,-0.0065561910077724505,0.04941772634548706,0.08115615590097253,0.02528956524981532,0.04188435925442698,0.048255245819523354,-0.034094058514197195
0.025723982631434005,-0.0027717162985640784,0.04874793194793308,0.08320575656786947,0.036265854619894226,0.03876151813461398,0.060553173236776496,-0.05325314146279849
0.02183865491186192,-0.004298231890126779,0.048827053746162155,0.08022815605952874,0.030444469308557546,0.04294559453648453,0.06478958773567377,-0.07329443576619461
0.023302733717002866,-0.01884962079308543,0.045511620745463936,0.08143868553098756,0.02097402286289263,0.042166337072948916,0.054612360144339324,-0.09094263287325616
0.019384669546681183,-0.026099636780556622,0.04295398839397586,0.07968726023009538,0.025966315341635116,0.04698062270095711,0.058694990256441135,-0.09811803278250279
0.02502522738446337,-0.023914135873194107,0.04567821304860488,0.07811274788224133,0.02964916874272167,0.04102827155836259,0.05691727682187406,-0.08313513308610111
0.022190114517088962,-0.018009048521750896,0.04773806400044546,0.08193012018104816,0.027000132099093386,0.043457274853231885,0.05497969128112699,-0.06334905262218074
0.016900326036647803,-0.012694948449759645,0.04386066151448777,0.07601069124903896,0.020327476778578137,0.037509792874250006,0.05369854545466692,-0.04419583005221242
0.020815078675084378,-0.013992845459866622,0.04239499440306703,0.07021317566371449,0.026183989072323204,0.03818717666461285,0.04739181336097711,-0.02350144160595282
0.015073612857787678,-0.024605779183547997,0.03862501636665491,0.06541172086852004,0.024974325997242044,0.03871176815681911,0.040530179229845524,-0.0246489412822384
0.015572518194913112,-0.02903791270680594,0.03976845257283488,0.06848115531895403,0.024095062137442835,0.038963513094230864,0.057586514091683486,-0.05125810511749484
0.015673692727570125,-0.031297428151772715,0.03664028012342736,0.07240037192814074,0.024186998070794066,0.03810935636436566,0.0630818488471844,-0.0817614121276191
0.013948182832072331,-0.02665777424215699,0.0345333815896395,0.0645448772219144,0.0272896309976265,0.0411693978309895,0.06653128253886308,-0.10657433433969783
0.01121672820496204,-0.031617253574103076,0.036287488443084874,0.07654745270569668,0.022697642610302993,0.039252091700631035,0.06324185022567744,-0.10671668433330371
0.008834267337219868,-0.03798816320723644,0.03219355117688952,0.07046611869904175,0.023297990375690084,0.04038910753959823,0.05505621020607303,-0.10255022595310792
0.008003439652219396,-0.03859884710968246,0.03317478073352338,0.06570112776366127,0.013294110469041333,0.04381442318149952,0.06340439314549004,-0.07700802512063755
0.011608383556885699,-0.027468405313998863,0.035542227980634104,0.05952864909701077,0.024814169894019997,0.04308282388171865,0.05479449019583586,-0.05203546177280098
0.0035194014677649363,-0.035277660990524845,0.03234829566081152,0.06708967614325081,0.025587901031699535,0.04056261468448656,0.056396538894087994,-0.022145498690537
0.006615845570557528,-0.02667481646784789,0.034399335239504246,0.06513373435200474,0.018987101031224453,0.03981696504958566,0.056181962294670144,-0.01747398013816896
0.0056922520453939725,-0.0321469751118,0.033782661436485596,0.06480623145758559,0.027600745729609296,0.04880669520210599,0.05816461329841848,-0.04560960563524598
0.004842020394602857,-0.0346153859366936,0.03518806547802968,0.06744023060906847,0.019937407870958376,0.05387007305984058,0.07110062362978525,-0.09036526468920816
0.00815816849388652,-0.04349336261660836,0.034593103333016594,0.07340022795296057,0.029486014281142354,0.05966683017185707,0.07905869242286676,-0.11326219650660141
0.014144811418962878,-0.042727876747189794,0.03514919866786157,0.07623090314710482,0.024265074870618922,0.054000314242754456,0.08188453032105879,-0.11518442988215748
0.009448811315981466,-0.035357011608329506,0.03611886636959195,0.07656506688191535,0.023150047303537098,0.05311923223140065,0.07356870405615266,-0.10453545058167564
0.006360393191533502,-0.04002098696931968,0.033303011384626116,0.071348139200731,0.025567038960239354,0.05381558157111802,0.06862194071279366,-0.09085357130832278
0.011320727623153044,-0.03562100951634599,0.03872042632954433,0.07314974800415938,0.01970225359262651,0.05076120411895412,0.07359133764137156,-0.06332631581880101
0.013531000730493703,-0.028512190928120407,0.04223698429451853,0.07676371581147053,0.027914693086992633,0.04993966561243963,0.06875617172123405,-0.03362759113923957
0.012024318196886362,-0.026189538635891827,0.04674337897828854,0.07768261966315598,0.027436455135505525,0.05167916695019578,0.07193163670056363,-0.019931818855079175
0.01380229816109492,-0.016918911333259873,0.04393533446132035,0.08075872613766644,0.023626431632556618,0.05494459386305762,0.06083712462902834,-0.034509421267432804
0.01470840224062146,-0.019737797226945023,0.04296296904858907,0.07873924746218776,0.01821188219823375,0.054121558104016664,0.07027341099403198,-0.057668342390162955
0.012565583333391155,-0.029885013679142862,0.04777098015734467,0.08498441927467991,0.01746340947934355,0.055284682239762545,0.07960676106782634,-0.1151866169538777
0.0198754035603859,-0.03089544201974961,0.04772830001683634,0.09106586989990227,0.024411378826617237,0.051464557460252976,0.08788417488595772,-0.1200357270163278
0.015312689526828821,-0.02223988882602038,0.04932377941975494,0.09311398671242953,0.026663949685120935,0.06305731619561092,0.08886644162477071,-0.11554503060162398
0.01775131782258171,-0.023561032284044568,0.05224184961183104,0.09188707107285551,0.02639315017549146,0.05452591397472402,0.08144666402668396,-0.09901769701858713
0.016680405661935946,-0.01772997762893153,0.05252746331859956,0.08913337240945214,0.021347956072028506,0.05070892316489417,0.07434429692457249,-0.07288756706009732
0.019241935011720734,-0.023006747693295686,0.05023354663264582,0.08688399117122675,0.02004070469431846,0.052332775304163734,0.07250603811985955,-0.07268557512007756
0.021467816344760787,-0.01789868928939709,0.051411107946796736,0.09245389101070578,0.024141049864232298,0.0575957729970433,0.08108406664635019,-0.055388437225595534
0.019474348840692716,-0.006204129219422243,0.05601576935587754,0.08940594234020709,0.026102903323459877,0.0655089318204443,0.0693900410000007,-0.04383294418957271
0.0222493572026528,-0.010715218822998538,0.05390090627520001,0.09477758883267205,0.031259743753083886,0.06418433582262967,0.08013437156436694,-0.06359386619772334
0.024164228743777456,-0.019610332608878955,0.0546026935383176,0.09429761418282308,0.023952596324723893,0.05795495565863005,0.08492395487154934,-0.09559631837885202
0.019689692689119357,-0.020583436486536856,0.055123979375834374,0.09866446022819318,0.027437923459005524,0.06254295244020601,0.08081586210618472,-0.11895762093212356
0.028063280624106294,-0.017198747019612225,0.055250465858841843,0.09813124174734977,0.0314136447640666,0.06633220212345625,0.09264594621770333,-0.11305252230311721
0.026241801001091164,-0.006566714875623171,0.06370626336329704,0.10047533022411012,0.02812542788494047,0.0683084511401664,0.08545768948357249,-0.0900149440802943
0.023757419359337367,-0.009759913122729176,0.058393600903275555,0.0978033376471279,0.03310588265329461,0.061350435249722834,0.08891839390064704,-0.09223626593865451
0.02330829973380089,-0.010748439954583206,0.058773918288608284,0.1001817828494976,0.03244472732096134,0.061096863102164334,0.08696146856300856,-0.06579462186407822
0.026619078911724728,-0.012166877294075675,0.05749686157011378,0.09613488602185843,0.023783893929222016,0.05451680834408533,0.07274885376415847,-0.04955013512635278
0.02508958338914594,-0.0040351406803656314,0.06394680143134021,0.09754720414000681,0.030703149880735414,0.06409707387207818,0.07465720652865272,-0.025543026924879128
0.0233457267904973,0.0019955850308383885,0.062220158314750536,0.09565123967275227,0.032084358140390054,0.05669098298930285,0.08214877857110289,-0.028441313382417198
0.024035129665442655,-0.00568263075560294,0.06248324742713418,0.09344379397832696,0.029955672020467894,0.059970903411410585,0.07930296307880065,-0.059757162799839954
0.020868662870742447,-0.012352765908499869,0.06220723014425283,0.10119456387680752,0.03131346252956183,0.06415086064520381,0.09157520806496613,-0.08395763752958176
0.020354720538974986,-0.016937264822337008,0.0563143960545562,0.10192687908663763,0.023716960176560085,0.0651161520599413,0.08772664811858301,-0.0988181202946698
0.021182731426506046,-0.011926264047428215,0.0578026580628876,0.10649786598341643,0.03385610187676241,0.06725682599472105,0.09897621343941383,-0.10477731296157759
0.018475310286910577,-0.021472438808901432,0.058256942568419456,0.11287863303568013,0.0288589205491341,0.06812240431110492,0.09441001091815995,-0.0975016421405202
0.024972506732183087,-0.016107997011046673,0.05525872201781253,0.11104418256440464,0.036004590775033866,0.06740430543295296,0.09656615542283428,-0.10714321556263338
0.015622619693196223,-0.020418959594823288,0.05840466231671997,0.10408302282293333,0.03144745575631806,0.06656436330135528,0.08811423594253494,-0.09083177873439523
0.01774518365482949,-0.016495318785381692,0.057038217303869355,0.10027287039765721,0.03938071500216957,0.0645280401063558,0.09313517883920151,-0.05619576225806907
0.017290724480248886,-0.013949257639132092,0.058465909802774024,0.09927062832170258,0.03417429905915818,0.06554414266157733,0.08626265413938779,-0.02055184573218325
0.020282719280521094,-0.011110079074863388,0.060631852065879385,0.09852104397380262,0.03378603478631087,0.06702835433876464,0.08720025061881023,-0.035731209903873
0.0171570222969192,-0.012774456417001645,0.05841631118807049,0.10155585152546029,0.037805668882261244,0.07230343051064794,0.08616754081340461,-0.05431926971084612
0.012726144245313034,-0.026329929895823445,0.057566414578532836,0.10066213548853295,0.03804980596364255,0.0682849661423158,0.09528943407993215,-0.07303608493881918
0.013753354772467193,-0.02072409276885589,0.0570623927436719,0.09979575170462819,0.03228422070518737,0.06719736841167914,0.10584734802690207,-0.09379090896222653
0.013616225374034722,-0.018510719612741217,0.05831601759615793,0.09982304547274494,0.033640892752123785,0.06985288056786716,0.09540911760058032,-0.10468901679650651
0.014752186550642685,-0.022416208916527475,0.05684082214457409,0.10332139411419021,0.03020095054382172,0.07310328764933631,0.09579474621882905,-0.10791261527707968
0.011431582899192466,-0.024246675751796468,0.05489895097228059,0.10226219288398597,0.03241144650370036,0.0705857695678512,0.09209772448247039,-0.09431675937819514
0.01211488669386858,-0.02657686466246874,0.053772118340172516,0.09839967455253573,0.03416574581241279,0.06846909165173644,0.09929345729684048,-0.07919573129945733
0.014383786235770902,-0.015015799637626333,0.05377526536519523,0.09656977427038939,0.026075448100902295,0.06410792136051881,0.08865640774378325,-0.03865001079373371
0.011254321205526517,-0.017026080411535804,0.05574476068656848,0.09647403699862053,0.02861848468430481,0.06892711571149163,0.08714259737908318,-0.012220425025887159
0.009641991437755106,-0.016855890379725028,0.05433138135672942,0.09878802353128734,0.025751181349754623,0.06949669616458637,0.08657172983243376,-0.031663960128505905
0.009941638410429547,-0.022081367819381876,0.05322518243090847,0.0998967870308889,0.030098851319219,0.0701242541290338,0.09863817520666127,-0.05981167306753364
0.00871918848303602,-0.03402977345088605,0.053997063101551016,0.10411043248215028,0.033891366181798985,0.07173057459415545,0.0950144760463333,-0.09213670239101207
0.012395504046737697,-0.02643287102493284,0.05555155516679819,0.10149901977638386,0.025942935227054913,0.07131359296002396,0.1012704136480013,-0.10970339060456313
0.010507031185071835,-0.025795757164431752,0.054568291371071206,0.10267543674699225,0.032599484450001395,0.0680462587840722,0.10083676081108188,-0.11288429964240165
0.005906662410303371,-0.032601913010853203,0.053727468381193175,0.10917919198196176,0.024641967748564798,0.0682414840301227,0.09046845765871252,-0.1092293207245768
0.009486617798795864,-0.03301079522604417,0.05115720563237702,0.10271362980161436,0.019594167512549214,0.06078892929042476,0.09752891384349058,-0.087723249980324
0.007319845292843353,-0.026389244162766133,0.04985236414065572,0.10059392401496053,0.028562742959310414,0.06881989102352158,0.08413245626898179,-0.06187413759719415
0.00958251216089772,-0.02607070505676115,0.051638177389986925,0.10001923280553249,0.026892880177986106,0.06829693730313074,0.08119549070934631,-0.030189646094714157
0.008098110208230185,-0.024734654436592937,0.055384728737640346,0.09923243233945592,0.028378552084812925,0.06575468785034791,0.08610619949537757,-0.02863218615476331
0.009504788763310753,-0.03308125900694947,0.05296085329420296,0.10111259337641133,0.0261423552925961,0.0649063466041032,0.09055582084168735,-0.04813300565855827
0.01747638160401328,-0.03443987107050969,0.05592818581873042,0.10206553930124089,0.027385059277605844,0.06925866202671797,0.09814355125513863,-0.08446658162155775
0.010847994333704297,-0.035400769042769765,0.047876081396888835,0.0977489684715631,0.0258011298424607,0.07043924128048429,0.10243075589302746,-0.10526476939996876
0.019156343582327755,-0.03157342391226551,0.05348585525272922,0.09851238201061419,0.033933821356303205,0.06594923107539756,0.09817967696486621,-0.10889546611635953
0.012277878348569762,-0.044770678115771866,0.052228026893673896,0.10184706507580973,0.03183794416859207,0.0663967236825725,0.1019613646964854,-0.1317359212424512
0.014021226973854887,-0.03381777626208584,0.054140109945737994,0.09953171272741318,0.027619737739506878,0.06414750647180568,0.08913851396072185,-0.10280894627407326
0.01029629776451683,-0.030068862560919025,0.05288094282139706,0.09646202818612334,0.02045192143315264,0.06780345467352168,0.08583824147288749,-0.07552135309886368
0.011344868552233019,-0.02394557738269318,0.055142207322501385,0.10021788453019309,0.02254814499998864,0.06192677536673317,0.08152740261443253,-0.044890966185578245
0.013159483886317271,-0.02217850764314986,0.05556581048505074,0.10525181507729801,0.01717600728469034,0.06151109324804258,0.07675477087299958,-0.03272803745472789
0.016948199985235002,-0.02126548922302282,0.05566737300847632,0.10463171691852285,0.02320022956112378,0.06388411363991311,0.08507214812483516,-0.05640122614572202
0.012864179508733312,-0.022173766018368034,0.056789779053363625,0.10529451896722113,0.02429472633101859,0.061696180518011616,0.08490313386265749,-0.08066891816851557
0.013827261666312051,-0.03294248474118957,0.05215087414624542,0.09928158026701679,0.02258977630576885,0.061243063028832,0.08223879142473112,-0.11484054328580237
0.018399014084948817,-0.030145876121251098,0.06011401149196224,0.10373184132453075,0.017619071606728057,0.06268121701078738,0.09543178915410604,-0.12654264777037752
0.018232104371704246,-0.03193301770495467,0.053068507730724405,0.10784272574973568,0.02929808148512652,0.0627870748498528,0.0922527522646905,-0.13557151694149444
0.018182719456851588,-0.03397802534854014,0.059215002349033374,0.11070606071433162,0.02370368949861642,0.058837717759413086,0.08434199451769936,-0.12625808063055385
0.01939337535416794,-0.029699897827646697,0.05572033585783522,0.107473115088388,0.023500773555517492,0.05377612698692059,0.0864078422527224,-0.1129299248826499
0.017307444914608273,-0.03371625742754347,0.05373726022567876,0.10771605863825912,0.020829184371477735,0.05505024657166732,0.08174876614831003,-0.10300028855701643
0.0223957071920502,-0.029146700758413552,0.059236747801934976,0.1071450037636596,0.024541028328360484,0.059226178253233994,0.07507080100956073,-0.0752607657057901
0.015448172511616797,-0.011118477736074545,0.061588961386866814,0.11428105287230204,0.021118592024429245,0.0531038644423188,0.06547228614879409,-0.05415929393122116
0.022353035381500193,-0.022645071189039433,0.05675209712583981,0.1064838944387705,0.015008800934747924,0.05077623716769979,0.06963816812723915,-0.057878015751525874
0.014713360098057501,-0.026441572500178593,0.06094779429821996,0.10896109284196907,0.02122665814113025,0.04971616157128846,0.07955268047300311,-0.09034797238240654
0.015561853000287671,-0.02954110703051659,0.0605225581160529,0.10745891088068334,0.01958795161552055,0.05197495839872895,0.07580956350215798,-0.11990316550891718
0.01897428273398174,-0.027406136917479496,0.06289708694722698,0.10400304584470481,0.025436343303299348,0.0573839197912482,0.0830776974133704,-0.13891986713126656
0.012288816331549681,-0.03532570506330304,0.05601779677799732,0.11148623259318569,0.026305469565541646,0.04996596628403906,0.0810703634116967,-0.13552278674096346
0.021855313361256443,-0.031049652259813033,0.05833947718679576,0.11103873099717014,0.02382503170044627,0.0530757370139751,0.08155223123125761,-0.140908238555879
0.01837289873592197,-0.021701683024929506,0.059763798390774246,0.10451451535186819,0.01973207259501964,0.05004675312508993,0.08026182617563572,-0.11499397533251568
0.017350097462119907,-0.023310210167522147,0.06042372637997475,0.11412361227310465,0.018836758053932205,0.054648780629543287,0.07582633847694568,-0.09356624312702012
0.017537013174425395,-0.020595239770153245,0.059952327045619716,0.1067131304317353,0.023534768301923744,0.050138397811645696,0.06309237923799556,-0.06992264230068707
0.019423050528841,-0.022024282777830556,0.05902454618787942,0.10777225809825634,0.02566517945059744,0.05360380675563368,0.06833649027519285,-0.060556513545937156
0.014032397353504613,-0.021254549935880607,0.060707666220852774,0.10841541432071897,0.02066499823041843,0.04844951788851354,0.07663779748818494,-0.07399231733076511
0.01984995507652212,-0.026834469319941517,0.06006884436040227,0.10796611700543776,0.024806519749742288,0.045759552433161196,0.06356234315418872,-0.09380828129495856
0.019858796248505582,-0.02575856187253064,0.06205700531595505,0.11315002328043386,0.02474758001924506,0.051479217373872566,0.07226009034115412,-0.1372894740849003
0.02391366680083919,-0.0362054265333762,0.06215419237740148,0.11319634347818855,0.029294595781670187,0.050948614186340696,0.08218351977281302,-0.14953968557676678
0.0159370613374568,-0.029414717015336395,0.05642850640073136,0.10834702909012733,0.024113427510913717,0.048703222530790395,0.07915600304786491,-0.15235323566824904
0.014915059896288736,-0.03272541564186409,0.05693067749819071,0.10622466101025657,0.02878749171558316,0.04783677571793064,0.07615194872913075,-0.14997262328025024
0.021460651744551987,-0.028146794697451114,0.056723713779078366,0.10758688664346605,0.021149057441381413,0.0420333635279038,0.0688441231473149,-0.11650588014067671
0.015336549988740006,-0.015659417057033716,0.06011155178174206,0.10691972384175041,0.020921837038192663,0.035107616447862734,0.06512089778911714,-0.06627962431888387
0.018549293276594766,-0.014315610541160822,0.05790775935758881,0.10845513794414782,0.014124600474819119,0.04372332644730212,0.048609408502451726,-0.04082276987758772
0.016767584562334504,-0.011770043677483593,0.05825922036351271,0.1075905131941818,0.023260348400728034,0.04041241042056015,0.05708447080534447,-0.03685699746928605
0.016813105267016556,-0.027204183598437896,0.05956948859111962,0.10460024077878768,0.01839257492230822,0.04233476935935828,0.059349507243904594,-0.07998991957873129
0.016423416131625963,-0.022321019575105305,0.06105978836613415,0.10800949857518423,0.027503331087875296,0.052498832410723076,0.07248296142138837,-0.11777403824597824
0.01117529000191332,-0.030873030764394106,0.05630314496430047,0.107568014492007,0.021867892849862458,0.04557615518952693,0.07811279079094434,-0.1421803362686755
0.020857860504599736,-0.032946999374986644,0.05326037881697545,0.1075238713651591,0.01945329443895821,0.045364722199689116,0.07701879487097463,-0.15046190575272203
0.01657158117817117,-0.027844624297326613,0.052814928376751336,0.10681416552576942,0.012407033436672835,0.04669159679953342,0.07582555656314256,-0.1433580212044929
0.010965136810357738,-0.033952841645697424,0.05617965343609718,0.10673239890500241,0.023865575949451292,0.043659200726948094,0.07238190509320847,-0.11911155748122529
0.015247337785993338,-0.027521751444483607,0.05525201931744961,0.10492256181477698,0.02337256645332316,0.0421853300056225,0.059675531976686576,-0.10057873959489431
0.019367952833911104,-0.02327945911966652,0.05676921072437877,0.10534996071388653,0.021161758566797337,0.04198722318906294,0.06072822492333105,-0.06287461973960172
0.014351612785499533,-0.0217678783740826,0.054403649673099,0.10778901658998147,0.01110148242522414,0.03392551829932841,0.051409115119729426,-0.04389257015524694
0.011385013914893572,-0.023294534800313828,0.05371091417502759,0.0991103549558409,0.01811015588869482,0.0375207860973337,0.05165534084047519,-0.052027502370182346
0.01160539374828458,-0.026352766737912765,0.05026221267275774,0.10206859536824912,0.015821827870073135,0.045922660579402544,0.07070610196419633,-0.09622388184275367
0.012130451938036475,-0.027484834581465868,0.05374090507217682,0.10652110790212682,0.02196266036106029,0.04887759391625252,0.08139323034027093,-0.14301447124522867
0.01573634014605848,-0.028016699571271272,0.054254933768443356,0.10368148855980693,0.015279853094541291,0.046591523940377536,0.0706953081122091,-0.14557139963915416
0.016167196797368572,-0.025569298876899522,0.051124800513393145,0.10356576595507871,0.016636985566160823,0.04810109766002037,0.07327704878497199,-0.14891614504658776
0.00950809918367985,-0.03446257804920653,0.056319766627126615,0.10882160838732483,0.020638445521974694,0.04559968537561019,0.06959751962987101,-0.14768230800849833
0.016613802210034754,-0.03450741269764487,0.05609720248029931,0.10941371941209203,0.01886169174187659,0.04307279964307683,0.07175931116019559,-0.13822246913635908
0.012426599905960158,-0.03113006363885617,0.05388569401184891,0.10838631120642356,0.02128155733280849,0.038578525162026,0.07210354578063317,-0.11327821283324556
0.01779830728746489,-0.02596576592273563,0.0571124805589632,0.10719876602572195,0.014313527483336964,0.04204457166265399,0.062144764766717916,-0.07894186205479306
0.015206454865366321,-0.02465402996698029,0.05577379925026021,0.1030235312891436,0.013095132220636388,0.04493786186975132,0.051965738447150626,-0.07181984180847044
0.011828244958978428,-0.02564342659638409,0.057795825991269055,0.10869608979638556,0.009841366280956802,0.03528293735734913,0.07884040401727037,-0.07991724409719857
0.019394511293680937,-0.028325094646799973,0.062263295535427324,0.10691441904158626,0.02371945206744745,0.037897453910862765,0.0750905163360513,-0.11159713689040371
0.021053579496234365,-0.02616467539813454,0.0624585361007548,0.11107803083042869,0.014004854968746141,0.043293032121603646,0.07595997987678972,-0.13788679771096674
0.023173537737431735,-0.031005079508429345,0.06358851803668188,0.11080163852837509,0.02125205629550963,0.04748267312418238,0.08077307469578822,-0.1481095149917922
0.020211080169734556,-0.03352988678500151,0.06524538503239075,0.11117543942251369,0.018261238295709997,0.05028933999898764,0.0817687990052781,-0.1618878084674019
0.023012069723372476,-0.03433981250378843,0.06208320057333744,0.11520988497952911,0.017050530356466594,0.04568461343255142,0.0789253288994565,-0.1606232633732191
0.02795808421586039,-0.028946788723853877,0.06774725934525566,0.11447976648322475,0.01969280293519634,0.042994689864602274,0.07860816394849082,-0.13602003558849252
0.025956877870195405,-0.02088611909844002,0.06718166790597117,0.12062808783445943,0.018800106243124465,0.04476065782101524,0.0664948916330012,-0.09393216710565523
0.026573750649961408,-0.019225556977311396,0.06945298111295031,0.1200524848961946,0.019889763233100405,0.04237866927016478,0.06334545932857474,-0.06939645957044124
0.028328036227670755,-0.013860962175605925,0.06998063766632136,0.12302911459701375,0.014979766297816603,0.0428817351347524,0.0735403696705181,-0.076314581969355
0.026643578776249715,-0.009401064345032127,0.07174674797387921,0.12106032963032919,0.018269559410336738,0.045091930060259564,0.06127720147951036,-0.07077957366893875
0.02769079027857748,-0.007876660974775667,0.07920433067259086,0.13074697517272196,0.029961528593071347,0.04940046545940732,0.06916067963292266,-0.10107222218607007
0.03282283711303148,-0.01711247513384549,0.07685158096960137,0.125933455474328,0.025903689182674525,0.05431512673651495,0.07854705963465729,-0.14118015118409255
0.033924702727576216,-0.01837236497184585,0.07826938135815145,0.13166415038469606,0.01766871768343861,0.0535885685626,0.08316301745924566,-0.15365099732376733
0.032480106421652714,-0.019052825199615046,0.07684410205337887,0.12331482733246343,0.02076544203735398,0.05233740860474762,0.0948812435885024,-0.15004188846508512
0.03215718889809905,-0.02063410813093212,0.08111939625036851,0.13223842324224439,0.019723205590837078,0.046535458600025156,0.08970013985632677,-0.14570307628340282
0.0361959611323212,-0.005753682854776276,0.08354831201658286,0.12600939844485345,0.022842609908650727,0.05109263146333118,0.07981977141594067,-0.1292626691892642
0.03533249528389825,-0.006727191975966044,0.07766502396359626,0.13000227689081975,0.02108602058791432,0.0482018081249575,0.07147211631489571,-0.10604292335978159
0.03434894277608471,-0.010207308712063143,0.07813047429138863,0.12810838735739036,0.012032210347528178,0.05334148317849476,0.07483753772934851,-0.09039868583914415
0.029988602167437685,-0.0018429138654327006,0.08198624622205584,0.12770873336969685,0.01657492780047928,0.05436482753293116,0.0730370448411192,-0.07342937369243621
0.03534929189427444,-0.0066855863251650905,0.07970696686342965,0.12811327957114466,0.01945807567435864,0.05884197302156566,0.08533601551584073,-0.08047706069426694
0.034423004090877715,-0.0037940349056737664,0.08009813781759215,0.1333826872601994,0.022707797927278707,0.055569903164886955,0.08666666773277434,-0.11409124845911782
0.03126044205951573,-0.01399235216506164,0.0787939694130216,0.13234338526247844,0.02570906306235221,0.05878291151791994,0.09128040779130735,-0.14332401331856767
0.030301394214540128,-0.017401180004781334,0.08029210382335542,0.1304624242551531,0.029829841615667846,0.057205175451957024,0.0867663651098147,-0.16127253970504501
0.03357646841837978,-0.01748150470229942,0.07684019215700054,0.13207181001781168,0.025282834476895125,0.06203071856294192,0.09355390331241244,-0.1719601806503644
0.035581420882949,-0.010275491924170616,0.0785883332642568,0.13021116495345753,0.033101751023478614,0.05969059702254739,0.0962527018412895,-0.1473956206512256
0.029285755217044077,-0.013109027477527417,0.07964757216486591,0.13489793156235627,0.027859346661000095,0.05620699414639188,0.09051508057073489,-0.11839313999510213
0.02707335185564938,-0.008385977659772389,0.07909947437085815,0.12413949622949615,0.03129812533182501,0.060641107630858566,0.07975440533365555,-0.08108509036009601
0.023702633104408243,-0.009527075600230838,0.07440100621749529,0.12494026522763224,0.02738636029041225,0.06192910101487368,0.08794610438101559,-0.04974361634850347
0.03013821196864949,-9.395732766931842E-4,0.07825118041072879,0.1293295299777768,0.03590238549762244,0.06262968381299047,0.08850176539497673,-0.062233294270110914
0.03211048018469898,-0.006330316122655587,0.07615518196656706,0.1273543060146677,0.029629932638068224,0.06634508400949721,0.08149372154905775,-0.08393705851195103
0.031860933595841134,-0.014514257790442672,0.07813772340890016,0.13228519432531854,0.03521093871887599,0.06527820101458758,0.09538791416270836,-0.1366623327297174
0.02809629957864001,-0.023866281655355925,0.07329866377904222,0.1279156144079119,0.02866565184669931,0.06076947848059355,0.0900201650448011,-0.1533392055448644
0.025694177066807225,-0.022562183177300014,0.07415930534137785,0.12703729604192374,0.025385834647663384,0.06774018406041474,0.09852302744768471,-0.15450293793531888
0.026281422681957572,-0.02207831805021604,0.07071357909277319,0.127055709286509,0.031688517624466186,0.06898336125980889,0.0978674237269964,-0.13606695379762618
0.021725848362377037,-0.018776635067871854,0.0710920281206559,0.12358948358820944,0.030072812070035655,0.0598758208436176,0.08717010752036074,-0.11961176935130473
0.02378499699994691,-0.019015405245079938,0.06720594370314985,0.1173899518654581,0.025362193498891215,0.0583165364944508,0.0816344107193747,-0.0913015683475671
0.02178338471061651,-0.01465384378344382,0.07024621749457262,0.11791138103534043,0.021815608360649184,0.055714700248270986,0.08682556453855064,-0.059133407519854964
0.016062282435556834,-0.010910610634046603,0.06570277192716512,0.12315448185818723,0.02719678934245806,0.060418852732839756,0.07466703155407857,-0.05141531477986049
0.019470887297905835,-0.020900935981471233,0.06881173801255952,0.11769189307101838,0.02662153100801237,0.05845839414203452,0.08408330229639126,-0.06958449645458611
0.014969455215250706,-0.022343461546638046,0.0670432626199994,0.11567201869238554,0.021575809818472267,0.05917953721352485,0.0965471813931457,-0.12202971812611652
0.013797172194776743,-0.032465218388798754,0.06326621285094362,0.11486735489984291,0.026392463934844092,0.06107812868392696,0.08831720397780116,-0.14744440777961548
0.015329369625379567,-0.03852670406471213,0.0608619769556971,0.11220687890860634,0.02398635008831173,0.06003792767379012,0.10098080291589,-0.16318598235400145
0.01577725930365661,-0.025961789244701786,0.06093910129186178,0.11485791142833268,0.025879174623504857,0.06140000425296858,0.08321115100168819,-0.14111847166178274
0.016749392166825035,-0.029578562387670503,0.061961260004495713,0.11271289591549513,0.024518601404972758,0.06243888602267336,0.08442141859278962,-0.1301349282933707
0.01733928920028638,-0.03126158871900852,0.05953238979185027,0.11111824533679307,0.0208999864724725,0.057624289021287016,0.09124296277510181,-0.10170059538964553
0.011581297462276246,-0.029651366117888815,0.0627829527492343,0.10806710168799855,0.018783067872887985,0.050356877986700556,0.07461084102203382,-0.08132884043278399
0.013861781927292323,-0.025223738453282792,0.06008316567504417,0.11550352330472695,0.020112626426944034,0.051428950117925636,0.07398315302682412,-0.05594259971503525
0.017977291070402166,-0.022090572521586277,0.05959291371449152,0.10664119595364051,0.022081405607437463,0.05628059237743844,0.07987096686405105,-0.05429190885303934
0.02019469306727839,-0.025717509542468396,0.057832799417620345,0.10799129234733246,0.020457652426768416,0.05976421594905427,0.08699624003594197,-0.1027689993416028
0.014374504756490847,-0.03254509380399631,0.053922663298035085,0.10729483294958675,0.01788206234045931,0.051152135461279315,0.0847634665054541,-0.1360033217971885
0.0186186257978713,-0.04539819506012803,0.05728402671165924,0.10852584441147536,0.01818827393046624,0.05918963572688401,0.09805072688639338,-0.1544629698700226
0.014457399995507252,-0.03611394647628621,0.06139518012867947,0.11086724782609479,0.016810758704045792,0.05793166551524829,0.09727771838995135,-0.1553590881865978
0.01483886973097226,-0.03758861214856468,0.057185921201413595,0.11424885065306012,0.025078691924327122,0.056836730086001465,0.096477418530836,-0.16976848753236345
0.020957780799438133,-0.03691279314836419,0.06185593455711443,0.11532608958325992,0.020282774642702544,0.06128753044891998,0.08606721969547938,-0.14248404947130416
0.016176632055699827,-0.036411303138964776,0.05612089537911921,0.1123709166800368,0.020625672786307392,0.05594384370839707,0.08468723306630102,-0.12416378198576458
0.01596051907319177,-0.033725501707360155,0.061955797258898236,0.11176499854178873,0.015201034924466159,0.05186327107540929,0.08398609972163158,-0.08685294647621404
0.017489053306568646,-0.017123725257088926,0.060513766030094465,0.11333915903585037,0.019569790541122973,0.05898882097782662,0.07888353520726782,-0.08158851097245237
0.01754495050888788,-0.027899474015661733,0.06147435560694205,0.11328252031417407,0.018880146425780366,0.0559359133955693,0.0769560057185103,-0.10918877320583122
0.018634185786214598,-0.03639115781449203,0.058001619651896805,0.1119898758134674,0.01705798425773472,0.051967081877581395,0.08831377838310524,-0.14151515343814208
0.013160038753748002,-0.03755066346188429,0.059851862584268306,0.10690509847128071,0.01818274144658093,0.047769588094259935,0.08592820864392746,-0.15992143728299177
0.015413000928661389,-0.03194131347394263,0.060324907769150254,0.11284049638436298,0.020568915922994837,0.056754238851082044,0.0833794144215232,-0.17043841799337203
0.021058505701622186,-0.029943326767584568,0.05957231475354397,0.11539104838734017,0.014074029530444966,0.058083903771182305,0.07851209673015258,-0.154783050283723
0.013422339538181628,-0.03908740136599399,0.06247564071930571,0.11399786288512362,0.016476185195101748,0.05110454953990029,0.07650624472049955,-0.14751586112380466
0.017688531250351233,-0.02944767809423364,0.06496844499194109,0.11085893599084358,0.008972678933224872,0.06160464562592176,0.0785742517460412,-0.12019419709179556
0.019331109234605768,-0.02796359311881599,0.06032263786420236,0.10555870206835077,0.010348468403241771,0.05823079820041108,0.06698952513213896,-0.0968360852661712
0.019471711502734662,-0.013511928979539133,0.0637348106039828,0.11098036661862612,0.015023317406443193,0.05124184872959364,0.06244907147771157,-0.07175949231994232
0.01682766984775986,-0.017905035067372784,0.06428217855445764,0.10816359159310354,0.010599212464861434,0.04876244540053313,0.07136591563130124,-0.08387844687639434
0.022662979518635835,-0.0301053105999037,0.06113068001962107,0.10840815683041598,0.012020333480259719,0.045927201639782665,0.08057386560613242,-0.11733989682628544
0.022246052289725725,-0.02973934153835211,0.061279718314437244,0.11516159221685619,0.021042775456303005,0.04606817524478962,0.09042541917852105,-0.15793219074339085
0.021224519799789666,-0.03224249645516178,0.06470609023142507,0.11642260844861037,0.01725359637239896,0.053946161905562104,0.08467897470759227,-0.1566508022078673
0.026736036035245825,-0.031321634297575104,0.06333233361959552,0.12131400464319575,0.02200287635183308,0.045504964848397736,0.08630437084390408,-0.172191112071161
0.02425994128829935,-0.028239062227140344,0.06145464079437095,0.11236070012686333,0.02060510665119686,0.05064384552097773,0.08122498996701237,-0.19303519138968653
0.021962083033376274,-0.030972771372838822,0.06221563152958711,0.11887837358889107,0.01657870935405259,0.04443431137441616,0.08591924951605168,-0.15940620530225003
0.023548013976868024,-0.02605831554780484,0.062101419303726715,0.10997387728417353,0.013153552113141998,0.04302369111690443,0.06823408204701567,-0.12411042606216643
0.02033481613924818,-0.013671248259435265,0.06347141241797058,0.11521333504902194,0.010791860368487194,0.0486763035230182,0.06964458533003313,-0.09173745644386416
0.0226095165516091,-0.0183503226257438,0.06587591510503754,0.10935683569174735,0.01941983797717788,0.04606122457610466,0.06672560788610186,-0.07872213270384516
0.021009722966535582,-0.02345286446503717,0.0632610658810543,0.11315428105056423,0.017500217922175657,0.045479406336619614,0.06345790199336593,-0.10714091740873599
0.014405162268065153,-0.026540504559165613,0.056717720448945505,0.10890969612430956,0.011759199026072161,0.047697374070605855,0.07193022186990984,-0.13446675896385007
0.017109012374263228,-0.03081226617719748,0.055702909994545365,0.11001190529498012,0.022170129236165948,0.042055432721215986,0.07381282866326488,-0.16774740535806654
0.01947422037780282,-0.029662829969911163,0.05687287004734828,0.10923190645572814,0.021898370499954162,0.05017830378114555,0.07652505895926186,-0.18423245418042525
0.013582064630856748,-0.03774716393562324,0.05369333588158247,0.10855241732932525,0.018578939714932827,0.041260611251824564,0.08181925865928491,-0.20370414062418973
0.01640316305714887,-0.029623717236996694,0.05530905159779818,0.10319374942540341,0.011086666870691111,0.04242262784873434,0.07312134053837183,-0.17484731083168417
0.01030632216545633,-0.03401483522107534,0.053999632638178974,0.10347152069586425,0.01376110671305924,0.040622177095542666,0.06886282907169544,-0.14219318958717406
0.008408462816027034,-0.02294844044575275,0.05223911173342085,0.10399297263273428,0.011963757671595639,0.03897219083061533,0.06549923128427405,-0.09643221052807548
0.008769093477137491,-0.02056868090455374,0.051103755659079826,0.10318652431515339,0.013420075793959615,0.0409289464238819,0.06098084074474712,-0.07066031270353564
0.007869492716230525,-0.02264318810757847,0.05411252334187331,0.10230163776969493,0.019254364615958575,0.04145336888936701,0.056253478100235975,-0.06787671244202882
0.006932935801518249,-0.02635733943160104,0.05032736408888319,0.09692501290436008,0.021109240977272722,0.03927994194246378,0.06783432007051357,-0.09226722852566135
0.0065436162883435196,-0.039941692133771696,0.04990110340817664,0.09477380215833195,0.012753632631107886,0.03925669978536161,0.06438096181608957,-0.1295562222469363
0.00861717223621238,-0.03829380259042683,0.04807127720285625,0.10651495425585261,0.021102482925439026,0.048904993194721205,0.0801347495654892,-0.16180601280717063
0.015326780965748152,-0.04008473379398938,0.04502224048268454,0.09922700360549287,0.02366636637749656,0.05151463934207937,0.07839010957249926,-0.1764261503182345
0.012948060557642688,-0.04070585182743424,0.04621395434261734,0.09745058250267814,0.019702850736229727,0.0438299082864752,0.07699297981957677,-0.1651079891196319
0.011734445727962249,-0.047161082466156086,0.04658174575621205,0.09735887952552061,0.018251445509829413,0.04310872116647152,0.07572120521228855,-0.15330026505200453
0.01068663266539657,-0.0450644653471788,0.04784225999914072,0.09644562120922485,0.01957764221336065,0.04459063136798065,0.0643368054135776,-0.12850744493173574
0.008875557829143947,-0.03150691786399216,0.042909136847414424,0.09659269635143336,0.018131892730433405,0.047951079289222896,0.05528319169453309,-0.09476325915618423
-0.0027825200200377173,-0.0305905305878343,0.04627215381909018,0.0829632576815487,0.019270113442719148,0.03902482165770482,0.059261925436891676,-0.0691726926812575
0.002039286116447202,-0.03271582098951692,0.04866405620418907,0.09609261943373885,0.02029535872626452,0.0368722742184077,0.0624843709693257,-0.06779817183053025
0.003011953997554752,-0.04672979528036755,0.04184246448659224,0.09358631294197137,0.020256568495423566,0.044450758737220354,0.06469420025077924,-0.11933336358752332
0.0065718043780465755,-0.04054689313977771,0.04198998664989402,0.09329000538483946,0.01651691367225133,0.04783892082983357,0.06401675970840323,-0.1660949561012792
0.008628949509778277,-0.04637645659216424,0.040363152530473595,0.087797745946666,0.019972960670285287,0.04017129731191034,0.06904687594304453,-0.18084289166393425
0.003411374117050874,-0.042898273333509894,0.04254226988080238,0.08718863385589354,0.023457759882773394,0.040761944018751536,0.06702934989742634,-0.17854018404987382
0.0021718489407417285,-0.0564006744811199,0.03833565298475854,0.08701313038930407,0.016623623414727225,0.03800655375583439,0.06524256461031516,-0.1609255367533101
0.003310502027770722,-0.045221084705628335,0.037182379600912766,0.08635398191059453,0.01455891998905177,0.035079000564534515,0.06139444016837705,-0.12520250160272256
0.003992631737550818,-0.04773860446623625,0.03799862982109693,0.09136472031801363,0.02241076772041674,0.035291261137051166,0.05846878960071885,-0.09898932160187951
-8.476329846495715E-4,-0.03687833506584834,0.03653791943257524,0.08447425032410481,0.03180910882668123,0.0339535222206793,0.05146580626363848,-0.07048108376453464
0.005615888908272247,-0.039919828038711046,0.03573842264866929,0.08622354712999936,0.01123130224869713,0.03937216006378888,0.052332616355964104,-0.06908761985129944
0.002034001293075374,-0.043290496466257974,0.03512996712401593,0.08151447000603676,0.0116488724535288,0.040741245983416594,0.05559925045076931,-0.1038467632718416
0.003073811256893004,-0.04182376091619702,0.03600729592359055,0.08263655349066748,0.01877691232715784,0.03869520189318437,0.05874143253252423,-0.14155107533013653
0.008553333030574818,-0.04577170317012331,0.03368566938658225,0.09050131784601706,0.016747623809285853,0.03880148068863635,0.05992064071367846,-0.1676808260609033
0.005133847174505928,-0.044085624698159596,0.03195657971895475,0.08938791645951256,0.020078757652106368,0.038335183166294584,0.06257162308335941,-0.18721817562420026
0.006809991397424986,-0.05375914625195963,0.034476023741901965,0.09229735768247505,0.023258537588386523,0.038308020144097434,0.06597537891117107,-0.18107209658911882
0.00630160811448181,-0.044423490754549766,0.03447061405787474,0.09232096925145075,0.020445634848181366,0.04171792404758905,0.06355848306671863,-0.1762479648601353
0.004944784720719271,-0.04760387778384736,0.03780821073967867,0.08643940651335616,0.018974098656881568,0.03233363785537422,0.06022023686015977,-0.13528881780507868
0.007947671776479093,-0.04011246499161405,0.034227827894155204,0.07965542952162842,0.009444300835364976,0.030919731850338222,0.04627532350372444,-0.11039880428849357
-6.096933158647336E-6,-0.038055970103436754,0.03576865674180233,0.08329320918926549,0.015370559161689338,0.029242135679203154,0.041146149459669344,-0.09233906788455067
0.00800989948452067,-0.041790978336590526,0.0344976252447886,0.08526087308040806,0.01691038771323003,0.03453930504308532,0.04381256125883622,-0.10024652335291559
0.00478940813948327,-0.04716695313073426,0.03449275859466236,0.08355717965128184,0.02790177883776888,0.03101198000543982,0.055943799293585596,-0.1362655324467216
0.010123522149877455,-0.05179273126200617,0.03142030261816597,0.08428010396308569,0.013318177465025591,0.03547553608570447,0.054736436078383674,-0.15540087608771316
0.0015466557615792206,-0.05031878358552151,0.030929117656816826,0.08248519091968616,0.00993331975980966,0.03431120702345913,0.06491619063097802,-0.19973107984698255
0.009392449424189268,-0.06413901631391213,0.03268041134357811,0.08221853763404777,0.012882223549043725,0.03089653736470316,0.055151593368556816,-0.1956464332682457
0.01247579179447715,-0.05357451293788707,0.03255235918156786,0.08363130810051403,0.014549291135826748,0.03230353861570588,0.05798484245575384,-0.18841196595607013
0.01249803399883353,-0.04884773364830319,0.03000864717116349,0.0848657787303943,0.008887427338532688,0.02422601651062907,0.048625315931817174,-0.1597219969789022
0.008924996611062525,-0.054665341808511896,0.02941836421920827,0.07855814055508711,0.005769556594450339,0.022614594960275007,0.04143351257499292,-0.12480876421985253
0.005536031186071449,-0.05488222461323186,0.030998279158100602,0.07983275913440883,0.007006508409995869,0.020160789109721022,0.035686959856878246,-0.10094486623329743
0.005216552812169396,-0.04105215766715385,0.030996888625651583,0.0815461801139249,0.01074654707063865,0.019958601726981922,0.045365722704213976,-0.0832556386934412
0.0024584518401181837,-0.04083310805843015,0.030779852543897607,0.07924606096510094,0.02007720612173185,0.025651053194766738,0.04101503237840326,-0.09512099076028269
0.007095434330272235,-0.04186062023177527,0.02890264162982093,0.08735060909044014,0.012403631781865126,0.02418549187145583,0.041817108032062844,-0.1400465338809886
0.009363747765218226,-0.05331240077728298,0.024437465600739502,0.08181844044272558,0.012238584923322379,0.030612404958099214,0.050571628644260874,-0.18173076484008036
0.006286231660736956,-0.05860035418396109,0.02723477895629497,0.07620297554784218,0.011198689644489349,0.029904619964477786,0.05102337077220789,-0.1931830709394575
0.010406898121231096,-0.048320141793365495,0.03010624252937164,0.08426357180402828,0.01597271718792871,0.03313162808851037,0.05442748266915293,-0.18896929397421913
0.01173435837931883,-0.054422061208152295,0.03479647771021147,0.08062479574654305,0.020895323359802365,0.0337409019801808,0.05157838521704396,-0.16885291316940948
0.008460852720062535,-0.05252295190939106,0.03036732489531717,0.08248032950783336,0.010979991224672508,0.02976506859983963,0.04316451302688466,-0.1410479299417076
0.0066739701808830815,-0.05257315930722658,0.028345038049962145,0.0795312662166329,0.012332287884818265,0.02089662882887573,0.037920776598214495,-0.10247419936826206
0.008124487242042728,-0.04633754788648172,0.02858187587152752,0.07837063173941544,0.010322089738909983,0.02359641922358265,0.03700340841648879,-0.07853542119236875
0.010209020741597208,-0.04365351835170454,0.03184087838511825,0.07926572014477426,0.019372427418650334,0.019190618109358727,0.031165624035152082,-0.060923211412691504
0.006355120771717856,-0.04563857292455038,0.03107786664557057,0.07589573913587785,0.013575700650081148,0.02514585355006167,0.03761018269738633,-0.07768142827251932
0.009802945222871432,-0.06170240036888536,0.02716987693967485,0.08333993087181553,0.012052840227105616,0.020724466683578514,0.04207441249217261,-0.1331360935577685
0.010530529980620838,-0.05608533350652549,0.02554365104600014,0.07856021747661898,0.012987132825731374,0.027530376016820474,0.03933973437658904,-0.15278355629027696
0.010497981373770886,-0.05565523048604374,0.024177696468611953,0.07861874706822379,0.01452575068153335,0.025642004871909232,0.043815985513666236,-0.16141459013640122
0.00574014630368416,-0.06486716427419502,0.02113758722114142,0.07159282129136182,0.01924596420551134,0.023546409468152573,0.044083649912532295,-0.1611364821940063
0.005940729238269605,-0.06158217962610629,0.024076231084090766,0.07210722142053054,0.020487745076825735,0.017241549274294665,0.04580432209855137,-0.16460829176079148
0.005136251393349797,-0.0612605001873598,0.02259512074303371,0.0751166591986123,0.013593405513032944,0.022433538601748217,0.03389009792921442,-0.1223341056762285
-1.632461140413549E-4,-0.060744197981672014,0.018659931991873678,0.06861803979941067,0.01950185586559914,0.023836955626535945,0.032406170137458126,-0.08511164149210447
9.990598116006257E-4,-0.05004146492903178,0.021831055571436293,0.06380105812308999,0.014677595755018582,0.019107147338458766,0.036649960505256644,-0.08739186053765807
-0.004129389486186157,-0.0569316391994451,0.018079945602318917,0.06750831671698698,0.01600150765124443,0.021596224495947183,0.02330206010289477,-0.09052245983259123
0.007866346271915702,-0.05827868890376132,0.01581794509404191,0.05803085956070526,0.01669396142607248,0.01810936363374408,0.0402019881981513,-0.11771171381678149
0.001577069460033309,-0.05789760125786058,0.016943155259103504,0.06587141714091645,0.02433263112158475,0.021378914227806366,0.028472163704990512,-0.1548306215119657
0.0018983510840069888,-0.05664867075342733,0.015845512457515337,0.05846910646201171,0.01326856553220691,0.028221145856447267,0.045484003114490884,-0.16622432378911767
-0.0030693673408030593,-0.06989007429104584,0.014756538154492358,0.06541812924305808,0.023128236356607386,0.02344570628331966,0.035834157215761345,-0.18020216393761915
0.0014630167395628094,-0.06752839921729314,0.017276235972498267,0.05944788819757837,0.022416206210379278,0.02375824730425146,0.03586234766281863,-0.16250895503873988
-0.004483099866423944,-0.06570375871289878,0.014948937970823523,0.059973596820211056,0.02064738732831438,0.014045192051428766,0.03329532988253969,-0.1337546070370251
-0.003523896954908145,-0.06294635037837872,0.00874914129932064,0.0562173251721657,0.011538048476234068,0.012282793638240521,0.02153880981439833,-0.09628844817144518
-0.0057790788041401425,-0.070566253145717,0.011173380973225434,0.054818455573727366,0.013266829184912938,0.00816745532488307,0.014094546753512453,-0.08741762288295721
-0.008822689636489935,-0.06609362496982892,0.011707855917220221,0.052376404686602394,0.012822842195322107,0.007018482760824735,0.01930347434712368,-0.07320205688439227
-0.0067895132942806516,-0.06757807439104489,0.007538051701265651,0.05227756439760698,0.015525328799675756,0.0082999452705053,0.017044918574361148,-0.09020899424331244
-0.004459417802446827,-0.060099654834043115,0.0053525311394624,0.056315768885223313,0.013493982768305737,0.010668028872310331,0.026779114090629417,-0.13234070937031878
-0.003948341084359481,-0.07633514630608484,0.0067004613217395105,0.053871391919492397,0.014936215742310015,0.015052642541889294,0.0323430262525136,-0.16613463794151748
-0.0046110373448704466,-0.08263649494478542,0.002823017612170505,0.05360850484781067,0.007884181797450797,0.00918145111371031,0.030046008727931214,-0.1809574841314923
-9.789783993294822E-4,-0.08636517075086829,0.002861671704636806,0.05004174952954432,0.017689453656731014,0.012092555058445741,0.03230893496681031,-0.17822338852125605
-0.007924280863498528,-0.08776192269532462,8.216324374978416E-4,0.053061004016588954,0.01431920847871382,0.009020786859372016,0.030954042572471186,-0.1632089313774156
-0.008406719645449083,-0.07972521032847016,0.003662834281601629,0.05265771163866739,0.00998700569232643,0.010796717217916712,0.019171259668035776,-0.14308123153456723
-0.006061083831241013,-0.08167881769188852,0.002209510640612125,0.049516604179670416,0.003348894657167811,0.0068725170133206795,0.018900867200443226,-0.12615506519564854
-0.007635216601523058,-0.07973116612376921,-3.850294545150148E-4,0.04872058923984936,0.014120959326503294,9.601789527471454E-4,0.01823647249463427,-0.11544259157571536
-0.01000395646898566,-0.06879830321324779,0.002195610066831093,0.051944650162391665,0.008306984395915337,0.005396000962085015,0.02378243953660696,-0.11358373003655771
-0.005854909758832368,-0.06416314287204568,0.004176448833969945,0.05223056997624492,0.0064026600010944155,0.00355738536052448,0.01562770149130148,-0.1211501883294248
-0.0012160453009774227,-0.07480084568057437,0.007750662727732463,0.0585786354142931,0.00802735945617014,0.013688193753323873,0.03125608149900745,-0.1505687717768098
-0.0022856942738276906,-0.0755097143875147,0.0049109993638750404,0.054964941361098876,0.015581597187031474,0.010419476318392856,0.029622901643677285,-0.16852515975962754
-0.0011100765293880705,-0.07517329665848557,0.006367095559822804,0.054753572474040425,0.002922396791717068,0.012198088196466885,0.03645010666910174,-0.18186275941965507
6.523137316469769E-4,-0.07698090330015134,0.006705539035795085,0.06315600248819078,0.009241643903942985,0.011585608348951514,0.03034383882723732,-0.1741476193458725
-0.0017298263663613391,-0.0708056913789528,0.008870872090629828,0.0524732538059491,0.005656950135701493,0.0071861217008915,0.03636290216676907,-0.1588851420676849
8.821658029161063E-4,-0.06822652800735195,0.011282604133408878,0.05963503260226222,0.008799756524800863,0.012131237231338611,0.0312793890902693,-0.1399637262784165
-5.295068436246326E-4,-0.059765896294387603,0.010453811414532202,0.0576016858947107,0.00685451041480607,0.010019387186159573,0.023214878987574978,-0.12293948241838254
0.00466814922320234,-0.05740193954412992,0.01600040699625215,0.05931951514759555,0.006496356136858432,0.005664807094878977,0.024096751034656964,-0.1043635496796569
0.0043860727692768475,-0.05035054878653372,0.016982879364991352,0.06321062039085393,0.011972469376472306,0.013656900810946258,0.018506688468528626,-0.0976720872855936
0.01009701062634916,-0.049954602923107626,0.017833478140923616,0.05956129225673225,0.02029095447066303,0.008303939183660089,0.025404798913215607,-0.12133026247202812
0.005216956451416099,-0.060188553375285406,0.019641686083360466,0.061345281012298615,0.013248439032174259,0.019583095225526412,0.02683088798793883,-0.1494131501729315
0.010762357140414014,-0.058984609587043164,0.016255508615903982,0.06694413414780954,0.011338226432451701,0.016231734205479995,0.039231077232846925,-0.15974365651038383
0.008251506858251852,-0.0575881181098365,0.01937808908939398,0.06777836245104875,0.022664928366409955,0.02016994312346393,0.03639359646258862,-0.17862934801103922
0.008286977623817814,-0.05409518058015721,0.019217434308698315,0.07013487456952672,0.021189391176775693,0.021615404463241904,0.04049900519338031,-0.17641648808610935
0.01225128613225308,-0.05496684912286818,0.019758601007093052,0.0639127106005367,0.020028299334122483,0.02019911169771691,0.04243184344077005,-0.17234046318456123
0.005113922342122983,-0.05251125320150518,0.018068421008338355,0.07165456274865004,0.016239324568114517,0.0221301468048766,0.0418716716414061,-0.15604394170281383
0.004297244101999656,-0.040880538486685866,0.02126542164045113,0.06944678183332832,0.023656760684556934,0.022113894623523176,0.03993780019506245,-0.12311132968961118
0.005885368597598124,-0.03384619276032815,0.02180280827243098,0.06687313454971844,0.027210946542475203,0.020483521227605935,0.03646426107309085,-0.09298939566054898
0.010990751892069484,-0.0451132785075987,0.020950036612243407,0.06530433642747258,0.018288385604015765,0.013626471882176812,0.04256789082177089,-0.09644480663075156
0.005399892116432316,-0.05086017540399959,0.02253493010802861,0.06780706175530983,0.019259680222025167,0.023579247599051126,0.038067777578883036,-0.11815759631932722
0.005412976821675963,-0.04479866882779469,0.018133938416056063,0.06960808520877836,0.02399866886403687,0.024780032489434584,0.04515755253914342,-0.1496260134670096
0.0071960164980033135,-0.05051672028269528,0.017228664010617643,0.06964636954722365,0.024797085882120238,0.028590271101112077,0.04896602946940038,-0.14766841061115665
0.0031577954178493247,-0.0486976926966372,0.01573347336436711,0.06737621357017852,0.024834329487837155,0.026060866455782702,0.0466573000181934,-0.17082684728434214
8.881658646308905E-4,-0.0547615510195501,0.010976542313732091,0.06649222107586523,0.03272203823450471,0.030382710057034554,0.04937385935820905,-0.17705792224096056
-9.800339963280085E-4,-0.05836579557960163,0.007260108757657083,0.05696066840446818,0.024051344666231905,0.022529966229845613,0.044606140860844704,-0.1586840333498243
0.0012466854105282516,-0.043120365528572714,0.011094624485481146,0.0626860897693768,0.032461709739548386,0.01757580596553022,0.03427994115169772,-0.10035079039221682
-0.0013700122252594859,-0.04581428283766888,0.007551576694036174,0.059755795214402996,0.03431166221349556,0.021666180889747172,0.03472784465756314,-0.06250187235155512
-0.008529861657186015,-0.044176754843572245,0.00807427772947062,0.05575819317258955,0.02750926678911943,0.01972324198899648,0.027672951677042777,-0.056514200938825136
-0.009022791287072044,-0.05166425780945793,0.003750513509592796,0.05384016312066215,0.032956618236293735,0.013863033168266297,0.03184772276593538,-0.06354162587782408
-0.009724568694158052,-0.050945457695064346,0.0058921525847711745,0.05377023313016077,0.028234519957496915,0.023117572937117675,0.043160091170266035,-0.09862108484140258
-0.012664473995191803,-0.05775834983001086,0.004094613212069483,0.05245904745189208,0.037487647570582185,0.026782412760603405,0.05135744085275002,-0.1347360517713734
-0.010073303124680667,-0.05996253345024857,0.003817427100308259,0.0475466060800074,0.03805821870122541,0.034487618792711276,0.051745596946063496,-0.16201770655837888
-0.01493139574047812,-0.06797765596421315,-0.0035867737833845618,0.04776056136354265,0.03482345843617861,0.03214679791270919,0.05210741671618454,-0.1804278968462849
-0.009294086585709063,-0.06110518545708367,0.002519934515846807,0.045044701861064816,0.04249608074674802,0.030384927825052185,0.04863304656170334,-0.15485081711057094
-0.016484899262251166,-0.06278767615352203,-0.005170780575096277,0.049129733308951005,0.03590246732002601,0.030243675318049102,0.04382919858286724,-0.131562286204973
-0.015327401637916247,-0.06869170678414967,-0.004603029601680669,0.04505357835950823,0.028647283502378638,0.024614401275929364,0.039345481034458535,-0.10505276064981377
-0.01941704280560111,-0.05761940100813366,-0.0066542662279063846,0.036178101249703394,0.03713175140892163,0.02034056476623426,0.04015472409484702,-0.09409685502453125
-0.01941623175893612,-0.06530548960201962,-0.008367613319482438,0.03511492439337543,0.030888108013058614,0.02017481800751538,0.035813538830960834,-0.08174562879981807
-0.01803625399338379,-0.07092171447494444,-0.009173468719961848,0.03791195974883224,0.028640946665204184,0.019680834946394558,0.04705327269405854,-0.11655654664063603
-0.023466705275550604,-0.07322656998785802,-0.013882023739940902,0.039880613649010944,0.03390456852761653,0.022440800036371063,0.046745458774572674,-0.1423204248847204
-0.022152705477893154,-0.08266825844147623,-0.01885114366360718,0.03448568937996081,0.035587201328579794,0.017965876423941568,0.04204189849389906,-0.18143073748731647
-0.024515867630651694,-0.09426594839520089,-0.01724126755956273,0.04164304771280178,0.0361533816343707,0.02975439302589254,0.04836639814021993,-0.1807923022866767
-0.027584619273946235,-0.0860421044370557,-0.020926120724324006,0.03310916859281521,0.038237720833766815,0.016347698424112957,0.04472003196791116,-0.17558378119538576
-0.027077915997788516,-0.0861033776951397,-0.01793728076032815,0.03917731823962408,0.028379288344064533,0.0210847425691404,0.04606627127291643,-0.15286273736019643
-0.023602151503672605,-0.08418145031556021,-0.018285383867746054,0.02730276983230545,0.027321789215525253,0.017752149879589157,0.04017349407789088,-0.13279382315831073
-0.028516675540587306,-0.0859105800453827,-0.022122542879611528,0.022602103705662242,0.02521439797416483,0.02228672832994417,0.03637273221246705,-0.105122071639663
-0.029474059622977295,-0.07672435726351359,-0.0226627402720131,0.023426997958825094,0.028950597464950212,0.018901318530640535,0.03200919050174353,-0.07453601705431737
-0.029676287237027452,-0.07486638325490452,-0.02232656757496081,0.029699297530898443,0.02277720059428944,0.021357885862304835,0.026750105607333274,-0.09317950547504772
-0.0310338977639715,-0.0899989047134751,-0.02240053067859879,0.023551830764355325,0.021088141337196147,0.01901901471225735,0.042919038713217394,-0.13861367873817718
-0.02946033600569318,-0.08773741578206484,-0.02487663474434818,0.027572940131297227,0.02615700257488505,0.025196843092388527,0.036840431810846536,-0.16077076052977152
-0.023662649346288655,-0.08682384152298792,-0.021408906875478376,0.02476990206334182,0.03049354688467771,0.01805049472703589,0.04170062081340931,-0.16974171388304135
-0.02564131574955087,-0.09177233483212877,-0.022216926367523353,0.031544990890676215,0.027422711932649297,0.020122423439861915,0.03904530659355184,-0.17471405307535692
-0.024069801004316813,-0.09179586417211857,-0.019451852764079177,0.026507124006908495,0.026976203675476453,0.021382993719000314,0.03705136832658184,-0.17016441747523076
-0.02351789675674927,-0.08601360300573743,-0.021099474900015097,0.029302215692710062,0.026846109382356834,0.018807018443373718,0.04605898805740493,-0.1579654117362479
-0.025609800661442236,-0.08302997708410755,-0.01808852169092326,0.031662090358074914,0.02575072700880782,0.025902120007974646,0.048620629908359476,-0.14061158297468693
-0.0253176625740884,-0.0843535335315468,-0.01821704468919727,0.03358616151870546,0.027286561730741742,0.02113499737575316,0.03526799407687459,-0.11089578261977485
-0.023638871614646204,-0.07561786666467202,-0.020440772194349265,0.031043684672620597,0.01757252208703133,0.01443499224564805,0.03382793078936376,-0.09704280532549174
-0.02150331938969162,-0.07705202204937148,-0.01519652541496305,0.034271837884506065,0.017483263187217234,0.01986117766610058,0.03192271018523467,-0.10373831824520072
-0.017405102272037377,-0.08061577189342276,-0.018265253286718543,0.03727910296136099,0.02020392739156058,0.014797080021473463,0.03983329683269154,-0.13418103950983007
-0.020388881512407354,-0.0854573694470266,-0.019977638145544735,0.03762124477240645,0.021173466320425164,0.017757411050625057,0.043803949588682264,-0.1709611218125929
-0.018054344299879895,-0.09011455257928948,-0.021021043917164604,0.03560910963859597,0.017961981915406492,0.01466901890573721,0.03549036161644088,-0.1922095126530974
-0.019731429404657493,-0.08905537439343465,-0.015202947761680035,0.04503322042150402,0.020968924555165032,0.02532082176835927,0.03844930838058588,-0.1960238907679122
-0.022872296406465542,-0.08423533764390011,-0.015272892033965932,0.042880628844915045,0.019016225502315152,0.018112961323497517,0.047126428420332635,-0.19256584556131676
-0.018492903136802956,-0.08202750383525817,-0.016054664639453733,0.03831562719994452,0.019367263867934074,0.012650954485051344,0.03471479439902022,-0.17617624135771118
-0.021128275975009186,-0.07905638064141439,-0.014574763663894175,0.03764670308086865,0.011737892476484425,0.01422664596236943,0.0361684983542405,-0.14504256917764458
-0.018797952861406182,-0.07311964103756223,-0.01401819511752653,0.03248201774879837,0.020885674463115476,0.014870411830313079,0.03167336460155124,-0.09188886181168161
-0.017212800546136307,-0.0676798906260202,-0.010490316960916892,0.040916742540499235,0.018245966635556832,0.0081092106003402,0.024017803784519908,-0.07462573601232636
-0.019483898612757185,-0.0725142760864953,-0.014987844391752842,0.04293130883063846,0.015668304602777412,0.018883454976913322,0.02411879221170833,-0.09292793426647894
-0.017354649052788967,-0.08067810020658589,-0.012907176182994869,0.034032620055432526,0.013871175680942127,0.01308920511038651,0.02786358456307794,-0.13618047262709815
-0.018238510922280567,-0.07666536490090334,-0.011914455129739519,0.04887222925632038,0.020351567440957778,0.01607888739290479,0.03895070772824515,-0.16599268699026987
-0.017061076219737854,-0.08066957296653066,-0.010756608799079902,0.04686720841072114,0.013134849364319435,0.018497954290564847,0.037733897447142596,-0.18349821721294554
-0.016296407277535386,-0.07766870214146722,-0.008129591360176896,0.045342961602335204,0.012493338640184128,0.017507556248938405,0.03898139679277855,-0.19101762745071363
-0.014225353520499728,-0.07859729160386207,-0.0068740775581406935,0.04759821863334908,0.008825418147210967,0.02144020205056916,0.04174946490365179,-0.1909809536842207
-0.016264468933301142,-0.07666974652691982,-0.00907380312778878,0.05444082424825739,0.011026904452392804,0.011327881112915203,0.04586320125747639,-0.14798559396122754
-0.018228318584006604,-0.07037849688846923,-0.009445256257585336,0.04849726592655201,0.016567142150853146,0.012580355448895181,0.030244799693454418,-0.10198479244877202
-0.017283678714901198,-0.06462808469134988,-0.006284343166979139,0.04882550521406368,0.010948368459523683,0.012196710904167535,0.025464077107102655,-0.06880919017766045
-0.021804797016920265,-0.069892261070743,-0.00727414855584016,0.04165987751859768,0.010620516880649826,0.009198559974619443,0.02388518936142814,-0.06354063439766017
-0.014305387614485304,-0.07014501680045383,-0.004305884874659072,0.05017103810439332,0.026024033753330417,0.004873715485951751,0.03508985676372953,-0.10196185985507682
-0.0243194680132701,-0.08122795420913882,-0.007617390148366013,0.04699746871565875,0.018335412961505274,0.015608549466851808,0.03804653986058322,-0.12459580121209791
-0.020420496241144018,-0.08029975075558947,-0.005827086742488118,0.049372038243417404,0.019371798688079048,0.02072160005952709,0.046377632689107426,-0.17884552736168807
-0.027454654215389448,-0.0863360735293343,-0.0063071358099336255,0.051706527254793584,0.01295384086762316,0.021718999138252006,0.045345387707166625,-0.1951643052280213
-0.019012966850028824,-0.08130346757649762,-0.007424336695174571,0.05411972455271532,0.020340367837716734,0.02333229347400564,0.05063499545824831,-0.18245628899071553
-0.01991560295815588,-0.07765905689927283,-0.00621177911452092,0.050951972667759415,0.022240810339050582,0.02843886849616235,0.047639288796952346,-0.16093511256247597
-0.02538632680638657,-0.07595831838364998,-0.0031789960229250233,0.05380614608081614,0.012030332090992787,0.01869202656140562,0.03231818995350265,-0.13571871241615982
-0.028049643463920124,-0.07012771151743939,-0.007125803225436197,0.0530626660046296,0.017481169055727247,0.02139035538639966,0.03784745254792933,-0.10080535772045254
-0.024004815099371992,-0.06654300160245445,-0.003422776489445575,0.0494980956522538,0.016078618329763043,0.028522239264604086,0.03600091674545907,-0.07426151751251353
-0.023172468560532226,-0.06828967050719513,-0.0063178234691103185,0.04895467389110477,0.013157374547281591,0.018266214565089124,0.03932758340295206,-0.09097434357583543
-0.0233851545091113,-0.08134543711706965,-0.004837776382342971,0.05050629352396937,0.014573824365043656,0.02675080660122979,0.040158311470390236,-0.13804737983397458
-0.025738147495480337,-0.08304624310033064,-0.0028753973693176923,0.051455145114145735,0.022534111184100092,0.01883499421449965,0.048011192630227933,-0.15976935752000027
-0.028689846518594072,-0.08189860827359845,-0.0033528067496296247,0.0573090047973993,0.012783093686067467,0.019908949606185784,0.042545359440215105,-0.1705591584726719
-0.0284294853101298,-0.0820214364270035,-0.008318631896832176,0.05883243823296362,0.01921190599310962,0.024560580106473554,0.05602773999885907,-0.1732998428378389
-0.026130249212901073,-0.08503302050286607,-0.011458537214428448,0.05683514137383054,0.01028625549629941,0.02940740162176721,0.04882315984480027,-0.1862967936443975
-0.023822615241279207,-0.08812368768977957,-0.0076891528526098546,0.05798936768391292,0.008526592700237964,0.01669301165655042,0.04446907686971254,-0.1636631684166311
-0.025327484749102423,-0.08090063232019896,-0.004457416158109015,0.058486312662388684,0.012844666892697037,0.022174441091229596,0.044234399663104884,-0.12036816358674463
-0.030611604526317723,-0.07838862049214701,-0.005780934687035314,0.05507815250041389,0.0036881019554661793,0.0175937767704446,0.03028172410527908,-0.08943436863008027
-0.026702696213831693,-0.0799755810630147,-0.006607286241656886,0.052124382769903825,0.013890016395703655,0.016544913541633337,0.0399205829024379,-0.09473500869286616
-0.027578242865667093,-0.07926721941595868,-0.004623048381483894,0.05274524030907799,0.01861356778126064,0.023275302120199202,0.040967613501189874,-0.11136404278752872
-0.02899695823232225,-0.08176027448803583,-0.00885559776185615,0.049044847162714636,0.021482003121254256,0.025147230395705045,0.049654029840776326,-0.14839013483897423
-0.024787539807192317,-0.08415354627217582,-0.005244013631372394,0.05872849761010912,0.013350584160857446,0.0311141083544976,0.04584916077478827,-0.15793195185594755
-0.030834134537188647,-0.09249823767142841,-0.006727689000487174,0.05351535349951665,0.010777521080821419,0.025121866574966747,0.051617168186212356,-0.18630456736336806
-0.019302057498465714,-0.09543748193573298,-0.006115520318091165,0.05495690733249665,0.02072280975906124,0.03011001875503279,0.0520202527217273,-0.19242493309983275
-0.025153070885256524,-0.09486285786432301,-0.008143574664402346,0.05427022979021356,0.013732686310386237,0.019919270300990492,0.04923509941345576,-0.18726497565170272
-0.030160122168947062,-0.08653183939719218,-0.008809865835262307,0.05799937415803063,0.008079756302382985,0.01812580562266308,0.03853778716781119,-0.16611759924935712
-0.02173739957956641,-0.07996813000705966,-0.0067488621204093765,0.05746948456047014,5.044019363369894E-4,0.022131172418104778,0.04047392992934699,-0.12565588531785005
-0.021821660333358826,-0.08164033401493184,-0.007416171676752986,0.054770984628072165,0.004265972364875818,0.014183306368732402,0.039280264934251685,-0.10552759868762109
-0.025694791045496924,-0.07578924639188846,-0.0033904159166890514,0.057455971042857684,0.004542735557643151,0.014928405049882156,0.0351224591286888,-0.10045226662232422
-0.019936611886878286,-0.08497355944683134,-0.009529100559750163,0.055250632406254795,0.004337523647753423,0.013541890751966278,0.03157880376004651,-0.1132978496239133
-0.02545103400344811,-0.08278933110716744,-0.002226344619878972,0.061399228381756744,0.00572933117956086,0.01995609839615367,0.04237621346373143,-0.13333354669926886
-0.020192153101826347,-0.09205283904038605,-0.0017902484054671465,0.06258484189356464,0.002450833856895176,0.018914820346770642,0.04385684748163765,-0.16353542672514024
-0.023596831861998693,-0.09434729209398743,-0.006679679317943409,0.06146409693270011,0.009209430269942191,0.024491068467394156,0.047170609542515264,-0.19280577050143574
-0.023108283559733288,-0.09416458584640214,-0.004777702427062481,0.058185395390455044,0.0043294349180600525,0.02108639760798266,0.04561373748724802,-0.21040205311639457
-0.018803828062186917,-0.08834763089692353,-0.007535572389379508,0.06392091967132978,0.0035692865945055555,0.01348501131315831,0.04957829715198601,-0.18664797444053505
-0.018064480536622046,-0.09415385792018188,-0.005682336538321424,0.06407540268020936,0.0012351839328797235,0.009883388246591556,0.04730994127527321,-0.15365210255813744
-0.016167457096948487,-0.09336824904602185,-0.0036887752351159216,0.06305216448119767,4.7226937816075774E-4,0.016052526784027795,0.030125800043140995,-0.11454434400932705
-0.017825167328141874,-0.10055884555192926,-0.005579666488781421,0.06335651184299185,0.001793610285167899,0.015396018034384756,0.027650490656061906,-0.08373810286179567
-0.010267450919898665,-0.08943491761408437,0.0037241428106732327,0.07206885290551873,0.005478967518947209,0.010241547222627717,0.021722164350403063,-0.04863384655089272
-0.011398426113216878,-0.09780412646682161,0.0035228321346037128,0.0680253635710851,0.003924339549221937,0.01073695278482167,0.028263931269272253,-0.06956520732674404
-0.010954553671533208,-0.10366759989041036,-6.472045749765033E-4,0.07487132950701914,2.915515553086072E-4,0.01999985372538351,0.040530784596668104,-0.11145138850605166
-0.009825679337156045,-0.10478184031017447,-2.233468048425542E-4,0.07130241847237467,0.004282822500125551,0.019981325350109012,0.047854265377763536,-0.14455871775484344
-0.018172730450861693,-0.09749095016416628,0.003471913212466986,0.07659126244141148,0.006664183670185528,0.022275215590535937,0.0462287527889178,-0.1682689575585832
-0.009739883502425259,-0.09315531438279219,0.004606749709515487,0.07367284237000439,0.0018376453986728748,0.02072943679784633,0.05066059468465335,-0.16814296705131673
-0.0071194056367456,-0.0928464558149603,3.8276884420277454E-4,0.07549418644216764,4.698895866419012E-4,0.023033791478845152,0.052409026854731665,-0.15668346371513736
-0.014456270369825384,-0.08780717927447051,0.002908521421668673,0.07124788873550675,0.005744663587686774,0.020304876516268,0.04725655914978452,-0.13377691991351615
-0.016380110340534798,-0.07264659640428969,0.007713412998444794,0.06586305114545334,0.0010038349078428958,0.022096244653007757,0.038629415069795565,-0.08918398863580798
-0.012736385354843142,-0.06980666403501529,0.004090072835204914,0.06569467165580649,0.007528788855972978,0.01869182172083281,0.034616846125250386,-0.055931930101971374
-0.013560303448119534,-0.07190523949434072,0.010458145472402779,0.07380358374692284,0.009220767484555192,0.02416184385594183,0.04608782264364123,-0.06036171636963942
-0.007316414579550303,-0.06894854456840417,0.01164034632826167,0.08179970009302184,0.014897993658727323,0.02876837927230832,0.04757171330539935,-0.09604319703332673
-0.012935922625845425,-0.07095307251675285,0.015709101549937488,0.08469281865024803,0.01896413009451476,0.02981066158663004,0.056301721941886484,-0.13142968738599567
-0.013129636603965069,-0.07561985069347096,0.014601014148178776,0.07637981962324404,0.012997893320872759,0.032057670243606666,0.06163730316744914,-0.16712229407843301
-0.008368070408475446,-0.0704534094375175,0.014042311571265845,0.08608044860180854,0.014216915037883809,0.02793109607323556,0.06596232080442925,-0.16688187804420035
-0.008395601841031303,-0.0735806985235717,0.016482093603210488,0.08531010404289859,0.012203004744501323,0.037676180822895707,0.06461444837973912,-0.16407054639774857
-0.0013100878097601178,-0.07150162329396331,0.01905234705272628,0.08971154943019714,0.017791717883329134,0.0340859290718301,0.06681529596488672,-0.14514005807553487
-0.00942061434477608,-0.07314501201465967,0.022307312129446446,0.08474345496225068,0.01379838706183961,0.03428159844768488,0.06305612635660651,-0.10755969448178077
-0.008460412140666231,-0.06312532703093113,0.021520857588808565,0.08763781233177252,0.011435417109193356,0.030862011191083605,0.05141677319061588,-0.07842548366158837
-0.009694047728023993,-0.05623440369999594,0.023274327953416787,0.08461926594451491,0.01431527334790765,0.02087916064334051,0.04266655883891647,-0.053310191277816804
-0.006702358679329792,-0.05630840914122348,0.0244254494073316,0.0847119160112163,0.012117268599000926,0.027206240810439267,0.03997418206765946,-0.06578461767314685
-0.011300485374343886,-0.0532259378842983,0.027213260508777013,0.08678250587564564,0.00862823991821369,0.02843316583591457,0.06264018675963048,-0.10214162568955826
-0.006631165466791681,-0.057491571923759886,0.02815675917674506,0.09101969258773512,0.011105606627961555,0.03312358614946448,0.06313667702484496,-0.15500008670058946
-0.002568831167005102,-0.06343569366697975,0.027697357770434035,0.09415238038955812,0.011469928773500162,0.030507417174297044,0.06504530671282384,-0.16832077223513806
-0.00861527497743409,-0.06337939704614004,0.026098721738351968,0.09576203962585779,0.019532305708775434,0.03227118063967735,0.06973898635523942,-0.16698854914468683
-0.005790004816569157,-0.06239187222168074,0.029720562859276264,0.08898926233444296,0.014886213841422477,0.03160568913273148,0.0682309530685438,-0.15105454668284882
-0.0035659972623545344,-0.06379889878203701,0.03072291332352043,0.0943020560109557,0.01957847633981205,0.03482808272329479,0.06592659674404394,-0.13056919587581065
-0.010882749675751691,-0.0641764637441217,0.02876172985851259,0.09489944905870647,0.014048269788836061,0.03318059151062533,0.06351259646835944,-0.09587851792430666
-0.007993069799870007,-0.05542527473361043,0.0335171121774328,0.09733378089361099,0.01220980814975939,0.037806009078202724,0.05069461591195284,-0.07190361433420217
-0.011321625862283934,-0.04552469895977352,0.03412839025933665,0.10006852176892075,0.01813028675208951,0.03177469350424324,0.048576763821498406,-0.06187577277665641
-0.007583052085722807,-0.04701208186741307,0.03145871046548605,0.09082322241341709,0.01753728720999605,0.02754705909132197,0.06622687497537305,-0.09034818855174213
-0.009010178969665666,-0.06438850149281128,0.032273790517356425,0.09972505597909888,0.014301254758697061,0.033885615063047145,0.06427664448912213,-0.13793834896909082
-0.00878780313690129,-0.06540334084955064,0.031712920815373656,0.09901928626266727,0.017392334915256324,0.03541221650374323,0.06521266620709744,-0.16280408437014054
-0.012113095308090498,-0.06454134488292029,0.03245264644111267,0.10232399533256094,0.02232946692082353,0.035031043858963745,0.07420586543141669,-0.16418685202673117
-0.005972051591106553,-0.061301464120682006,0.033094389514595764,0.0952453394505314,0.016509472936980876,0.03018395334203726,0.0646509837490167,-0.18654463944093144
-0.007689011981520953,-0.06735240797652219,0.027803390637719284,0.09701705264354253,0.012290193544972454,0.03662430227402121,0.06032701383002019,-0.17272472981513562
-0.006744318934342077,-0.05709051821345866,0.031360595182298334,0.09882551584740908,0.014436733678120752,0.035867521505364035,0.06540364646538788,-0.14775714842217533
-0.010662780154153088,-0.05594573509887519,0.0291988694520951,0.09816873607609557,0.01403997324110726,0.02829332183880577,0.05011023793671847,-0.109404732564536
-0.011568335205315665,-0.05519554108134677,0.02807198891586079,0.10129267513491524,0.009537089245140613,0.029377686834059908,0.05212655573921256,-0.0928686700461667
-0.012072880828207247,-0.06337753877871248,0.02911389738018114,0.09797717178255266,0.012861052967882062,0.027954133012950008,0.05512455529393026,-0.09631508395645356
-0.00901516307428603,-0.05975770955843856,0.028989974398544803,0.09951172487233709,0.013047287203248466,0.030409369438490243,0.05580166564667352,-0.10073152981524743
-0.008378945778441288,-0.06390915774922351,0.027614864731320434,0.09690613037403593,0.017470618498894575,0.031933776801218276,0.07135102689774114,-0.1362933579115948
-0.010614719848470473,-0.07347241486243973,0.028974320290058874,0.10037598563024741,0.015007412795046691,0.03495282071970543,0.06175685120071403,-0.17080903421697494
-0.007772689909568696,-0.07284519997472,0.030105961337766794,0.10041773575337302,0.014803424500351882,0.029965831700935405,0.08110596117793456,-0.18066060702749873
-0.010255365679889794,-0.07135471366392257,0.029398379076458748,0.10424801784230237,0.005067291056184804,0.025820566417299674,0.0747239835364602,-0.17931662470152726
-0.008469563039640592,-0.0692402156513834,0.0303285100416346,0.10109227821413444,0.011956997775473528,0.034215080952153754,0.06648414204804978,-0.16909702725627596
-0.01574582642773111,-0.0748271267121644,0.025069979554123267,0.09812087637152334,0.006603615661548636,0.03217254315865986,0.056686972306005765,-0.13277850199826863
-0.010760628025600773,-0.06618465564246959,0.027611357783270132,0.0980658051960732,0.015410229913755702,0.029670039538476658,0.050461573011069384,-0.09784126492002457
-0.012057258803767932,-0.06303944893343748,0.0308353338948222,0.0997505724494252,0.007593708140785258,0.027705713109201762,0.050348071310711943,-0.06131725786453842
-0.006912828128133982,-0.0680204325329623,0.029039379442125767,0.09696826920462025,0.00525088898660752,0.029784459842446476,0.053039921127372006,-0.07515473465573753
-0.007838833429855285,-0.06887580697511794,0.025865248658272742,0.09930018436721658,0.013000970472713261,0.031125278780964775,0.06533157297453356,-0.11760904084823032
-0.00768975677472505,-0.07583396252298386,0.028853969563530202,0.10863072170907492,0.012590212324007484,0.034995704932266516,0.05844395470944161,-0.16357265166453536
-0.007813841012950908,-0.08008027130811889,0.027441581625079425,0.09418312621699113,0.003112326937932656,0.030816932583098477,0.072078721318266,-0.1721814696336206
-0.006575293078976238,-0.08161698918565723,0.0275095628132365,0.09795432529930014,-7.217808476424967E-4,0.032793695935740726,0.06362302951351309,-0.17780888546083035
-0.008083276478969663,-0.08057133785430493,0.026457004414190976,0.10001629250658768,0.005134765770521958,0.02908709397458883,0.06233843143100646,-0.17672739067184706
-0.0033412312871998542,-0.07203370116457766,0.030421099347175323,0.10023179334136277,0.005438147836376736,0.03092375986821963,0.060551699673546615,-0.15628704437650948
-0.003999758615577636,-0.061764009756259314,0.03181420658204491,0.10547221393467396,0.007067068486161706,0.020977332799136415,0.055872472280727475,-0.13288430209252705
-0.007536048375321728,-0.06757923155868113,0.030544173688609743,0.09784742663605318,0.0038172047195777384,0.030995766252706978,0.05321400403881524,-0.08186999155734168
-0.007131490985346419,-0.05748832839690142,0.032871140378246205,0.10120491578449921,0.0039533884562768405,0.02362772626369246,0.04716509570562852,-0.06415582822287337
-0.0031505021072941223,-0.05583486407724818,0.0324305101329726,0.10513417210682076,0.006507375027266538,0.02360065097519081,0.053042473112676125,-0.06804694930979562
0.0013673311502823255,-0.058801104741798206,0.03356441642482288,0.10582692749434976,0.00330088938969354,0.03137846582371173,0.05983763898917553,-0.11804055993860002
0.0018800334750158384,-0.0709062530297138,0.03247930264753772,0.11160074030911422,0.005522657962884997,0.03457071691651898,0.07000303574064044,-0.14830388037879394
0.00368725547163549,-0.0666087496678812,0.03161090146736854,0.11056473424178291,0.012379253247040657,0.02941726460017633,0.06323441765244046,-0.15973761395994526
-0.0017336482088942961,-0.06845250141393627,0.03631494122877683,0.11148616505986943,0.009502233170011368,0.026490418885879195,0.05843591540479192,-0.16100746207610814
0.004266750587809829,-0.05918399547245208,0.03599902388819924,0.1156473529089984,0.008442747570066493,0.02537124024064991,0.0637678256559437,-0.16562442716758974
0.0019075578288541438,-0.06155978426561232,0.03692284751023373,0.11216822270555271,0.011739612531435736,0.032392948240251615,0.06230493404467332,-0.13679682343370425
0.00203365617958348,-0.04815554280830393,0.04339810948166565,0.1102805699195943,0.011482128735424407,0.02310824548588417,0.060484576083547854,-0.10425363272917867
0.004874065905861133,-0.0472538539456022,0.042112569927780806,0.11462313964000324,0.005078041652578982,0.027483232717400517,0.048333422006617735,-0.06176819296874499
0.002682006495418952,-0.04494909058610103,0.04218168451203652,0.10595970359378244,0.007265424797962384,0.03195972844809058,0.04670185931035997,-0.06835403802821366
0.0023211535149797314,-0.049246037708157574,0.042118612197870706,0.11722074156441005,0.014011802938794157,0.029684435891839635,0.05784771110393963,-0.08640002138992503
0.0033167165198741523,-0.048543492019851094,0.04385334329134243,0.11598621683196964,0.0162681983138242,0.031799259426002986,0.06285192000553351,-0.13309429745772744
0.002681600309560242,-0.0482275283290678,0.04762861294400158,0.11585874484794553,0.014608766099299755,0.03506789249720695,0.07003379446252249,-0.16153402927692098
0.008372777822601637,-0.049258933906264124,0.043508438154986506,0.1188392887139114,0.0167597589811485,0.03370578886484329,0.06357512377915006,-0.1704053801699005
0.0062786055635648255,-0.05612255645444872,0.04832456876474849,0.11525906776883758,0.0189121968792486,0.03537305681252796,0.07069648995869171,-0.1535424001566062
0.005290722246187005,-0.05206879963991066,0.050212975818750546,0.12126376107124115,0.016165305246114998,0.03510384809535395,0.0649640442646442,-0.14854142453371055
0.008846126631506685,-0.045334673673457504,0.05061042730656973,0.12144491833667335,0.013839705228751161,0.029243616055716414,0.06570546030225112,-0.11315360494264035
6.511211542624308E-4,-0.04443898973207958,0.04956544388900363,0.11660476607416022,0.016931901310060008,0.02941739823113831,0.05633110702954438,-0.07519777228388175
-0.0021628497351974182,-0.024094035110606277,0.05242818280581462,0.11691068479710964,0.016298622711454897,0.03256435932950361,0.05597479591308757,-0.038509690322766785
0.0014860635841237385,-0.028988470910874312,0.05531147975122144,0.11735122637346057,0.017508577853902176,0.025918011162140774,0.05488867056049122,-0.037090722429847026
0.0052853498195994395,-0.04375952588382444,0.05387700861329519,0.1193453015378378,0.016571432850288594,0.03535871571320788,0.06048113888077705,-0.09402088967115035
0.0017505029349897043,-0.04520864028235727,0.05236058465428416,0.12470973516945962,0.01686800007101758,0.038983656788020585,0.0642007901753913,-0.11777667051221782
-7.578330893792251E-4,-0.045983116911346635,0.05141083247029273,0.12745147738216486,0.011500179843438188,0.03124284160066177,0.06906511556510563,-0.16663267366939513
0.005404688262187576,-0.0431144386321482,0.05663553697164864,0.1267263253325565,0.020711840127078378,0.038608919693147864,0.06920439553649665,-0.16006753232600007
0.0015240916682669097,-0.0396970815469278,0.05374850210013623,0.12367144268782017,0.014641594963400931,0.037084200525367705,0.0697349789154454,-0.15540580368942417
-0.002131894687708183,-0.037499746761606834,0.05381379864535633,0.12480661660411309,0.010964611618734835,0.02930100224812347,0.06833483407106189,-0.13204865382859932
-0.0012630107972035564,-0.0454899970438325,0.0548032489075245,0.1305053329958708,0.014252685669245103,0.02745250746332111,0.051671358069794414,-0.09249511897731501
1.994443646576866E-5,-0.02844328732546192,0.05786697886970203,0.12528002973284766,0.020000491172001627,0.028179540692419035,0.05396526047445202,-0.044357684304553655
-9.506038032760729E-4,-0.03769957337149254,0.05251203230116384,0.12525561613352482,0.020361604568587283,0.03121726436514342,0.05205903168856901,-0.04669826202136657
-0.0025729536916060097,-0.0413155982583138,0.053337459491857565,0.13124738997232335,0.014972436206372732,0.027606410235078833,0.05305670374082349,-0.08201899505801508
-0.002849987933993057,-0.04975197327440864,0.05081423088460122,0.13028468340308938,0.012230138617105032,0.031045781559995166,0.05912365377825409,-0.13343771183018432
-0.0032398534160897646,-0.0571483036793438,0.05272363404636143,0.12805620607441723,0.019095436406454846,0.03145458554924939,0.06823799656429072,-0.16149756420928268
-9.114251375042324E-4,-0.05160019725887128,0.05282455130034494,0.1332610369507213,0.01718321907930273,0.030582904967222265,0.06230162558752813,-0.16184144370454642
-0.0022232125842026954,-0.05221940096415374,0.050579382325804924,0.13252574863010738,0.01667574373905939,0.03278563249667784,0.06450204771112947,-0.1543447530514496
-0.0030055346833106175,-0.052390202789199605,0.0486095493087453,0.13691432690550315,0.009958429878539165,0.02618292854799623,0.06955243227452464,-0.1693217399614288
-0.004621974029258541,-0.06304659054963285,0.051731244974560185,0.13137349199088594,0.015603620594554697,0.036292133147033015,0.06357632171097069,-0.13209749004605223
-0.00793317002214541,-0.043770576101846106,0.048911338928789426,0.1286984824065762,0.015834727751952823,0.026973653648751168,0.06243090692769635,-0.07013447628240325
-0.0014489735094624868,-0.04159882062179089,0.052071784123254715,0.1247838372317336,0.01600032959609283,0.03130070923252957,0.05200296047055683,-0.02678807170182682
-0.0032454518157832694,-0.045061138410291066,0.0499870023197008,0.1243572191686425,0.013973229635384953,0.03159553373456511,0.05545741939972125,-0.04251405580838103
2.297380723160038E-4,-0.05213416600341594,0.04914199530653333,0.1322649001901435,0.012807905234235263,0.030139657262698544,0.05591723701742997,-0.1018802957545519
-0.001301850830798097,-0.05291811022439497,0.055518717978557966,0.13661914280873397,0.017410521961528976,0.04008433714900661,0.07844807499992408,-0.1461390007177732
0.005282545731650195,-0.0534542646583425,0.053265535699121104,0.13150605518432637,0.013956530953306456,0.03752249672742291,0.07217892454635837,-0.1627409030413738
0.0031104174334608413,-0.05383957483624792,0.04932892178077167,0.1384713779759762,0.01484784299828133,0.036786654160194776,0.08204624057299553,-0.157043064998511
-0.002939439266675024,-0.05790913357993618,0.049292129005897446,0.13974545254543994,0.005897398538684057,0.04465743537324371,0.06817965571874281,-0.16282703177353114
-2.346986879209358E-5,-0.05858335735448045,0.05063982857899463,0.13517427780406666,0.009008586604953461,0.0358221245934199,0.07017842813859818,-0.15610182451558374
-8.296147195082135E-4,-0.04316717183567692,0.05531784411045875,0.13625029140988035,0.012813813030869694,0.03454891492665986,0.06836914829188445,-0.09347513252484473
0.0012991282670151573,-0.04351370257133689,0.050791835759539015,0.13299414684872005,0.01758288652670079,0.033713484017247435,0.05814325155344441,-0.06939963534688018
0.001224935481672061,-0.04405251961594991,0.05587243905072756,0.13225620400319313,0.012122511566098438,0.027988791624087676,0.05994096396892522,-0.053429167944672964
0.0024411490786847003,-0.0484533355762157,0.05480448869405684,0.13723045420071558,0.013464602598229247,0.03127177188251965,0.06263116877185436,-0.07787307818353095
0.005625147158513019,-0.044536694714239516,0.05675156675166895,0.13385825640953788,0.01503183332162531,0.033905493471256175,0.06907419570532124,-0.09313080995352985
0.0032740492728784666,-0.05385602367290142,0.056056677678826924,0.13856789843565634,0.01865668638992722,0.03979444146978537,0.07079766068650335,-0.1388609537735063
0.009239745692280485,-0.04838728797405933,0.05703637192189484,0.14109933264577243,0.008261099042182536,0.03616949720955637,0.06722321524460322,-0.15475945060473004
5.245222469688641E-4,-0.05451488110489762,0.05641896561130484,0.13420180898246623,0.015370718543205705,0.03778599076808938,0.06803569467708992,-0.164646015272299
0.009653219158272667,-0.053325566527981226,0.06218899689557624,0.1454236559350434,0.018768068658438636,0.0354914643180645,0.06810093549633515,-0.1306857908089194
0.008683093537513033,-0.04352507083893131,0.0618707616693757,0.1446414108059129,0.014745751909312035,0.03594351969788636,0.058304908028736044,-0.09922767502865704
0.010587846587273674,-0.047716733715167964,0.061762352169325324,0.14886883314782265,0.01572951218825657,0.02343094810480434,0.05018663320618233,-0.07114596342823562
0.007385187003757116,-0.04240253246411338,0.06236899050134391,0.1484186294931253,0.007770424232577442,0.02696184942782259,0.043704736922786515,-0.02741707417698712
0.0056886964465633055,-0.04662492510568822,0.06257606912575829,0.14665650278774942,0.017564595352972463,0.025045635755422256,0.05288001960559759,-0.037530369742056445
0.013149168661237859,-0.04223618532855423,0.06291365988116858,0.14840444918094978,0.020806065038508983,0.026629352799252083,0.057195737237693785,-0.05374014062136472
0.009648188292153187,-0.05102954391547932,0.06346982714555047,0.14674564766605436,0.01388072423541382,0.026645061073595502,0.056495961220211235,-0.09421395002692831
0.008020844043247908,-0.05499436176518438,0.06327514976971732,0.15212665478417556,0.017473323348732056,0.02960294570755386,0.056749149229432826,-0.12103143325879595
0.012911355479364204,-0.0611659390955648,0.060495091868597035,0.15090889602212096,0.018276029664448773,0.030493742111259638,0.06415354188557829,-0.13467580513737612
0.011363115801927795,-0.046713669784626065,0.06397362095297587,0.1513514159042123,0.017199880915757613,0.027388595111360232,0.06546365943451037,-0.1287631644272426
0.009300143361839808,-0.043891124525655946,0.058841799042229345,0.14443736432575338,0.01517020729681469,0.02717898817847056,0.05428723516365836,-0.11362410615219873
0.00886784034785423,-0.04418150204176319,0.06060899908146982,0.12946039911401896,0.014647114960573852,0.017824766234620017,0.04796219385111885,-0.08513298207169269
0.0068687800884407665,-0.04657452869285794,0.05915718688006888,0.13086120422072342,0.01009112170538666,0.018585832876183383,0.038889413273157016,-0.050069530882960116
0.011989893046178606,-0.03360007741717012,0.0671676687663179,0.139613126683456,0.01538209518237313,0.02459566660573462,0.0395122461550995,-0.028633380534600468
0.00961839555277094,-0.027852037057708966,0.06658681387130962,0.13831547895291946,0.02278155168235648,0.0207485627712995,0.044092548062644635,-0.0440489645518884
0.0023534854774772867,-0.039255323846843944,0.06547837699715435,0.13839474972915658,0.022997721599216286,0.02690309350305899,0.05017765308110004,-0.08160053274498136
0.010752458525167331,-0.045309296870341735,0.059405091386382405,0.14052906889331862,0.021236683744045692,0.03363260345134224,0.054955985377378114,-0.12436212461785046
0.011050973897267675,-0.03870512184071339,0.06156313766472962,0.1469972096573975,0.02507161110706185,0.033759390374602224,0.06752977446188972,-0.1303331553316856
0.01353330450411069,-0.028548078883588623,0.06510139375812715,0.14168241337631718,0.030212908444370433,0.030735311289875958,0.06508353798391017,-0.12486860112842817
0.005994550982093116,-0.037255063497617646,0.061428918400641234,0.14054799962145023,0.03207093152964654,0.03080770115927103,0.050600359423081796,-0.1226383292075343
0.009299128283862049,-0.03770193191515886,0.06277223237688596,0.13658285121948166,0.02223730975692244,0.03208798333381664,0.05979583852346149,-0.11088346275897833
0.006341706001497564,-0.027572574006821095,0.06525634182381729,0.1434540397918736,0.030568643909068407,0.029329435484734597,0.05624325464114667,-0.07230081269133214
0.002507293200774608,-0.02677069723106266,0.06857149350966839,0.13991301581561838,0.029647517043879097,0.028631407976412112,0.05475477453563957,-0.030290265298369305
0.007416473203292031,-0.028039827923483886,0.06825621788429637,0.13589676909814732,0.02316212560512236,0.03094611397523821,0.060743963439607425,-0.024930679768039705
0.004288267383760408,-0.02241948329675247,0.06335441216312207,0.1384717612068355,0.03319198782500362,0.02868013324014587,0.054032821643072826,-0.05072684585322156
0.006126566972098905,-0.036531040406479295,0.06672960070464673,0.1392074340598867,0.025541859841593028,0.03372774371994161,0.06221372028172057,-0.0829610068741781
0.005738547340932132,-0.03118929682485957,0.06822303704483441,0.13640765239170408,0.03157055073733321,0.03626619983829975,0.07106049146372294,-0.11728792504753073
0.002606302809708369,-0.03845954773006286,0.06355405098230921,0.14476362920184774,0.034343019289866175,0.03401426658478118,0.06848134077423848,-0.12306920467375308
0.005043624643952282,-0.03606697079601995,0.06342865321296955,0.1294318477107816,0.02906203645091882,0.03221670369058242,0.06616593189833701,-0.13689139055621996
-1.8912354540884913E-4,-0.038781489279684125,0.060372201394980465,0.13597913182812785,0.028414379158422116,0.029552413155636198,0.0643600726300833,-0.11906472916152774
0.008017370604744134,-0.04093736080933809,0.06354999027416863,0.13130936000088228,0.031025249784789054,0.026341962614435485,0.06587519769699149,-0.10896014009421824
0.008754857478210844,-0.024004534850028122,0.0628299066094629,0.13794387739030567,0.03349892533255932,0.031288545462248754,0.05616255781854853,-0.06049853885565293
0.0057036226403604446,-0.022401729501819918,0.062292847641254936,0.12915588136608555,0.02838579338781844,0.03137344889788066,0.06211288786198929,-0.034802804027398375
0.004160224106131845,-0.024356503951072545,0.059716678852632994,0.12727085786144737,0.026728639969401762,0.021654718523995618,0.053554495980604994,-0.03583251777714963
1.6168902023534377E-4,-0.03414653873636946,0.057380206160819236,0.1308353865260463,0.023005835930264874,0.02885962383631313,0.054078606767598646,-0.07038037163438329
0.006017470160338327,-0.03631074842785249,0.06066045570776941,0.1301992791087523,0.029662479036410085,0.029245498023782544,0.06885090028982015,-0.10786560202405183
4.870651030295116E-4,-0.036630004350609,0.05729418258748092,0.1325973390205563,0.02606119146474657,0.033383483048891306,0.05990145048629093,-0.11379241839899512
0.003669515481782179,-0.03779691598050293,0.06060464555784197,0.12855212287618561,0.02281272723575428,0.03618247859709222,0.06911401506042393,-0.1277974660699927
0.0017400010178343687,-0.04888127751294889,0.054879798066632235,0.12967370775611847,0.025670842696740668,0.03447297480930095,0.06577317973478691,-0.14410335255996998
0.0017248206891390123,-0.05047456538186289,0.058013592052500965,0.13040510722578413,0.023372099858136992,0.03907845721377449,0.06250518911375877,-0.12143295641578185
-0.001832525084726233,-0.04092076682995798,0.05766677886568975,0.1287805762424679,0.03190727249474863,0.03489085404546919,0.05971164305636305,-0.08029762247891058
0.0048152530286569425,-0.03306240251393413,0.05725892277712538,0.13048257675745184,0.022012679322724105,0.031266212484044445,0.05946056054215465,-0.04162626562953641
0.0018485171214419553,-0.03868111487875703,0.05662966022868271,0.1239090653402787,0.022473579301511344,0.024874165223320463,0.04956047915468995,-0.035086182277923386
0.0016469462747620224,-0.04469375836535445,0.054432493717518564,0.12684214491069726,0.02428737977371565,0.022281118544712798,0.06025060267511932,-0.04348506474194922
0.005998111032433274,-0.03430867484628578,0.058302856099186166,0.12610876806022803,0.02662007464061679,0.029514207484755337,0.057600341841784884,-0.08121848178395505
0.00587388053489534,-0.03990011172807413,0.05887289896154313,0.13055790004457704,0.028625653470823003,0.03283725086208113,0.07048296887911244,-0.10377771504236465
0.005121115764616675,-0.04572545573010464,0.05683530605971949,0.12661070171842084,0.025781516664048952,0.02878179838283872,0.05898612297182158,-0.13749041681619015
0.005784572498943234,-0.05152727287102408,0.05764991174940736,0.12979958136683079,0.01908047873643005,0.03213683406664666,0.06904837029848025,-0.14751813643588169
2.8240891921249805E-4,-0.04490238098460821,0.05493378578631868,0.12873096110032495,0.023977679233186628,0.028128035083916227,0.06308032000651007,-0.14403312360916168
0.003834658662627943,-0.04278360409174964,0.05692415445997004,0.1303243658113158,0.021097350753040908,0.031080475581111,0.060088443949695244,-0.11843595611095659
0.005314466500705316,-0.037372502761273914,0.05965605792604198,0.12492948500892201,0.01191649985964578,0.026613174696588447,0.04700481320011104,-0.080576779107806
0.00611711058037262,-0.03660941293496841,0.054382016602939474,0.1317339336100729,0.014767748413159844,0.019965398460636757,0.04677519294257,-0.058986522488689234
0.005821954295166501,-0.03743582376345641,0.055758955322448206,0.12963175721699363,0.013691356718544358,0.01612795718822418,0.04602900983603175,-0.051958309894584435
0.004023669425502916,-0.037238158386181774,0.05721214691921486,0.13017702059897227,0.014069731953798936,0.021286884541995923,0.04863879113864126,-0.06278824822781202
0.009229790021229634,-0.03294889755856192,0.059657321334680824,0.12781285440946338,0.021496145673955813,0.024005592814665768,0.05404234011189962,-0.09551370249749122
0.009745252363864063,-0.04136067419969409,0.060917466504668005,0.13482451160335912,0.021733901635867695,0.025730736112784643,0.05903901804830567,-0.14282460091894106
0.008934663633417425,-0.04376359630913616,0.05956415699108625,0.13481226594873125,0.012719456093234474,0.026028590481347383,0.05302981758103112,-0.15058514790097985
0.006607577507223856,-0.03856821531190035,0.05991120720619567,0.13093112308868052,0.01376724576743728,0.02510956958858252,0.054454163070053636,-0.15229187992811624
0.016606449339590594,-0.03712396129495156,0.06426614479616596,0.13647383780931654,0.013380362438227142,0.027361570356129575,0.056132920531097134,-0.13887226940877917
0.01421544886382594,-0.0377801652606101,0.06464610936668859,0.13763496573084238,0.01940363684001481,0.027198504428156894,0.05061070795833739,-0.11073712995676256
0.010869092107409254,-0.02914147991844163,0.06836034886776592,0.13474557364152814,0.01692287275054417,0.018025529542176687,0.04619329039996505,-0.07725851625593551
0.014950486670922353,-0.024537611988447495,0.06268144874804452,0.1350381007998243,0.013179888653133704,0.022563566104639117,0.040625305283352425,-0.05038502768650488
0.02002958072705226,-0.020531321614104932,0.068991973843108,0.13621299812150495,0.01977114547222255,0.03367554014715164,0.05487824674070411,-0.05813922840561025
0.01711394209846949,-0.016021296330431836,0.06866889065054159,0.13984150292919323,0.019580549242959846,0.025952569223939126,0.058565120969600884,-0.07361478351161158
0.01705853284274756,-0.030050112979820666,0.07048241321078479,0.1416601049590827,0.02683238684438836,0.03165163893889151,0.06596117337356548,-0.11171595647365258
0.01910834531854999,-0.026180513732457233,0.06363036586019652,0.14139713186819636,0.01736253395528101,0.03007616468899141,0.06367725923679683,-0.13690892768356358
0.016593811389861116,-0.02939664013826032,0.069024197234517,0.14349191641670944,0.016496863006236557,0.02827698909386417,0.06785085351342462,-0.154682418580227
0.024456893386812464,-0.023149246559097336,0.07404318079447804,0.14161392633967693,0.026570395409480033,0.041405915548578115,0.06013339087721163,-0.13815296971941649
0.022032624987418873,-0.018168142136422243,0.06984622562652844,0.14129689724253938,0.023686858283317447,0.026284253495720868,0.059276285549026336,-0.11523643874996975
0.014495633487924034,-0.02821758930858459,0.0664748142108312,0.14266749680687146,0.01592078330699103,0.02634831045160878,0.057286859635436976,-0.0757919156371179
0.010710607801984712,-0.023384496045597215,0.06319860545038096,0.13282627296784952,0.016524667069003265,0.0267550914214112,0.04791046328755368,-0.05467170921370318
0.01652628049697098,-0.02498423619285536,0.06705413152691733,0.13976138480844927,0.020941718376359948,0.025527651827787573,0.043502092729225686,-0.061702375892186384
0.018975377732308826,-0.01965914555974444,0.06720619831751308,0.13359212037380896,0.019972410605095088,0.028981105054133142,0.04819066928928486,-0.06001396157693202
0.015411950303405945,-0.019485080956566106,0.06503110952401164,0.13724611076169535,0.026382048656328108,0.02629668534313566,0.06258608938296474,-0.11010799113505292
0.01010091586697253,-0.02680047015189494,0.06346962874950825,0.12732910793463056,0.013519517284669932,0.03192040887509534,0.060001670204895115,-0.13271154832550416
0.01015261768836377,-0.03324958959712818,0.06104850046914472,0.12918761692076555,0.019496409169790625,0.02714721498344878,0.06182993042165837,-0.14953102165149065
0.015339832891479627,-0.03481971488983642,0.05807291215062099,0.13400743790528732,0.02626087915911636,0.03670069497035594,0.07014855848889016,-0.14152140208473668
0.010161496350500818,-0.0285190469760168,0.06244473032986629,0.13191900697737519,0.021458346410875222,0.03663336321826567,0.05915603973219122,-0.12124552872603336
0.009735876950775789,-0.032517905227522674,0.059978350530272694,0.12449400823393916,0.02263407913431856,0.030146808461445643,0.057815832894996644,-0.10308044403839317
0.009288842400475974,-0.031946082947275675,0.060356486809268264,0.12293118395119636,0.017576150705226088,0.026864617022088245,0.04237224756386349,-0.06644760712364903
0.01105046069605142,-0.03144344243252752,0.061721279559412014,0.12375756916484236,0.019520523702537273,0.025204416090115818,0.04663076242220234,-0.04440983440264366
0.014513145947666901,-0.02898489107003527,0.05626893192504008,0.12913610968338213,0.018081780641968442,0.03140753565653243,0.05434667728250789,-0.04789145702171185
0.011386761299818282,-0.026073337738356444,0.057643839477522746,0.12587002442213097,0.022816675485130094,0.03560343653164679,0.04786828755337991,-0.0788226789033921
0.014592726313352476,-0.03174076181273583,0.0587381351736465,0.12367548555534383,0.024872602538725176,0.03455387108574291,0.061243079497553955,-0.11389896217872117
0.011282947434079956,-0.03345557642131583,0.05542131075871192,0.1241986156679871,0.017403012847351754,0.033457966219995694,0.06554625295482434,-0.1403432261253361
0.007949563552332414,-0.04669356096864292,0.052582118319255015,0.11956557157489145,0.009882357023615514,0.03468734364622248,0.06139383459787832,-0.14376452991619024
0.008379529599164262,-0.04360214902540127,0.055571891481465976,0.1262131421270487,0.023523770177911133,0.03618674673568899,0.06297620437075077,-0.1416717888688881
0.010257629225961821,-0.031673899776974476,0.05361002274329723,0.12555857228279524,0.01955886781129695,0.035735967490099815,0.06207438739045867,-0.12193082594140882
0.004648200976197141,-0.03201503980988274,0.05544916350005262,0.12338846125861955,0.016098816702716373,0.03455452174656104,0.05070819459483386,-0.07634743317353791
0.002068215408960005,-0.03890254818335446,0.054197774193495585,0.12318547960307892,0.015875604308722032,0.030757301188426272,0.04571346215110125,-0.045027461974964926
0.0035296688559587025,-0.035860168882126266,0.053638299967477175,0.11472374103812964,0.010098364414745245,0.023280991106298544,0.044979787670958934,-0.04676174826982931
0.006679415981249304,-0.04567207389066491,0.05476036044039593,0.11432938728088386,0.013273474141809924,0.017508188534092313,0.05284206556459054,-0.0627356484855947
0.004237744356529022,-0.03735467065065988,0.053609639526248844,0.117274005133531,0.018011500917507674,0.03185184707715182,0.06310523176318354,-0.0953588777197437
0.007746162855839806,-0.04725157644310669,0.05377788177365956,0.12044314171403256,0.016914214858419114,0.034324621126324215,0.056449247254261155,-0.12405383917523433
0.01106092164131957,-0.0454884477890784,0.04864877009981169,0.12197162081751195,0.012512410867334268,0.030231940825436714,0.06085982200053771,-0.13729545353210976
0.010995469149891074,-0.0485961871429721,0.0522177480183245,0.11783306323183414,0.01875507550480518,0.0351921724921353,0.06550424558296587,-0.15210898569891224
0.003756832965952148,-0.04579981747569889,0.05418974908347141,0.12078648058198521,0.0065255101402884215,0.03210255632595166,0.056391605555599016,-0.14235907754440133
0.01040225864749473,-0.038721898100219136,0.05275290958338712,0.12178102100166846,0.01694085903498842,0.026597518846280876,0.05830270129003817,-0.11822300227009441
0.011406688068455944,-0.03714335240795032,0.05274746118624592,0.12495180961680448,0.02452934373955018,0.03162393040027221,0.05213213031408159,-0.07992440679573706
0.00757888350819253,-0.025592210902614543,0.056755801206877614,0.12028319913044083,0.010583485653533602,0.02540438983642685,0.045720166110164405,-0.06915226082214035
0.008015398827870867,-0.03916235290024517,0.05487529053081699,0.11896142620180736,0.00942959480801492,0.029598878602135375,0.03914105517982132,-0.06794581351868961
0.00967732967376072,-0.03421039271098205,0.054947191241848686,0.12162408250181501,0.012193473337269809,0.026078885039744426,0.04953599871782662,-0.08824202206837997
0.01402229075352691,-0.03868382296255857,0.05923053408130397,0.12675153280659895,0.019834118374475445,0.028518498381102788,0.05871123734279282,-0.11639847746094142
0.014911877495026224,-0.044871065408000795,0.05675040907496928,0.13291107520020237,0.01809308929808085,0.029344656880138865,0.05971359052624583,-0.14498866681271708
0.015221141301569966,-0.04142075965999687,0.058194805772213455,0.12288395147703812,0.018432917773219988,0.03370357807033947,0.06542666326472543,-0.15811842099193216
0.014483741505889611,-0.03257334576734661,0.05629381125782612,0.13076139473684262,0.01430465318257111,0.026160192085697313,0.061620101913950336,-0.14709893155688028
0.019390051005634935,-0.03797851704096536,0.05967441414271653,0.13138100369271621,0.016424384586575403,0.034689199373647894,0.05379588703033752,-0.12707354991796707
0.017915568798123546,-0.03093635576399207,0.061104157912259684,0.13508425935409055,0.010079870554988084,0.02005349823228055,0.052193518062722294,-0.10260979861218279
0.016318194296860673,-0.024456697736157145,0.06320363725722579,0.13030182471590956,0.01023022403568787,0.02207206328073506,0.042904730165838914,-0.06790581810030404
0.016364611798968778,-0.016434914512089855,0.06184147239676518,0.1267438972628177,0.015966641172862887,0.028804412999718323,0.03829365660840794,-0.057699499261401895
0.018208104495363923,-0.02983650883799188,0.05999248819870781,0.12819996589063778,0.01502050044087636,0.024381711414616775,0.039305671897643356,-0.068864550447199
0.015879009553837052,-0.031490773941236026,0.060730428555425486,0.13316644210349926,0.009365248337835952,0.02994604072319336,0.045003800036604244,-0.11845247210889855
0.01979897609118315,-0.031564826672736204,0.06725794452228276,0.13151863488402932,0.01823977067030542,0.035556195733702854,0.06517956213325711,-0.13829779202748566
0.021677216262702203,-0.027353173017656083,0.06431882082187662,0.12951181488863422,0.01861206359093344,0.032041415484367994,0.05408413263665411,-0.16299302176979
0.01570462520432578,-0.02877295435330558,0.06246589996894839,0.1316680598030104,0.009115406165693098,0.030911703115666676,0.05935418441688458,-0.15343389541511637
0.01630975494572695,-0.03306310244927759,0.06303225346871313,0.12882596011867078,0.008046693662758954,0.023679400393788432,0.050722666547062055,-0.14747295651757675
0.022262145171238285,-0.03464060985908994,0.058748094871572606,0.12152382969661626,0.015470295061447654,0.02578219608911058,0.049792823529576646,-0.12540996848776115
0.01712642556061457,-0.024016718656744648,0.06370604149255778,0.122365743569942,0.014385825832483334,0.027071779741294558,0.040359295773622315,-0.08348481975256432
0.018573680566952556,-0.01767698818889148,0.06715744233891274,0.12382298117551724,0.012426326288062521,0.02210559581809734,0.03591280365143119,-0.043362016299900816
0.015914652509183388,-0.018105946775539634,0.06042688962657584,0.11975301242132741,0.011537869129577357,0.01678571921295424,0.03471007467879687,-0.05610471588524046
0.014759338515793688,-0.025626079856690784,0.059470907635418055,0.12547746154211348,0.010633549631228785,0.020455428792775922,0.042643992791579335,-0.09315265653637855
0.012458747006025723,-0.036206412169387234,0.059883261690442766,0.12827572653474342,0.016454400053818007,0.024586628049261684,0.056427844246737364,-0.13748912246783573
0.02161764788207785,-0.0377265748365864,0.06045773655437318,0.12594729774237484,0.02523218330100948,0.02235675994152099,0.056993399198266695,-0.15258424672429077
0.016256792472561246,-0.030728073525381476,0.05640285573936814,0.12345933194717816,0.020294098911297402,0.026482772390646274,0.04767662795252759,-0.13933862579417985
0.01352865386835434,-0.031721533607553226,0.054186165056003016,0.12695491199778464,0.01976617772526923,0.021524586242965663,0.05313862247420142,-0.15859151868803123
0.01277314786528849,-0.03729848371674046,0.056544881937297425,0.12514900684443156,0.012339381271484675,0.02618168144501881,0.04405906505866254,-0.13802710573148314
0.012680926192829593,-0.028051716707261296,0.05840635439980552,0.11949086504797506,0.012483114046554035,0.023849504797922114,0.03431636427659221,-0.09737037252736684
0.016214671256896636,-0.01800316230042648,0.058177777301378256,0.11635735188787784,0.006799678702963468,0.021894275798725098,0.030102174968036972,-0.05090733742780165
0.0079094308862133,-0.01766224037120072,0.05701173323608679,0.11913748457375686,0.010795324942241176,0.018133332709586017,0.039198742797885926,-0.045629987024637
0.008495708663514021,-0.02574861742176524,0.054383024219973375,0.12028659270792118,0.010446581121986168,0.015364224338044512,0.03352852046330013,-0.07547406711787401
0.00907691723750281,-0.03456093904002977,0.05148285135588372,0.1188870374065909,0.00561310769662984,0.01675994435829973,0.039855584104298895,-0.1277343767476941
0.011915599501625171,-0.03824441011911219,0.04959056931797136,0.11669235166829545,0.01523662984011872,0.023066032486331208,0.04567011231116059,-0.15457408465945596
0.011301461125756994,-0.026834941958913446,0.05491499918812192,0.11960919166035176,0.017578487339537433,0.02464343345686596,0.053208108171412354,-0.15630587990967074
0.016476272666741783,-0.028622264099956655,0.05197612433632628,0.1170176870448001,0.01585232612392383,0.01460354679035613,0.044925457962381114,-0.16364981867871795
0.013077623675106077,-0.040523547619285345,0.05068405376986455,0.12013830954538529,0.0055188938326100855,0.01974929831412574,0.045167544159032576,-0.16767559094339834
0.00798398155426095,-0.04218673926555792,0.05172054741723558,0.10895940882848303,0.007588352096070435,0.022990488817340192,0.045067275437365426,-0.1463893934694465
0.013245765551107052,-0.0364669676675457,0.051833218683219766,0.11278718386371482,-0.002732272317577809,0.017061237890889473,0.028309285341481076,-0.09381593986197795
0.007052981068804635,-0.030406405098164092,0.05317795150962742,0.10664303976837282,0.016050872942747763,0.016974563312631204,0.02703033642967467,-0.05231193647082378
0.006193809271456646,-0.02940741579565093,0.048635084777310406,0.10353708837584724,0.014137482657283556,0.011879755724095099,0.026700635619830597,-0.0699606393940525
0.011833978753620347,-0.027581772130505344,0.04732419517296533,0.1097013339696809,0.013036736773949014,0.006778937195646021,0.02785222163246759,-0.10133868546956663
0.007328256010275869,-0.0485768052195665,0.043361848890268055,0.11361329685837761,0.009242023685123908,0.016845819508115895,0.037004684872923396,-0.12842949200240114
0.010439972674655315,-0.05453058434807639,0.04307894237925672,0.11510710063885457,0.006889604675988705,0.016905203290601956,0.032462451782715666,-0.15633076908053228
0.0071563208421593525,-0.0383525279009468,0.0528492967722461,0.1236817890055732,0.01482575196944606,0.02637548762074606,0.03735051688749366,-0.14042839583067349
0.009345744476723476,-0.04126223250260511,0.050825144193043965,0.11922698667683619,0.016980810167827782,0.022951543528512756,0.04926781888536626,-0.15171381148897917
0.009557123142847195,-0.0437412421199931,0.0483242218897396,0.11410967305948791,0.018645696573304348,0.02091575573362249,0.03360168097568128,-0.14023397668769721
0.00511387789954131,-0.03600846612567615,0.04547581342365735,0.10885892971421182,0.015567618922575239,0.019843306609829983,0.0349500508090517,-0.09482150495353595
0.008918875535331182,-0.04548596529160179,0.04534380529953697,0.10472309478124103,0.010938607195394466,0.014999117457206234,0.030812497907761353,-0.059667375034181694
0.007702102299038799,-0.04514538720700717,0.04248633167718578,0.1086053383080888,0.013019554758822386,0.012495690273588411,0.024130347591479924,-0.040014863407575374
0.008015265618163256,-0.051298055183045754,0.04686670971001112,0.1112795282979051,0.01005545098525027,0.017656467569101327,0.025917737545199507,-0.06224603400452521
0.013674288018279522,-0.05796052196372523,0.04291998480731457,0.11896654792304535,0.00962467568023323,0.018687075585085172,0.03554854460173109,-0.1002631219098844
0.01191701984114041,-0.05816823425063637,0.04279631849468141,0.11912944732459185,0.009280263379377509,0.010312150043258498,0.03276727644460736,-0.1291524879805738
0.00980865499890162,-0.055499057311765666,0.04306009826132353,0.11858340157429488,0.010715559546905501,0.016322462368190217,0.034244059279297315,-0.15275479781007345
0.01441755300395843,-0.059116597436193935,0.04353301955267344,0.1158592398423318,0.007656617201843718,0.008979551323452255,0.026309898850660315,-0.15352183423347748
0.015027764167473067,-0.05489293334560624,0.04277933766210506,0.11301761873864079,0.005108519671597389,0.0029251052224955557,0.02869456905514113,-0.15686498251632594
0.00606459658529997,-0.05520860334723098,0.04173324961978658,0.11080251969924342,0.003755690440777284,0.010545424235284283,0.02923059609301735,-0.13109893118418747
0.007558679731872167,-0.05197038818618156,0.042161850585064976,0.11348650209991137,0.006380596106898448,0.005059241908257641,0.02181961314903798,-0.11686466292525369
0.013400260381177465,-0.044499180417965745,0.044950223855423195,0.11065483045946828,0.006014344973660873,0.004701113721722279,0.021592383164837078,-0.09317822613378186
0.006368907654601531,-0.03956658805269562,0.04406832819361403,0.10766753549263536,-0.0013566937451757555,0.006254744531294487,0.013243346265999476,-0.10370241278520337
0.017238854520693517,-0.047342547378069644,0.04093351580126451,0.10630070461093323,0.0035514617222577377,0.005000792596860777,0.02621143480602329,-0.12149168990552268
0.012731719742415982,-0.05838769885159194,0.042312996330428565,0.10964661627676114,0.007508525652030297,0.014575220990374652,0.03086659916386168,-0.17757351138191516
0.012329401193060963,-0.06000006025430866,0.04241841985194929,0.1139400544635938,0.0021161075525910934,0.009576080573431255,0.03474914985660845,-0.17728558470116548
0.015391175802469915,-0.05637743027994972,0.0449529553642343,0.11418110110342042,0.005679465738749132,0.0037035670898068053,0.030332482484275027,-0.17263367801705737
0.01663351878024273,-0.05536562343561625,0.04630019814095436,0.11512194032895937,-2.3344498472443697E-4,0.00792392382434994,0.028052786527415576,-0.16009643627293152
0.010161621343840214,-0.05846065147961353,0.04358451886645616,0.11065415140972858,0.003066707821438102,0.0023626016555082056,0.019008483971640067,-0.14759994574234386
0.013370147776837156,-0.06363326455519568,0.03959119012396194,0.11164166808184288,-0.0065587801796041035,0.00451935372674386,0.021971811300033624,-0.12839725415147593
0.012960145705823982,-0.0565999304733949,0.04013301331447813,0.11790461592246747,0.0012306450613897267,-5.734749534700308E-4,0.009772142737850492,-0.10742223239056868
0.015499412215904786,-0.058327676406469235,0.044497162520622975,0.1114393456109607,-6.263990005729208E-4,-8.07882059015362E-4,0.014222732704194838,-0.10082485688247972
0.00996429655773783,-0.06111776479865935,0.038207183194385964,0.10382583183593624,0.0018174928065806753,-0.0019480718348658026,0.013256030028069642,-0.1271542110828354
0.009095405211202065,-0.06232065698461151,0.0357829532223238,0.09799182811337664,-0.001587528711782936,0.004389835939476988,0.023178151140406705,-0.1552476158471105
0.010411456718474602,-0.06797861481546522,0.03854002685779527,0.10519533272563297,-0.008357752389860577,5.371326327030129E-4,0.020348914834684116,-0.17992332721161924
0.008967780631791693,-0.07918175373541089,0.029520714161122473,0.10331447729330868,-0.0012706966972696303,-0.009153901528278769,0.01394170236146157,-0.17717549403482236
0.013497309389493962,-0.07543441488094181,0.038098116603647106,0.10809394927866048,-0.007506013504622325,-0.0033876893378699986,0.02010513823378154,-0.17271226507598927
0.011825226018320305,-0.07205958041399209,0.03389745117632135,0.10529352261691068,-0.012187041157302077,2.0191405192106047E-4,0.014646919955282845,-0.17369460149373328
