-0.019342439724760834,0.2982007351810634,-0.03603868014097462,-0.0900099387354668,0.03831425004324261,-0.004580071015477072,-0.01543513911603593,0.6567275797624106
0.0186617768603642,0.30146084632444364,0.0031313340744105757,-0.053646282353029186,0.06618911672288158,0.031155755938256494,0.028228112604959076,0.6542649161523959
0.017177536823686036,0.32135216531997957,-0.00470666955748733,-0.05486259563227733,0.08939110169753153,0.02201143152640158,0.044002630328350875,0.6906971276029429
0.015840924557475253,0.35116119254277206,-0.010292916187016016,-0.052810285400267526,0.0424940818621225,0.022442112321349454,0.02971613001451194,0.5596767227741035
-0.004344498971162231,0.3062695970262906,-0.02977988208066326,-0.08246127364991793,0.006878524160764814,-0.01242796408569464,-0.02704932243480438,0.38201748798648355
-0.00524845990462419,0.2721042072937297,-0.03975030820940971,-0.0798920860229567,-0.014613712177644442,-0.0436552654297278,-0.03956329588621314,0.19391743005303436
0.01989053688504627,0.28278918454506036,-0.008337681849796436,-0.06589908174816134,0.02286970106975219,0.01647800387661392,0.030353617648903528,0.28157159341862964
0.008208184029371783,0.28737025031865737,-0.0100704230824077,-0.04990593831656335,0.031872678518782616,0.00924933796512214,0.00973516839721009,0.32550074095309106
0.0140502554271162,0.30452922967255514,-0.013360439604415594,-0.05223060706458669,0.02564062816106963,0.007571485735855239,0.009509779002395451,0.4476817011946825
0.005172204828435985,0.2978176816450367,-0.022416809267773036,-0.0733611034567019,0.006087774988539714,6.547497856445858E-4,-0.016545387761684422,0.4679682653114517
0.01463104632105596,0.2944681995268297,-0.016266226927934186,-0.04698122363095615,0.04807355042594978,0.023205154031822384,0.018070951126380713,0.5842183040738116
0.02405263141911186,0.3105290915463309,0.01508084614508672,-0.035753695270759535,0.07332318630277959,0.05181806364462119,0.04763974732324813,0.6832213537175509
0.033789244738917146,0.2997496657028936,0.005411392247555323,-0.046712892717049315,0.07569011912305923,0.044552408391793454,0.06558312987083231,0.6583790160784222
0.013441766794348121,0.31478155897684695,-0.0022297742794636297,-0.03986165192600586,0.05315485383719461,0.006793467031713106,0.013719389262646712,0.5485863959287935
0.030370395486543966,0.2743603545439253,-0.016772964476594286,-0.03323288114354299,0.020584666875569157,0.012699388994826786,-0.007206692799910476,0.37597649902031
0.05934246619739217,0.26069166222531387,0.00413665810011756,-0.013477819002444161,0.03354344127827406,0.029539715699547782,0.03782251313074512,0.3163581505888021
0.05526343663332824,0.26686457459956314,0.01582077011529977,-0.013024396303819135,0.04019276399445225,0.03661074772849733,0.03578126441960082,0.357579918455172
0.04693353542476342,0.30348955340140565,0.014342495135538463,-0.011743323067773344,0.05618167996097061,0.029892158797389184,0.03347847550865164,0.43139745554989045
0.043681614770488236,0.2734963941216102,0.008481195624783954,-0.007938546246863885,0.06733597847274056,0.013839236529745653,0.014527352070557982,0.5333956935025641
0.06264237929698456,0.31120961255436913,0.04504154380406239,0.008801123802570436,0.07686541554428104,0.050609888425345737,0.06840610962143188,0.6088992687231655
0.08670630913339264,0.34141237523642554,0.06420256000417401,0.0095497726917413,0.12781262720576517,0.06653445271602317,0.07785570491024958,0.7015168301300899
0.07462882788718508,0.35686228615323967,0.04276032165602138,0.010457974238146905,0.09737370370123215,0.06488723628692114,0.08336877268863714,0.6512698552593092
0.0709729794350447,0.3226142205223392,0.02890527074561801,2.661572785536301E-4,0.08769477486213428,0.041424981285894814,0.0549513319564253,0.5703734319459645
0.08341124210854096,0.31786964602671125,0.048936711682568905,0.023103285428802873,0.09203299338102541,0.04221674012425819,0.06824348595761519,0.5662941288875417
0.07671399908848238,0.29006949107419355,0.05818069723372804,0.03265077222746628,0.1075283412525802,0.06693443329934597,0.08682090535722303,0.45675430271531964
0.08898249512350447,0.27606526500742135,0.03722933473829784,0.019674950420656725,0.09429430199865003,0.04944032626179688,0.05749311256018345,0.3813487022840309
0.0718200383438318,0.26370967860536865,0.03236601076601883,-0.007594886126178507,0.052322485527902605,0.02451863278379044,0.030692887097127218,0.24502615436011868
0.059409380937669405,0.27036360510291035,0.021462678936077326,0.0037820890344133786,0.05364563273612359,0.02668020123780055,0.030422242296611637,0.3630166019458338
0.07707524135877328,0.3016458286108698,0.05938506675570088,0.019811730407769353,0.10102407273963096,0.07287755309203767,0.076553693271346,0.5365124179038313
0.08530041256236048,0.29918501939339737,0.051487409270939526,0.029187433666642396,0.12556073901078596,0.08238984688990623,0.09512853905739276,0.6701904699290725
0.07882961363727514,0.33096006460410193,0.046288374404266565,0.0012756555412236632,0.14967170287352333,0.07093205340382269,0.09744059339155889,0.7564736636491085
0.06722521708486669,0.34968040129095185,0.03357386568233923,-0.007929851485323162,0.11343215176346498,0.034381680909059326,0.07832653300646182,0.7585972840962499
0.05694500594809457,0.3357319581570305,0.029112811634524702,-0.006575245590664674,0.09583588040118207,0.05609652373562229,0.07800456946659369,0.6799155949009905
0.07722730289883553,0.3203788477976874,0.044378045369392,0.010898070027610625,0.11756126768721523,0.07173913801083907,0.0902997274490256,0.5982206555147743
0.0728542281878975,0.284373118081681,0.041582367408523405,0.008740314377246977,0.10484085121374538,0.048868879005115426,0.061672550609231346,0.44714050916331877
0.05412170508639278,0.268981719733284,0.011071378853618976,-0.00837758729194894,0.06832927592493003,0.02335272099717325,0.03338868422757195,0.3281350517334086
0.04072381192649257,0.2771279863812425,0.005740337700781204,-0.02477296403583884,0.04290889923158585,-0.0019215639523630927,0.017729004100721375,0.30289850831850285
0.0390681509133392,0.2791770102586441,-0.015554341673542155,-0.04076734785230456,0.04962051407780976,-0.00972657880142951,-0.0037576655496540413,0.4635246277611969
0.052793270042438285,0.3277082743393201,0.025421714033646018,-0.012699487607920801,0.11265632805776354,0.041655052910552194,0.047213300928828306,0.6450657580044004
0.050532220928317426,0.32037036813112013,0.019723661736924764,0.0026709944448417935,0.10694187633148501,0.0477178334901398,0.05327575327223462,0.7906259166235382
0.05251664304700993,0.3151433508086943,0.010615216056297715,-0.027462723428642238,0.10328965978148337,0.05163558561169437,0.042489162373108964,0.7923757356129992
0.0329462284583652,0.3269945783391084,-0.0038378104551983405,-0.04321039242610709,0.07599079489763888,0.015437746237403824,0.034007591696837126,0.7443100451087888
0.025948089257022997,0.303538986724676,-0.02151592497707487,-0.05086840871873807,0.06785737530869998,-0.009785887455896989,-0.014215509958431521,0.5810398492615805
0.0464888115105511,0.2812125066198092,-0.0017524819634521448,-0.027123013597134548,0.056518716185789214,9.636029526184219E-4,0.02392565504816595,0.45328313555038313
0.042095099867020425,0.2938911812879748,0.0014341395530501544,-0.045300238919009465,0.04352407960160789,0.005051052208478136,-0.004721442652386287,0.28352312078712233
0.028403933575077183,0.246656130661445,-0.017228920056084687,-0.048950622669356736,0.04776562576281817,-0.01518639809486956,-0.021795010451633845,0.2642997949920942
0.021071857511852143,0.26537114943639506,-0.01591309242068216,-0.06529031892234143,0.033339662215099986,-0.03854118633423039,-0.03273417767187016,0.39438503619427784
0.018874242895270073,0.2869744438320448,-0.02100617740868448,-0.06516618762761725,0.0515686771611701,-0.021712635107624847,-0.03128885225983245,0.6533973037251345
0.05149953194745272,0.3563666142252607,0.011438716731658544,-0.040883721275224445,0.09169734908883675,0.02822278257686431,0.013758641704950664,0.8207250638766531
0.0391437162357166,0.37361529610258687,0.007290106735164223,-0.04372058774268488,0.12249210051122718,0.037098473559154924,0.029585689021938505,0.827990019546236
0.042902917023341494,0.31805177368139637,-0.004625494288879015,-0.0556321716666263,0.10501948334497133,0.024083686371136226,0.0165596175447467,0.7777630573195832
0.03716730875180635,0.32779805549980207,-0.002045058797459377,-0.0678588723899284,0.062077968185775885,8.326506336564134E-4,-0.006755550683359029,0.670113344829593
0.013805022903279472,0.28165420377061384,-0.03138608986108289,-0.08772804748437947,0.03437723216403654,-0.042503264613959924,-0.055889087424390915,0.4973216112213866
0.027793373200569637,0.28543642943031006,-0.028955052663036652,-0.06867105243396786,0.029237659865924213,-0.02520694942292392,-0.053017656400781765,0.33379699841644334
0.04574157909251196,0.2872104113857726,-0.016981441965582583,-0.049618555691714486,0.04135364931881921,-0.006524653064497978,-0.02783720046907068,0.31014022303339406
0.04412788685518151,0.25557792339042606,-7.363575224511337E-4,-0.04963201385417212,0.0469163767098084,-0.0060853241522268245,-0.006511195205815191,0.36255143543463586
0.03559228833844909,0.26445368264685953,-0.008343709659651123,-0.067046132407548,0.06596696652283744,-0.0040891879326088515,-0.027600149328266356,0.47659679472175526
0.031333743897389306,0.31708744795639743,-0.03333749957089546,-0.08001250172126276,0.0662284814868147,-0.008454652944345983,-0.043076747633090794,0.7711608038737722
0.02722627266307079,0.3232912331722698,-0.023255807837007963,-0.09329078052751733,0.054137290660812895,-0.005012446905459832,-0.04977506774396874,0.8238220985688048
0.060856888059359904,0.3179529958036787,1.7209721806456685E-4,-0.06604056830945292,0.09241021447732926,0.01883933683941157,-0.0030269498653051263,0.8318892092037813
0.060605001647652264,0.3174655602977395,-0.010942248961488805,-0.05781501320432142,0.08792269577368005,0.031621296636879175,-0.013837379880225605,0.7407262353677437
0.05971144027736914,0.29313948936354045,-0.01847670184829508,-0.06948497538136449,0.07576454830567393,5.971330917265623E-4,-0.008805626342103204,0.5979727930305064
0.04013268341858886,0.3074879297118834,-0.012042292469075818,-0.08524207033515288,0.04060880759723769,-0.017979405265109587,-0.04961743995801651,0.5567900576717012
0.04423189212619676,0.29820419932519665,-0.012103619625601546,-0.07978030887030424,0.03280521174746694,-0.020143937603591688,-0.06326541053429155,0.46029571512163736
0.07278016572026162,0.2611807281684966,0.0021905645243830017,-0.029784947142607442,0.06395180626602424,-0.008407809295738658,-0.014092979066728102,0.43892511354365604
0.0691595084435777,0.28634281249523497,0.012704615266468997,-0.026556880333511473,0.06322211866910855,0.005594908466689011,-0.02411416746135935,0.5627773253263224
0.061013462024673115,0.32015238332222873,0.005852254897838804,-0.04153291973570835,0.09753908040204216,0.01239381294642082,-0.0026718799380452676,0.7524383984819786
0.06636148050594125,0.3266005482773613,-6.939506580309746E-4,-0.05614716794096954,0.08148399884335741,0.0033957852911902222,-0.015576036619923555,0.8353844806664655
0.06051517606763678,0.32500575490384187,0.015685045453249703,-0.03209161028141426,0.09059578094590713,0.009095099894186803,-0.00894999792141604,0.8459157262551419
0.0827314074655866,0.3047538578140334,0.0218777466241706,-0.025157782459376343,0.1266855877389274,0.03405742640324038,0.029597959172520113,0.7401981186530953
0.08489710693432068,0.29794057497377235,0.02758882833510026,-0.025287099199733713,0.09574187602327404,0.027225993780578384,0.011947906993992244,0.7273279088138653
0.07811078110555059,0.2997982356695749,0.01373779660193497,-0.03841888851423573,0.07612697509297299,0.0028315895803151907,-0.023367614329441466,0.5765155894100259
0.053551924916884854,0.2828204500426761,-0.0055902944132521755,-0.0528108276934267,0.06188439828527435,-0.016178314911820917,-0.03957783813745143,0.472884937568801
0.07869916365590036,0.24375514422465794,-0.003716659548136509,-0.03435541662406266,0.05522728781258847,-0.0084658773929499,-0.0228058734226752,0.3765800946629171
0.08358380644251523,0.23102994741268354,0.021062829183510552,-0.016824848216198927,0.08526760923100277,0.018539946411219227,0.005682506281724895,0.4099134258926413
0.07813671475587292,0.27756305832585215,0.018999503218806873,-0.015298057621674003,0.09987113730769161,0.034918446861319175,0.01328900737410781,0.5765309021672737
0.07874036706755577,0.3049846073625301,8.544478470327323E-4,-0.04045683632525254,0.09603295966542279,0.015174865204310979,-0.006925287490267694,0.6950215375548445
0.07062414325454765,0.3175248333474554,8.368778270837058E-4,-0.0682192416952653,0.08474989682888778,-0.008091787325469573,-0.014019661687232048,0.7801197398346903
0.07966822318346525,0.3027238568772266,0.010155927299837988,-0.05767242548115968,0.09922551143507079,0.026275665167458682,-0.00925840274076697,0.8388040101427351
0.08104720662524656,0.352923553137886,0.022860785424425593,-0.05921703525738015,0.1469628043808906,0.05502669072553305,0.03220054146786314,0.8298006122040312
0.07559294618574952,0.3342802165790881,0.02646224054667621,-0.06355843622982342,0.12174737804441713,0.03359367690423502,0.004917857265286672,0.8456623110167206
0.06719796476536655,0.3279572433659136,-0.005241470782503781,-0.07031464306879034,0.0918355617772399,0.01026273631430024,-0.019196732647015647,0.7469482642810679
0.05384578409220088,0.28161506274849596,-0.0224577065327684,-0.08377897474340312,0.02306444431531262,-0.016391436646887532,-0.06505414776368376,0.5242873219946593
0.07334341746245741,0.27296538101850876,0.00461803137456751,-0.04070742016082316,0.06080211567568058,-0.0013010003201912722,-0.012207510705101801,0.37399541868752545
0.06451515660929902,0.28124958920016807,0.002468656635782823,-0.024315175193827084,0.07356928908569448,-0.0050297217724881845,-0.01821633958472232,0.4436820912140962
0.05677526749274949,0.27281153035301103,0.001865511275674705,-0.03855377276815448,0.08285063740367926,-7.294201789209629E-4,0.0010095553996894541,0.5613091456356162
0.06246330202314899,0.3210974038503245,-0.015164513085494135,-0.05770514956278793,0.07631632911174664,-0.00483347662131853,-0.01913176151025808,0.6601512532680581
0.052785032401937305,0.3132067442196075,-0.012628756899522779,-0.060093103813968,0.09310964554264489,0.010021219553333596,-0.02826775156857841,0.8016072305221394
0.07247462820058038,0.3138543378268666,0.0026313571481991886,-0.030499168847004803,0.13326032094915213,0.0523068907575161,0.042643108251292944,0.8937926737478123
0.0675906787955564,0.32634967433049455,0.015818825828759524,-0.040737256431153154,0.14198742332881148,0.050154613570354015,0.04008261734732548,0.88415575685578
0.05957090938171379,0.3144713857909129,-0.008061060656883837,-0.05406556201871609,0.10853603563239617,0.016822163757159128,0.01830182657601557,0.7973597161718475
0.04289302059993626,0.30475091298671664,-0.026759866611567804,-0.07434667291298266,0.06311516794945826,-0.011782357432572126,-0.04290261977548695,0.6306645701801951
0.03531342299987151,0.25625812788289215,-0.011101731555337693,-0.06398075396185773,0.06618890749760738,-0.012738360162330669,-0.03452696478167891,0.44665346634080655
0.056179851892203814,0.26347199937649896,-0.006145298475844851,-0.037381044680486246,0.07005140774002579,2.202893575684722E-4,-0.017184247908608896,0.33208569892777706
0.048427131505153875,0.26583819106768714,-0.007039945378565558,-0.04977421312325387,0.0724264361515066,-0.0049283797807962,-0.008903437453963808,0.4139432309211357
0.04426682455671507,0.28608950665136706,-0.009749331594524712,-0.059283941093852495,0.07349625778609022,-0.01517432111306094,-0.02072276174760791,0.5720370265037058
0.03133177469989685,0.3274696925630657,-0.03692132723567361,-0.08695004411801886,0.06953537972194303,-0.020289504528632995,-0.02515794104610313,0.7418648670346587
0.03307841694791949,0.3197796865648118,-0.026800194039180218,-0.07040767483920957,0.11956090271988822,0.01731149727085727,0.00539282097573477,0.8691602564503089
0.05952374481148579,0.34101365462001676,-0.003231244923968888,-0.05390369173637903,0.1302782203409673,0.04428170730146732,0.04325106386667852,0.9059559213958491
0.0564854448180303,0.3648052318488392,-0.004881101483201248,-0.07277391732366342,0.12592999461509677,0.025143665251243796,0.03316736096969253,0.8552431705038193
0.030128269339182962,0.3302230619942642,-0.02162119837202211,-0.08745106876608381,0.10122304210985619,0.011102107334070643,-0.012462266640559768,0.7105622622528083
0.01777880255158338,0.28870411428406567,-0.037414303762342484,-0.10665103959589477,0.04074102439792768,-0.03959719258209346,-0.030636129392008802,0.5194096965351855
0.03428002609219825,0.2752894317987234,-0.027840883736820966,-0.08326668861346233,0.0509674513533719,-0.03462809764517644,-0.013279001526841345,0.3924500817055729
0.03534747578741116,0.2914511411937186,-0.02869978992610489,-0.07891754207022549,0.05636678915667139,0.0024371801617452723,-0.02069790677595917,0.3880516750549599
0.037349967022902886,0.32555223929895266,-0.02453409803579483,-0.07495211808581978,0.06752026711208481,0.0012283705024355904,-0.011227813707503817,0.47699859496963404
0.0034709211808919577,0.32079950048798167,-0.04812851971481889,-0.0900602038156335,0.06138391789986666,-0.011707690546018319,-0.023762309299842303,0.6736238778849517
0.02365733885740981,0.3387697475294846,-0.03204425346971474,-0.0707002954985648,0.08004654062633892,-0.010805847358943793,-0.015206185600564932,0.8141407370443229
0.03850871828027924,0.3404581828626039,-0.00846448718924797,-0.0376114112169414,0.11483955126698138,0.04991181370714973,0.030479585777610212,0.8661499850719008
0.035728842127511234,0.3836742701515007,-0.002133780125116953,-0.046836160737964115,0.12060496105337827,0.03976552613957991,0.030702719822760252,0.9677147297836188
0.0416869012526484,0.3427769652537055,-0.02392268053671099,-0.06750842904804075,0.09552136267922384,0.02134533173527597,0.01511614796664781,0.7662862164966954
0.020202519397902675,0.303193293244936,-0.045393228907992064,-0.07781760503607313,0.06617491707204917,-0.03162346605659707,-0.04385804738067102,0.598804734177863
0.02659674225464974,0.2862182843477235,-0.03560313946927587,-0.07396849910236168,0.0463997412460958,-0.006531936440442337,-0.021534573664460297,0.4261783440198001
0.05057794289211013,0.287886852818104,-0.01153621991302469,-0.06828407651064611,0.07460741408213244,-0.004617318055030904,0.01084322574911658,0.36019605932380167
0.03381214567093738,0.29443533906268127,-0.024215160569532504,-0.06223211183657082,0.05819720705995402,0.0071242676227849,-0.011652155521002785,0.474655354663889
0.038962200854331615,0.29709356427181194,-0.03609170209223574,-0.07657771849355273,0.0515766578470835,-0.012459557586047401,-0.016245849823334498,0.6188203454538472
0.03210491584087194,0.3133968171896304,-0.03140509404854465,-0.08550309880473059,0.06774337677955719,6.547495650912412E-4,-0.01904747093322804,0.7974612550222511
0.0359236875078292,0.34303196690465265,-0.03199563412431761,-0.06155151879880014,0.12347215797984884,0.025049867931050514,0.0262314909565282,0.9209480760158166
0.052961462803000285,0.36918917392043554,0.005356071738516841,-0.0560542572685204,0.11410596503246377,0.0570151543804555,0.05226491344508035,0.9587954632179048
0.051532266011789,0.3569348540515216,-0.018010698648814612,-0.058477674506093036,0.1035749160329439,0.037425605212316776,0.046063211014227036,0.902609199756073
0.023647475479974204,0.3418879566710164,-0.03136375519670878,-0.08994108306629042,0.0758187663272117,0.02088102914481521,-0.009973596524144576,0.8041173666437339
0.017149173319027215,0.323310643236182,-0.04212082814593995,-0.1127668608119417,0.04555549307695863,-0.008066123653545913,-0.01882105290438974,0.7062877689830056
0.024228994697542323,0.3274738416118344,-0.030146111677572383,-0.09493433907299569,0.061489213991937824,-0.0011466553882282197,0.014590909401513205,0.5640141537171486
0.053056426828067056,0.27666094572803646,-0.024270945785436537,-0.09811786356866259,0.05918677194757456,0.011568405610494447,0.01645367485093323,0.431529519502513
0.03608269032898575,0.2894190431048481,-0.026771836702632862,-0.09150792604561578,0.06352329791395195,0.003226877889763115,-0.004360577769414571,0.44829135566757233
0.0319801049550833,0.3096803316492843,-0.046804538063495646,-0.10496206993513647,0.051394136205931494,-0.0034884963385291177,-0.02588040591742257,0.6064198004511573
0.030644269339905862,0.32361211001612905,-0.04730528106666504,-0.10406700909322515,0.062077137339081614,0.0059512243790585655,-0.0034865069194292622,0.7876511855989617
0.0576005314535931,0.3571607060231426,-0.02615058371945643,-0.06120200368430135,0.11225845055021741,0.05471147216630778,0.034088408222549646,0.9213820403720898
0.06849529209283581,0.3788035645225022,-0.010568266338252622,-0.06500633967904781,0.10912543126741771,0.05865748468841066,0.0602576268790571,0.9495532252728105
0.038148482921747384,0.35056134092379654,-0.03099315628693785,-0.08037012808258946,0.1000045199282324,0.034950036889545864,0.022081048460221908,0.9236938940876023
0.03085475027982644,0.32018035168531717,-0.047457780052769544,-0.09919063907685989,0.07637990533538618,0.009606577993586045,-0.009216951455097561,0.7716534969669033
0.0480813344422181,0.3061787073994139,-0.04162050609949494,-0.10077286406183611,0.07970560750751235,0.0032261058381362795,0.0031442653278442173,0.6678165222865854
0.05433707790534645,0.3238251012516898,-0.026491542152544494,-0.06767918741072458,0.07509416051622712,0.0162799436869575,0.029514562283961526,0.531999334009207
0.04649874224516698,0.306998226535242,-0.025278862516550517,-0.07575852693355895,0.05528548783853011,0.0035838064857762588,0.005967690975374722,0.466521385342262
0.026235094534790764,0.2910824336347876,-0.044688722133906865,-0.10110821733261854,0.06762078794687904,0.006626341661585942,-0.019542553185700823,0.5331980636011012
0.02438493094238964,0.3206769423637259,-0.052482322892720736,-0.10594489183140329,0.05723906224895281,0.023834361536091957,-0.012501901124246609,0.68014830701333
0.04615644548958437,0.3609590885411369,-0.02756853272393855,-0.07654879746605751,0.12911933962241587,0.06289711663035205,0.0730932592799127,0.9130039794708188
0.04561774136772813,0.3874193818917301,-0.02653596825920125,-0.07729481049672664,0.1353966681907129,0.06617188468081225,0.07033695986308543,1.006447210210417
0.05906456306458397,0.3497108763495274,-0.0243562157911471,-0.08501080831197863,0.12387782130670937,0.06299567418664037,0.05959737712427997,1.0022720214743737
0.03501732541435627,0.352315461053075,-0.04127738686956641,-0.09713031473804672,0.09799190277338274,0.034957423859374705,0.02587120157387583,0.9632147307154271
0.02063432551315938,0.3366871816212791,-0.04927725878035302,-0.10825188763709204,0.09236091314604294,0.03012830017293649,0.02537198605841585,0.7797241437686638
0.04362784230357773,0.29027083304433426,-0.028982251072028068,-0.07638529791887375,0.09361228533089215,0.052783246271898746,0.034784733484927,0.5277528808947788
0.03060700248859783,0.2682749319301772,-0.03823996811720684,-0.10147670863851879,0.0702957822001319,0.022577662693894482,0.03337435127756008,0.37623602374227316
0.017149497708389142,0.2338562921174825,-0.05797735663937121,-0.1148537290447776,0.03573128913314057,0.013583403898651477,0.012761932266034927,0.3447141012504538
0.016316662006419062,0.2937936278187541,-0.07213974290425801,-0.11943191892914802,0.04880091309671565,0.0012329304184376516,-0.007154222215615205,0.5501187856055323
0.03157185560243027,0.3102144841143047,-0.059748954354019765,-0.1026135457003431,0.08813054030833564,0.03594050208710175,0.04319460772834256,0.8194500365433204
0.06120235995186485,0.3615316910710698,-0.026450344499111673,-0.08429623229006024,0.1487838273301552,0.09073827700217128,0.07983777042390887,0.9794041223338853
0.026393536537615562,0.3614643901436695,-0.031251135674153385,-0.09375111164170322,0.15392602256001067,0.08383884683560498,0.07266458453326637,0.999948799210621
0.025133062128075912,0.3150343760391343,-0.04186405041498762,-0.10997453501606519,0.12684444579739998,0.052199618707677746,0.04295657324488254,0.947786477916047
0.03095489533414708,0.3355859608128471,-0.05498205521148882,-0.12421994566693478,0.09388394303848457,0.032727069549138045,0.02706775713103736,0.8230961182941909
0.0460036352625677,0.33196528371793393,-0.03366525571020418,-0.09708854764722076,0.09816798147277289,0.0630425375078549,0.06723609178342167,0.7165948624481713
0.025450039087936683,0.3132415724326356,-0.0497265608254844,-0.10077585018763491,0.06676246278123965,0.02293315424616905,0.028215089813028674,0.483133389297544
0.007074587542290867,0.2706228224376276,-0.07007511868105075,-0.12034850757166732,0.05853940484506455,0.012957107995009922,0.0014950108797984472,0.3474840582106927
0.013987931235991034,0.26372717627354203,-0.07638849260214474,-0.11434813393524595,0.033256650703864805,-0.002452419194495212,-0.003765353522987058,0.400843897921142
0.01570624572681095,0.3147518762823201,-0.06500392461393986,-0.11095109994955721,0.06432700374465836,0.018253472924922083,9.109266429582573E-4,0.6531302279263346
0.04237109153335002,0.3454668890285892,-0.04845960513360885,-0.08863453696292543,0.11515632717274078,0.06284223987341994,0.061161167720854545,0.9658314844308485
0.03128376956263446,0.34542781504814185,-0.048874280151961304,-0.10436210366021305,0.13754734007364255,0.06814093252448541,0.06644622331647053,0.9708263327108041
0.021064325791959066,0.3118556742353052,-0.05637999690519178,-0.12369874400211253,0.10791802003493073,0.040394670175090824,0.04589250147570639,0.9587552270547506
0.01479112497438472,0.3370173353285105,-0.08922507895596875,-0.14669010868228588,0.0885100051327708,0.030484898543221877,0.02568918972307436,0.9493389624964236
0.004369650889059755,0.35532241975446016,-0.06970477617160697,-0.12233920924830484,0.11251640318481997,0.04065015979277703,0.02574231849405337,0.9372888772846422
0.026065091902287917,0.3377779207148261,-0.05568698808932966,-0.11314584741187764,0.09173890073382984,0.04308368755179633,0.03271540510328146,0.7687084985714108
0.008460585961737212,0.3044871790223985,-0.06872954191748874,-0.1300204456587483,0.06629542384353451,0.011260561312799294,0.012525403267088413,0.5614172493812408
-6.517587340926724E-4,0.27899619855526575,-0.07981812245536829,-0.14496142086119818,0.057412265675180756,-0.021781922883736784,-0.0028019993550783377,0.4803838367316158
0.001351491653966337,0.2746406342174554,-0.09785989583209168,-0.1696856912497746,0.04554866219897278,-0.014525426020772503,-0.0636508371543914,0.5399451495088088
0.015366740150846167,0.32030904533682236,-0.07978283754328622,-0.1184072932480111,0.08218063718298753,0.040722607833570554,0.019853585542037516,0.7518752462288495
0.015149595491311577,0.3495026289289413,-0.06584578340268084,-0.11287820224328117,0.10645606988964489,0.04604665845996564,0.03857064413695596,0.9156333157900214
0.017022047825099144,0.34003700433007494,-0.0777263641432636,-0.11611462962814398,0.11176542230129886,0.04173741919852937,0.025872231720890617,0.9552211546334766
0.018022070381253877,0.3691061347527971,-0.08151892885024072,-0.12984099619110748,0.08968377592971989,0.026042542750887906,0.01693396761871444,0.9938633980449008
0.015061012179746293,0.3797749598198397,-0.07108663159505851,-0.13613328710012484,0.09211506381772014,0.03270295007563229,0.010220404543297508,1.0200708858863368
0.03281940695098791,0.3820956973978599,-0.056030010808289954,-0.09948711308101266,0.1136640395652728,0.06792284913468218,0.03476674635434287,0.9230302398372121
0.032711354149131365,0.35346115816665397,-0.05271148570944307,-0.10708242332539834,0.07440605268151487,0.03207626624906131,0.031436009933313996,0.6791795291250156
0.01963487604417341,0.31017789286712005,-0.0674352285723642,-0.12007045432420078,0.03590814904510562,0.0022095378759572535,-0.010885959391231322,0.5059471994048768
0.013473534915983148,0.2986028447494875,-0.07245822451269737,-0.1377749877948536,0.025402933870748254,-0.014488219012582182,-0.05707086693253763,0.49169675046478967
0.020222059050451734,0.28385518951009575,-0.06825512866194396,-0.12450431611503261,0.04604175555030507,-0.005489890137357993,0.010974042957075856,0.5102715082655696
0.05353335116734237,0.3298084216900864,-0.04683649518432727,-0.09173480584522968,0.08250099096385599,0.028826119896104608,0.04351689647086452,0.720953263762799
0.0576890906909177,0.3679714998912009,-0.031477426389998876,-0.08854135292181008,0.09491328373706073,0.04441985367744526,0.039582487090850084,0.9431335596882292
0.047166535061221815,0.3827178079363664,-0.04173142743543857,-0.103538713084812,0.11951856654776666,0.03236524296555412,0.02319455705099139,1.0055778109561477
0.0376292555044262,0.36435042022622777,-0.04997101285423464,-0.10526460540654697,0.08818552618438721,0.019747666784107068,-0.008176430046959417,0.972750472801755
0.048701889351783954,0.3890331657596454,-0.05442479741957399,-0.10661324538255314,0.09636563316211681,0.031793813370667175,-9.8319278727538E-4,0.9504177158372077
0.05272325542222732,0.3600527021265138,-0.03758953847591991,-0.07567731623074704,0.09472874659440776,0.04702733182844979,0.021360203889114544,0.8766013477800582
0.05046779333561911,0.33226082144205643,-0.03246469078337044,-0.0911325254797911,0.0681886903595864,0.031623988490927034,0.028024570338632603,0.736405566467202
0.0428677746549904,0.32930620439807873,-0.04447293869381796,-0.10800631116053573,0.05515120924447382,-0.026030324364990354,-0.01672617705234007,0.6159930131631364
0.032958678723774705,0.28748379013608416,-0.0607267897662558,-0.12502426427347846,0.033402136178634766,-0.05332951967709834,-0.0496528595051889,0.5141825563681964
0.04938310893346922,0.33125616072534864,-0.03612457811564123,-0.09754457734012242,0.07077159773489682,2.877342952723746E-4,-0.02127620694990034,0.6163056186638182
0.05508157059885478,0.34464198183169115,-0.021456767806112585,-0.0885821426935528,0.09690276080849454,0.034796721820347154,0.007989125237127614,0.818902204514058
0.06368783692164628,0.38478631857915546,-0.02051612956380259,-0.10212686949711008,0.10768973820654867,0.03961514449404525,0.016667577115372756,0.9815095809973238
0.056533016733735515,0.3875147820594306,-0.04740330664568917,-0.10225476861990672,0.0959506618841495,0.02648085242884068,0.012400245619606546,1.060441137333603
0.05435243142258225,0.38763849499056413,-0.03550209426061543,-0.10607393010818204,0.1064455965376891,0.028317198915816633,0.018145273378520923,1.1264651679395057
0.06248072225391093,0.376579043586584,-0.021240109384204783,-0.08163681659588133,0.11570897598165722,0.05067098873014612,0.032334750442953863,1.02584793921921
0.06602243468631001,0.3595298200464504,-0.030752801325105803,-0.09656503678599795,0.0960625046675257,0.03620773253590665,0.010901765830573186,0.8455612287808252
0.055003335597789305,0.3155879178282094,-0.0398704942897236,-0.09688936761170835,0.0383485142334453,-0.011887012139793693,-0.020936965607902657,0.6004676419216141
0.03823779436773821,0.30826830240607095,-0.048302439687559734,-0.10962744368024048,0.019239393158591852,-0.03966766171693478,-0.06871304126132706,0.4319829441352072
0.061487906698189834,0.2984593044937709,-0.026596611367594496,-0.07933769854066143,0.058597714767708656,3.8661569725536405E-4,-0.014536739674484645,0.5341001461417229
0.055184604895971004,0.3379071740619895,-0.021930133642783508,-0.08214981217103537,0.0959844479936825,0.019424877037192055,0.02675894099138737,0.6872198362627124
0.056667412474310286,0.36390285993865445,-0.03496996392123343,-0.07661391512246875,0.10498242568384693,0.021469531662436418,0.020229729002537833,0.9691612552337953
0.0455798377947931,0.37880574499160075,-0.030595715726971163,-0.10976978808464687,0.10394792510785464,0.03731051345583818,0.028053492345886114,1.047039139754631
0.05452763886318419,0.38249153799710917,-0.03328864066449754,-0.09443791614197512,0.12828820804837907,0.03832966433827923,0.03424881251399194,1.08825928628023
0.06385365954708058,0.3871665448722147,-0.00965782575295769,-0.06857265326612418,0.12676877821704133,0.052328846887026305,0.05228875604468955,1.0020098503936918
0.06538474579226322,0.3626979444248865,-0.00821153562984741,-0.07319681339954939,0.10317563391837341,0.05440895387613266,0.03826804540559849,0.8624828589331386
0.046622359707006476,0.34253587588171786,-0.03158839840422591,-0.08725086048381173,0.07604754264072383,0.0074704901608223795,1.0482767847340214E-4,0.698426352387317
0.0320532704418709,0.29626998148667605,-0.05479867710786687,-0.1081223632493479,0.0489970422157133,-0.027604398682940307,-0.05496083781105028,0.49505136141968364
0.04780791606644742,0.28208690853031027,-0.03274463790073034,-0.10459958202777421,0.05140478509208058,-0.013926976287190954,-0.021394925966359148,0.47382659981364755
0.046969032955689355,0.32259183319665696,-0.031313260270594674,-0.0877606100149293,0.07893704155204356,0.026261349785929994,0.007641349719204597,0.5979349535700607
0.05631325678424372,0.33188691164799017,-0.03287726462285878,-0.08647872973826574,0.112073065050531,0.040582936185993915,0.010272224141959148,0.8562673029965671
0.045226896345071946,0.37652819978349794,-0.043865397478110135,-0.10239411402434087,0.09557190711863017,0.024483878637930164,0.025851902331604663,1.0470140283086204
0.034100272568297695,0.3839839346881475,-0.045155771028850794,-0.10944839651075094,0.1022610086360355,0.029080009095421102,1.7957644977195412E-5,1.094718202532056
0.05153496400195408,0.3463609843280437,-0.021028133843582333,-0.08521788384002252,0.13443532477113265,0.05257473541334242,0.057958232318366595,1.0165301932886044
0.04395341662280792,0.35666646495917603,-0.028637720230561492,-0.08771240568434777,0.12048323950025154,0.0393751980121386,0.04752212964188313,0.9457728972070945
0.024245741049042327,0.34564636707391044,-0.043887952549110536,-0.10491753235959417,0.09187735994396759,0.017120700317458812,-0.01241975258173842,0.7648062367720584
0.016511220214687657,0.3187537998015787,-0.056038091895522266,-0.11428183845410979,0.07007551876333244,5.468131354770789E-4,-0.023727067318035564,0.616885971243126
0.01736672159636392,0.3019054939876385,-0.04968974259239544,-0.11155087099879021,0.0600125754470637,-0.006761583436748438,-0.014065126818336686,0.4816262669672174
0.037641047676343506,0.29466757115515024,-0.041452722234115454,-0.09045967613944303,0.07062693520803684,0.026784320928392353,-0.010079248718652742,0.5004473001994437
0.02601360442874063,0.30932398915326265,-0.03836865801131975,-0.10844247005573218,0.09736000817071108,0.016715806965077223,0.02519251190329987,0.7704294404103758
0.03789154793789814,0.3585894367293617,-0.043648981819302136,-0.0960230578057878,0.11239150355364254,0.04209307783213761,0.01821430914088496,0.9380120975402355
0.01927361781716556,0.3955664860688939,-0.06203185398852744,-0.12150039698435852,0.10589547467331455,0.008289783441926865,-0.004691255756505518,1.0193198457496961
0.04524862844018474,0.3938015696322232,-0.040034986095390565,-0.0876945975095298,0.14596232539448772,0.06711679447706798,0.0303571420511841,1.0558185559601512
0.05437786391265829,0.4084848093985314,-0.024982329721593862,-0.09503565931332453,0.13798035301454026,0.07275156298641995,0.04112904727345731,1.128668180122632
0.0312029124255317,0.39379986349862534,-0.05157827950203569,-0.09380636441258625,0.12227134534913524,0.03985473240032482,0.05210080603882312,0.9821321082642659
0.03071840229794101,0.34875461530760515,-0.04382702905167546,-0.09990888103713698,0.08401960623136386,0.017750104719271954,-5.207730351286557E-4,0.8163345783067295
0.020282649497629132,0.3322930295982457,-0.06584606689530448,-0.1081063028371286,0.061060502953340284,-0.0012144684469431433,-0.03597615615459145,0.6114962690954369
0.036043014615334705,0.29133259925650296,-0.03360621103371399,-0.08921907076293228,0.07703600464115226,0.009738554138206986,0.016680006696261986,0.6170884236250811
0.03408112635171671,0.35402203063153803,-0.03146702262350507,-0.08693097625190284,0.10273876196506013,0.028917455265722248,0.02581244154861817,0.7531975829793992
0.03274094532604931,0.3678160724655915,-0.03727074940012602,-0.09364787384053905,0.10612327089054448,0.04092042741657501,0.01762528517372115,0.9339869900826597
0.045786627215634215,0.3751178447783303,-0.05214681049302798,-0.10237700473620527,0.10220758898484927,0.03794233157316294,0.007642678611507724,1.035233909345814
0.0483108975741155,0.35800508886502624,-0.04377650208912175,-0.09793909543284741,0.10596318886265932,0.049844026849668426,0.025656853821562648,1.081117078863754
0.05143290204526949,0.37815029289466656,-0.02555675434334891,-0.07569770383414608,0.14143931006638666,0.05724077223239051,0.06249234833408244,1.027645404968212
0.0620707076284101,0.3949118925153208,-0.04190034996258698,-0.0765879376794009,0.12525136102473697,0.0646338637317374,0.058153396990481776,0.9907207249132154
0.04991923153069907,0.3579614675196171,-0.048482100230615,-0.09073887301169883,0.09890471897426896,0.011136887654624356,0.022655428042933325,0.8208635741021723
0.0378159029856571,0.3331099086806709,-0.05006075993362339,-0.08933448090099633,0.07112753267596683,-0.005614497614082746,-0.011436386199201298,0.6596804381301699
0.06053126152863288,0.3097718640842995,-0.025854575580327603,-0.07235383953357694,0.08304158329399995,0.024155465373601057,0.030348316905519705,0.5476068386172398
0.06136301476842201,0.3220722683143511,-0.0225550490449647,-0.061809193336104136,0.09322962416610883,0.03333412258146962,0.04080474274181709,0.6225935326885247
0.058479520198212884,0.3816362031904855,-0.010510330727776481,-0.06609144658663894,0.11419118761066507,0.06408820036029497,0.01901805337315538,0.8051499110605504
0.05066603599368002,0.38862797664269993,-0.022459711426540623,-0.08145224978512741,0.09496139560814386,0.05401352577688751,0.02034634328462701,1.013828974879686
0.05815485938147367,0.4053175263411599,-0.02470178886092156,-0.0752656439660124,0.12324165586598833,0.06591008138933716,0.04062519073099269,1.0574911045114632
0.0762551256032484,0.4058385957629956,0.014498150652489338,-0.05608304686450659,0.1673241788210541,0.10376920248016316,0.10303407058786297,1.1443861656532
0.08783252292035772,0.4161374353039566,0.01610784768515088,-0.04667844175464843,0.15826906282123432,0.1039610801834874,0.10550654110130586,1.235421423846856
0.0878428781622972,0.4128745877928464,-0.0025826839820155562,-0.06454854587923683,0.14194670537227216,0.07413543397115095,0.05889217774276158,1.0427187759255652
0.04740727342680065,0.3619438268914679,-0.02019471855574822,-0.0767650080415572,0.09279389194339442,0.033561215002380934,0.028058108673947715,0.8163280733525649
0.0644688208477668,0.30990390631226983,0.004120898543594269,-0.05800837696111371,0.08537195691559427,0.04215828878172447,0.03002421233260224,0.6394004156924313
0.0725628242203845,0.3456671613664793,-4.8247697382488674E-4,-0.0402641643005025,0.08842114496377665,0.07460636913268923,0.04924517496104145,0.6040340058651822
0.07770158778987926,0.35082992113718,-4.087263632945194E-4,-0.05268177762488394,0.10264549423559576,0.061774445267368215,0.06615669624380151,0.7212787184923817
0.07361227655992562,0.35104771248969413,0.0037687907165950296,-0.06344094418331218,0.12474332517204392,0.04162007441884982,0.04239116332045469,0.8760780097150279
0.05903958722460321,0.3639672814599796,-0.02083554790915988,-0.07270549213447404,0.10243858139746247,0.04782089412642331,0.03241544979455427,1.055578130112161
0.08470853052425606,0.39487472858468625,0.007996667432687702,-0.045091504157570815,0.15099292258635835,0.09942795979046753,0.07938217089423184,1.1865443851381623
0.10159071492988767,0.4290045876213639,0.020732376314503143,-0.02919323936302288,0.17151543522792445,0.12921836176600582,0.08913250484934691,1.2681461436319754
0.07926899765764915,0.3978483621340039,0.007542133231860465,-0.031064847501915002,0.1679342500268002,0.08757578513209174,0.08800726629628995,1.1153496082887158
0.0618061193935679,0.3689368204197265,-0.00945154520190256,-0.05867320156502515,0.12360232679370076,0.060819810513218,0.037487400947425406,0.9065974264022602
0.0710555285780599,0.32662437192982724,-0.010789152288203294,-0.0729900549499198,0.08451027235209277,0.03732442640327364,0.0165739323060178,0.6606710399163939
0.08902222966779262,0.33447270830748776,0.006103097166093521,-0.043418372306613676,0.09438347688207285,0.059169130473794955,0.06450319658203774,0.5600295019099528
0.0823899134527055,0.3111593722500319,-0.0020283853593036152,-0.04584416579276677,0.08037722331276913,0.050156752359387546,0.05327989456978989,0.5154980683204156
0.07851192148144598,0.3154311554712834,-0.005531438535910577,-0.04301837463964435,0.0855703672909962,0.05880561934007258,0.016608786381869176,0.6480579416561967
0.07415121415568349,0.3671545560434412,-0.02021263004908604,-0.059176550064397634,0.11756790422493042,0.05743702075588666,0.034706680592160394,0.8529939736517205
0.08595621018032089,0.3927830231604936,0.008837517798092632,-0.03997052714230426,0.16652437924630445,0.10012480607351072,0.09167340160650472,1.0996540458315085
0.09038086406466005,0.4089597478426489,0.028420546348048057,-0.021192859700146206,0.17254335494749248,0.10689190990017754,0.1300866239181485,1.150921040703725
0.0753786853123466,0.3973691302880845,0.015152614686257598,-0.022176009762815044,0.1537842212532957,0.10322928473274443,0.09827947700561862,1.0984928506652374
0.06835414066876348,0.3922124366479549,2.9818523346493266E-5,-0.04141597713427084,0.14289273684386042,0.08195840296040438,0.05931117088141671,1.010624037567414
0.05887007131880653,0.3857344158430728,-0.005714200907219765,-0.04063730356782769,0.12708465833799262,0.08588098036566509,0.06949013430494182,0.883617869821672
0.08430254831915426,0.3474585933658071,0.02617255318154029,-0.028665406779994962,0.13494704902796142,0.08144248585964806,0.10159118837817077,0.6995219443099288
0.08427140561350119,0.3199236681094531,0.01495992202715757,-0.010990851383046707,0.11378979555223985,0.08433565346362455,0.061858480476024824,0.5552916890011539
0.0739586389573743,0.31443303580781623,-0.0038218826727894305,-0.04272829829152316,0.09658993600072788,0.07148315495267034,0.04739493921807334,0.5596605304078974
0.06538006258448488,0.3796967181677631,0.004750190428040348,-0.05398423408240642,0.10809946971234598,0.04932650246173638,0.05040645690841932,0.7965299874873036
0.07967355673923952,0.39357514340904254,0.021580481551539837,-0.0247289946774105,0.17068695182845217,0.11523722190664822,0.11857088401231153,1.1055940957648593
0.07504360693561729,0.3953032693380049,0.027203220651556094,-0.004849754301464337,0.18811644447514023,0.13528690290617942,0.13601974058733998,1.2047877241261367
0.07783793380609777,0.38276431899042446,0.006084366466225308,-0.015474961526346268,0.16422430613373085,0.11250637839216107,0.10853495146526276,1.1627628974700706
0.062492931621258095,0.4137099349193512,-0.0016487100598971142,-0.04144060347865936,0.1380582747385009,0.09295649073394222,0.07429470327574161,1.0542407809339194
0.06519447732227127,0.3765687458010756,0.0067494104972648395,-0.031835524268328357,0.1396605402996167,0.10393066868567243,0.07737351020055175,0.8700731464672848
0.07758959944610995,0.37153822982754947,0.016642620852582758,-0.032331868363764046,0.11920251966500556,0.10418174576870644,0.09875611472491368,0.7122566894630347
0.0746923965760057,0.33522695626186216,0.00788355526727414,-0.028972121460953872,0.07813331201539146,0.0747299184226331,0.06832360134569003,0.5542692476748327
0.04456377047013431,0.3090720005268916,-0.004390173051226356,-0.0445041865197877,0.09598829970797297,0.04787873654315829,0.03853674010823688,0.48911695827318974
0.055609063588440304,0.3533124502042676,0.008613150227467267,-0.03849816792125592,0.12154731535916945,0.05981443988004731,0.07069303786449226,0.7260588643023724
0.0845965347963772,0.36158487049519095,0.02338275616964724,-0.0013136046216045349,0.17632879071355395,0.11934610635048283,0.13105636773830895,0.975097761368637
0.07120129048241733,0.39737446687163225,0.03020025713422646,-0.026029761353629628,0.18065598670901084,0.1284864919693416,0.15329428285241475,1.1219900996398011
0.07396982195673636,0.3945865687625187,0.02797377823289676,-0.02657554791179834,0.17391079219904737,0.13000513937464755,0.12725517535849007,1.2007449774208618
0.06198347472504704,0.4267084853056083,0.009082606232530429,-0.048845102154923874,0.14995821086972166,0.10960853621116494,0.10358463817641982,1.1762709775413678
0.08211488956301999,0.4043573291465328,0.0306407811370515,-0.025203304862036008,0.16206273568752602,0.127894028319065,0.14325888345646604,1.137979318637944
0.07600183432359774,0.4023222762913162,0.035860887690783695,-0.007249421823300412,0.16399196843923625,0.1304056949773077,0.14164716860886706,0.9472720591086827
0.060718278004157286,0.3479757103620642,0.03359702882884573,-0.006539226354820873,0.16084380138503138,0.10032269203550313,0.11014856753679099,0.7540808783673847
0.06283325844703992,0.32124658213345186,0.008961949919583987,-0.02881392589938233,0.09334916005592687,0.061592303496138895,0.06509902289400403,0.6240835770306281
0.05097916234385736,0.33881781738857353,0.009185473879430682,-0.039469534520781654,0.09676995359506835,0.056549396730698746,0.06585211851205519,0.6775004124195696
0.08408949158864533,0.40051319384996775,0.037084648890628465,-0.005413494010458702,0.1460328524012209,0.12419241380858047,0.11776664680312708,0.9006083981462335
0.07808631136942353,0.42467287292677397,0.04723401570622089,0.00485138298589943,0.17452942931799528,0.12270510770972332,0.13959641857810187,1.0342600521578975
0.08310959573908482,0.42575639080647093,0.036110601389406805,0.004712130120577303,0.17421270364749666,0.10908444358635921,0.12549047362681623,1.2330097354839447
0.06982415554891563,0.46110110795710096,0.024101287866483155,-0.011413906223352562,0.16912288059558855,0.1127869329633122,0.1190898299485946,1.2155326553932535
0.06696879119919562,0.43046324423890325,0.03806718512532668,-0.006705627237504335,0.1793669497529431,0.11714013839077639,0.11091005664149348,1.1702442370573005
0.07353950113284921,0.4098151596047618,0.0422173236200361,6.671931960819942E-4,0.16674420082304897,0.12378752168332001,0.1454668361378716,0.9972256478657752
0.0870378401692977,0.43502999540875825,0.04620078290507838,-8.880138309912592E-4,0.13840922493647068,0.09739661541115943,0.10171285967467417,0.7991696945424497
0.07923380946584815,0.4118482628491742,0.027652032801212173,-0.010248081984283754,0.1043868449010152,0.07046035617018968,0.06771357668365993,0.6152357118032915
0.07051167048283247,0.3611316813780906,0.027417484100237675,-0.01876211879283528,0.07054891367439056,0.05660767109296851,0.03998440646706893,0.5246393403702407
0.09616355700413315,0.36792642715027907,0.036435278414851065,0.01110846999250705,0.09553732642080004,0.08101614017754467,0.09812758029963937,0.6251638940622389
0.09264562480681976,0.38511650260250696,0.052829944438592284,0.003321973314550862,0.14203117596961065,0.109815978043058,0.1267706922608964,0.8868422214101456
0.08906420147098992,0.43316248233431637,0.052819118389052525,-0.00541689955946435,0.16710212144620742,0.0989783409444308,0.12486530831267995,1.10734500560575
0.09232843835867433,0.4590641088106342,0.05182505992091465,0.001467140485003955,0.16114070812409143,0.1176039426130781,0.12763726344485346,1.1863606528648802
0.1089861096368549,0.4299131231696405,0.06778137683415891,0.01614431983036039,0.18371342392817228,0.14774010566219412,0.1480515942712346,1.189383149112806
0.10242940807497394,0.4528697082195552,0.05606077223193907,0.020943066881733023,0.18369552637185452,0.13407667396896863,0.17205104081463438,1.103790795932
0.10323974172983597,0.43941922112391846,0.06320361950063633,0.0019157740464286464,0.1741379390438123,0.1317787211829916,0.1426704500426279,0.9154330751036712
0.09598024900375811,0.4155478144927111,0.05147450564185742,0.007606329411828257,0.13623217836094706,0.10606807427706538,0.11140798748206367,0.6754591283744221
0.0999233891351465,0.4084089132855756,0.06018791161837439,0.027892634688095705,0.12909108694760743,0.10555720841037032,0.10511603782492093,0.5523061566090111
0.11002931100368227,0.41350092069417566,0.06510092361568615,0.03303354532321685,0.1096742617556034,0.11173897029799787,0.11664282872920018,0.4697348947664054
0.12052597588540266,0.43077104413486744,0.06531586515473255,0.03613451831493496,0.12464867876695798,0.100981962043824,0.11447507419745273,0.5808637598349595
0.10207259540289067,0.4926204454862457,0.062203773147768864,0.007079873399167461,0.1517360104643666,0.11532718622402102,0.11136515977715307,0.8497556331018259
0.10505576904439697,0.48685272545482816,0.0794953328224959,0.027728398010570435,0.17863286973488057,0.1196431368828878,0.14415586019509302,0.9825168084489906
0.12705486551751383,0.4916261850538848,0.08702198323018843,0.049312476168606,0.1926562884992,0.14587571418796239,0.171581004699451,1.0281447855226449
0.10879017695948531,0.5224216164302887,0.09892008257006678,0.05328540210999431,0.20029015321956958,0.1572689957612872,0.15704158205232494,1.0535628277937112
0.10468614784590395,0.4942900472808065,0.08119044623928358,0.031945415376833694,0.1660641680015469,0.14352221650333963,0.13068557543329964,1.0418427938676116
0.1265011035389731,0.49997304764731104,0.09501558888215038,0.06107112554000801,0.18521097174335485,0.1384203618567879,0.1575719440978658,0.8161535043262014
0.1373350708257951,0.47617095442886614,0.11173043918504634,0.0677273453303408,0.1505056637347719,0.12939647501637697,0.12632714242321463,0.6240471636131333
0.11991184416891021,0.4396763273264714,0.08017235550421502,0.050426843049979075,0.12935110972416403,0.1253891187406462,0.11413005405230417,0.6018000457503424
0.11180105403687561,0.4461730065780623,0.07700655260756209,0.034344461707154106,0.12427676000112405,0.11801680881667846,0.14078760587863862,0.6300748158368731
0.11581955105391378,0.4670168034083403,0.10733933061780195,0.06683395507759506,0.17901949269183837,0.17167900386722215,0.14931448934195665,0.8294990191115542
0.1319779644254137,0.4783503002916826,0.10695277123410861,0.0691371096164747,0.19505469963257674,0.1814351558194808,0.20605021392161504,1.0359298378203166
0.11503350456692593,0.48120216987934483,0.09363690240823322,0.06888742371501085,0.21847602611612627,0.1717469764707996,0.17202243825027339,1.0803752012721834
0.11623398056197631,0.49281771368547017,0.08124204795521658,0.04372777005572902,0.19343748267480956,0.1581674099019038,0.1739890844836677,1.141847092463387
0.10302521891135534,0.488033451921031,0.06373748044462386,0.054725066719910995,0.18614675929507196,0.1475648062835612,0.17095758540152695,1.029862813733639
0.130363774403578,0.4812319360050289,0.0887988527011131,0.06597244740809188,0.19475226823035605,0.1794848078610459,0.17956587832699147,0.8945349140935919
0.11624676613099541,0.45510088021806644,0.08688197641384049,0.05999580274708653,0.1762818158797181,0.16454326949147155,0.15096989047180104,0.6764378961444607
0.09594284731231528,0.45646442078341437,0.0632199199296226,0.03157866147074922,0.15290412613311066,0.1219271706410758,0.12617369730564906,0.5731800589760436
0.08265836293436442,0.42224518652502446,0.039042294747165404,0.0140693745596629,0.13058438048004753,0.11438567508707966,0.0976122720750683,0.4940222507522554
0.07286834714939149,0.4242560346313597,0.0390073998809794,0.005534363386339358,0.13563770797182825,0.1019609424091211,0.1098267308926271,0.5781531724669238
0.09558929562878295,0.4174176427194468,0.06769872611514902,0.016682892568604064,0.18421600740220007,0.14476955243783923,0.1485326209179308,0.8613183427479445
0.0963037514854214,0.47784380991446024,0.0473805214361549,0.022024882934711942,0.20256883370777276,0.1499416059427397,0.1538113792737581,1.0257174740653026
0.08229756668947799,0.493446815725831,0.050304267030790044,0.0023588873198686806,0.20038387231457877,0.14811546942494816,0.1444602838268025,1.08741520128048
0.06314673730927685,0.49810836095710903,0.033904153123505414,-0.01823149520040478,0.16725397653593613,0.12479219472644779,0.11908753754866716,1.0554483151536092
0.08617762383233496,0.5087009275599376,0.05141221298678258,-0.008273579879003363,0.19096670184921735,0.147614771910709,0.14033116016234012,0.9917178388668373
0.08902137805751796,0.4760244903675443,0.04592681021019215,0.005897864329540271,0.19600370365684885,0.14947444844696275,0.15012393526497056,0.9141895961531886
0.07671695333899879,0.4633528103944216,0.042053919813407815,-0.002254619588937843,0.18462301059927996,0.13207122026826218,0.12208102354069698,0.780082285769529
0.059374920728391,0.43756473360577464,0.02729327078573569,-0.02909983643196245,0.132657479359387,0.11121694466057126,0.08539436791725898,0.6636305613592888
0.06491442843204298,0.38133311260512615,0.02335703538376074,-0.03300220379156509,0.13736089523513212,0.1115358525226985,0.09285203071176047,0.6899270940461262
0.09452307021844909,0.4044743678963506,0.04023161419961734,-8.94559947255091E-4,0.19520448570842075,0.1440549398691782,0.1428615005558604,0.7610397880527581
0.09382089024646979,0.4646058171024537,0.04244881150313647,0.00152864286018881,0.20152918713979648,0.14973889976174934,0.14310477937995014,0.9360976909127833
0.08875727995010448,0.4618113034780602,0.04900184560363321,-0.008371139119780937,0.1801084612238411,0.15203210015317697,0.16136250960901358,1.0348961762936053
0.08142024571543416,0.4747576650288488,0.043704030363783,-0.013852864104133826,0.20206171842745158,0.13529592661972145,0.12235155101047676,1.092492830636532
0.10144952784351254,0.5013967781608546,0.06544104556702114,-0.0058962415749165735,0.2075547806357727,0.15951246506232378,0.15174403728854952,1.0724779644210567
0.11743165063416056,0.4732171984510904,0.06946651612840908,0.020719526986032265,0.21204251078261258,0.1878891624048313,0.1569623684206171,1.0057560597949726
0.11361483857840783,0.4579076504334298,0.06789444784629922,0.013810481648202613,0.1727862497034539,0.1357804879072776,0.12789305922627917,0.8711260410914007
0.10300151938159266,0.4252705060850677,0.06348085514747621,-0.008308459457372856,0.14794764558483878,0.10616248737255447,0.10373990216466987,0.7249001745412101
0.09994084632895159,0.3997202070021164,0.04130382587128305,3.620678113715004E-4,0.12071106276914856,0.10852385325079171,0.07121997396490619,0.5984186618495643
0.14105460087114802,0.40221260559249516,0.07246180891991078,0.024033456253117355,0.15543441012897966,0.11838972002142682,0.11934289193753717,0.6263377489107947
0.12870860351253244,0.44669734881502876,0.08825704972982451,0.03730111964793409,0.15731363662678924,0.14512209520623373,0.1312216926953047,0.7776272968684506
0.14578121565924856,0.4874252751900803,0.07553474840910723,0.0361648313750739,0.17250070091273892,0.1438832980712908,0.15039207513464506,0.9330073827092094
0.13739658821914022,0.478767385852387,0.10109044244713368,0.03089788306872889,0.1824279573769447,0.14095135414493926,0.12801167746586153,1.0121662599780452
0.16565602492988502,0.52484206444871,0.11731395748228127,0.06284485789168688,0.21500113672423757,0.18723634846629558,0.1687640469302091,1.120098062082183
0.17708317852138444,0.5104840476934174,0.13456974548690884,0.07142780118852117,0.23072353570626727,0.1919196196872453,0.1925951248938203,1.1595133303116425
0.17084444095652992,0.5078581012140299,0.12544578018935054,0.07832500327007037,0.2276928320157098,0.19238928895132804,0.17094216330515133,1.1124546049358426
0.1624448039544402,0.4807394014089112,0.11988046731642293,0.05822428088328191,0.2028565196628455,0.15560052166059457,0.13234622038772131,0.9928532789284734
0.17235379859091923,0.44687012875963805,0.12766110498146574,0.07947923620637576,0.1864668450223364,0.15871052872132915,0.1446953840916006,0.8375251117536548
0.180155177718944,0.431870011358713,0.14175420853619658,0.09964893470523081,0.1942295141556908,0.17166712347143415,0.16200481657525445,0.6858279421672098
0.18426436883213915,0.4649533324615156,0.13555989947751937,0.0981436387167414,0.1953375607451276,0.17777071724140037,0.1497019443542282,0.7116460750884652
0.182164539077015,0.47396866841049134,0.13165248283324102,0.09371075583544698,0.19621519891961073,0.16027816525723163,0.15227162570915032,0.8294240994652687
0.17646021655626237,0.474078059283492,0.14129725068556892,0.08653257207447103,0.22701619394565017,0.17158337523069264,0.17211130526659896,1.0216088370655474
0.20127532661932634,0.5088931070430103,0.17051574756742283,0.11593152834667733,0.26670433040032776,0.20532295278068666,0.20300746332317235,1.0791438246244394
0.2046164506955408,0.4999966688172618,0.16934730471048678,0.11212867219090174,0.28185632018414575,0.22838540239614014,0.22645408132948114,1.1955247501209432
0.19614833138049062,0.5061799649871582,0.16630296979968537,0.10514149458975743,0.24613332312115058,0.20924605906122717,0.20291386815316484,1.2071821743299829
0.17774984171885358,0.4964104707988097,0.14968618468255146,0.09418800996864421,0.22898357720839504,0.18331857068765314,0.16078360761184973,1.0430051591011031
0.1879713286064501,0.44837456679925863,0.1628614344068084,0.1027564519008682,0.2191171262767852,0.1964170906886778,0.17208515576383276,0.7680063166295884
0.17897029387499488,0.43122464285367756,0.1585870907261772,0.10943184015078163,0.18893979326942917,0.15998236873938498,0.1359747851704102,0.5489953318799926
0.18956699591767712,0.4091779476125012,0.1487823296833632,0.09715051778225606,0.18461246018982824,0.13664572231010297,0.1373162393112364,0.5077860414374821
0.17364319137705972,0.41615256215047197,0.1439907908705456,0.08318338569604729,0.17307606013241233,0.15715165771041983,0.13241511488780064,0.5478221656161758
0.18949827647977954,0.43485864459641854,0.16016776835507754,0.10252492703879686,0.23879971869724698,0.19089608378589812,0.17440988133399726,0.7677365444124996
0.19748688987167357,0.4566186266385977,0.16123438256577474,0.12755454855495715,0.2627383851350126,0.2244619179964198,0.20854860128013902,1.0257748152590656
0.1864605651140814,0.46220421635055525,0.150230548022172,0.11979849117051242,0.2726869120803782,0.21517276054366008,0.21848899765423824,1.1788708792562004
0.17281748922834989,0.47728423685993493,0.14575996755736828,0.10113854106818233,0.2636799884493068,0.2019636093149392,0.1978915973440711,1.2227475955697211
0.17525355914167884,0.4615623388045442,0.13430642448079502,0.11737195936613441,0.27664604740907867,0.22874611579969395,0.22908878233474522,1.1338556823942383
0.18551302098305625,0.46105620541089426,0.16154022363441692,0.11784910523558065,0.2747075834576665,0.21314524163321724,0.21019373909025138,0.9940419209191633
0.1743190325210476,0.4440564391697724,0.14337178503448844,0.10013900180479834,0.2558858736776885,0.1913559018713499,0.18798383709011326,0.8157312621141115
0.14848798819326267,0.3876925104742802,0.12657319110680174,0.09683521153599793,0.2056450636735417,0.1720780212807704,0.15300724881986463,0.7143886053883624
0.15020055049724168,0.40831288877172806,0.12997805400584733,0.10915106499015015,0.21855903905586832,0.18332034725932236,0.16188911159095037,0.6798530914951557
0.15482643763279066,0.4382488941645168,0.13691971861477453,0.11223069320768188,0.27001946646765457,0.20840754171709228,0.18957929399149903,0.8697265075543069
0.16525130650742528,0.44751353808788946,0.14127414418690676,0.0878743010569638,0.26533325708398703,0.21008606953537204,0.20320413450808358,1.04093060782863
0.14376960499230182,0.463767640435616,0.12389682934652022,0.0813525258922229,0.25808154540225686,0.21001527304976844,0.1919482945030471,1.2057696786931442
0.13992209267498254,0.51708807561427,0.11040557867413635,0.05943487410870188,0.2682867512560358,0.20222564322563297,0.18522177368262566,1.2247933743850212
0.15941833160829302,0.48278071912953235,0.13628278800432905,0.08550525559358292,0.2836890812786588,0.23436892296159922,0.20721034632701843,1.1935723890138548
0.14688352967938756,0.47900284729139375,0.11135224174817715,0.060483811235921975,0.26189799554672444,0.21738838106126407,0.18022769989570073,1.072339363707357
0.13101845695100797,0.4539779109638419,0.09648831691216897,0.06237968843522463,0.2404190475844265,0.1701488607053335,0.15436930698816,0.9087117930908615
0.12792358115057745,0.433104953064355,0.09843757564480575,0.0680670338158635,0.21486740992700598,0.1477135653262698,0.11968077542142358,0.7261348685560981
0.13968598859635653,0.41039310317775574,0.10628299002583416,0.059115314407964845,0.20826268169950202,0.1721545469698483,0.15535949434027901,0.5953554811842748
0.13331038175111626,0.39055163287475064,0.09000982014745636,0.05356716442912939,0.2190960547303458,0.15384197638320712,0.16119095225656258,0.6918861451145756
0.11888960730437581,0.4279523632283553,0.07492856657083179,0.035529860111160716,0.23596733506939913,0.17858675413147454,0.1336947491241912,0.9195030446542636
0.13296636582071478,0.45109695768424934,0.09729992804182351,0.045284671873059186,0.2520645187146369,0.17033555299243078,0.17886314688786542,1.058370556102005
0.13895586151021694,0.46613445581393625,0.10345656584740609,0.07485460181975942,0.2655604752443411,0.22417230400474566,0.2061596859147601,1.1242818755876627
0.1335493429756234,0.47271909403123874,0.09571804403927159,0.05903955049417628,0.25371974177674295,0.20228842712675552,0.202182394333621,1.1493067196464795
0.1181275447389695,0.4681674969348691,0.07568400226615841,0.04378586407660291,0.24394630267552925,0.18734426336561347,0.1812167004908546,1.1156792835788223
0.1258282263820246,0.4503295272459591,0.09142374824589383,0.05692699148686093,0.25296605714578607,0.1912882204619573,0.18110634382256777,1.0478287686880656
0.13838243283159016,0.4363489540464747,0.10245957773407306,0.068515789284533,0.24353785531456817,0.1832049456726653,0.17112161357195413,0.9640930755911212
0.13880231436290036,0.44272740988538856,0.09398220559233482,0.05678877208384737,0.21159438488813737,0.16796006068641112,0.1524166549990574,0.7864349549017383
0.11621264581832501,0.39213629586600934,0.08246524524641594,0.038161668947176285,0.2008180181463496,0.14769958663655594,0.09947273800082672,0.6457572951119409
0.12165809772047542,0.3999307078219735,0.07977834708922259,0.043012620013751106,0.20531214941123818,0.16264546052045462,0.1433052940299302,0.7116001766237581
0.13384541818591802,0.4445639614119061,0.09777237261153174,0.04912712642234977,0.23664127439286717,0.18735902695178336,0.16525345061513516,0.8998362269716632
0.13784580977746153,0.46321179136622637,0.09795686642776268,0.04267251137750323,0.24090798900266067,0.1890621784434779,0.1736958370920401,1.0835469558318227
0.13214635678856998,0.4620862424018149,0.09392954902864337,0.029197661594605913,0.26191738817225907,0.19948423645200264,0.16076230198847358,1.1779735872304322
0.14163368887778188,0.5003105325572502,0.08750077091387279,0.03929952170525084,0.2620289287609169,0.19230002796904117,0.19861628713662374,1.2499264056527748
0.15727987435047597,0.48252814712315856,0.10398166729725668,0.05546419296197752,0.27661250986454433,0.21588770741364202,0.19066505457000404,1.239387124856114
0.14748628880316306,0.47532081163870166,0.10013736755842256,0.05990338884650105,0.24644287802897535,0.19772800829490314,0.1952243151818797,1.127237508077659
0.13813145959735743,0.45780964252647705,0.07851804514250758,0.037588182200011755,0.22820917668773041,0.16784812566562513,0.13819691015805863,0.9158902813765568
0.13135922701937985,0.4016214066765565,0.08330725130053081,0.05332308320803607,0.19122450839341007,0.1528099905409987,0.1395408657362222,0.643979437662554
0.14147282959394564,0.3925329035268549,0.086605889389,0.05400040036416052,0.18062606101258152,0.15917864828022685,0.14718808764552826,0.5506602276033215
0.13883913317743948,0.4020539059506856,0.09783811577441054,0.05035696817102922,0.18602247383512913,0.14624443662694295,0.14261921413825956,0.6244905784037195
0.14529310061382683,0.43836300816643925,0.08156815071130728,0.04109080449990662,0.2088508879179729,0.15210760855072705,0.14975225414191934,0.8624141328821613
0.16239077962660114,0.469215802081782,0.11447145027656658,0.043761440427165954,0.2381239567054055,0.2065380971207493,0.17442308177734508,1.0610487804733946
0.1620180368404061,0.5050688224588151,0.10981038374210439,0.06099489336978863,0.28776013962650987,0.21567177786035682,0.21052185630400283,1.1710376809778043
0.16567158590156053,0.4870667691508964,0.10563702045387811,0.06001753925527784,0.2593060261866042,0.20837568188204997,0.20048695829006502,1.2053842026476218
0.13940822246132387,0.46696376211127333,0.08728816401869997,0.03015469557246716,0.2640525029503752,0.19050083113248908,0.17705196287799388,1.1809226521041738
0.15394406797206858,0.4818457280601518,0.10717805260584409,0.04097172188546827,0.25105437333656255,0.2010319385969989,0.1775893427004329,0.9792267159657239
0.1508091020101546,0.43971168698820684,0.11282793849741835,0.05325708764386474,0.20714391825362685,0.18065618098120018,0.16167782206566733,0.6917083284884278
0.1455818838424432,0.3964039249527861,0.09885762282457543,0.03928443548045148,0.1914880954257263,0.1518749869452857,0.12701158975780863,0.475537069854118
0.13939749322212894,0.3901384897696988,0.0804989142276212,0.03692729589195735,0.16110169611370867,0.12002379662628242,0.09254422944016735,0.43294784344470383
0.15361502080110848,0.44485554242345265,0.09566408371728027,0.04012295830999636,0.1717242172578856,0.17343162083864394,0.14831183544772442,0.6608351383968935
0.1649807180089997,0.5007194135693809,0.11886528469266171,0.05959528356773872,0.2436392489983372,0.1963631963726324,0.17307006517667112,0.8750819320403807
0.1602100550246161,0.486062336177425,0.10536803386629923,0.046278039007275215,0.24543908186002505,0.20413485224934638,0.17538770632870818,1.1321631153496334
0.1526143583615232,0.4892869519645574,0.0888265533881345,0.03770323225563889,0.25831263465200055,0.1948439944808173,0.17076807515292397,1.202268905784564
0.15368942788803575,0.4902780298528735,0.12287311946398652,0.06052223252207214,0.27903406568521955,0.21912289179638078,0.20251393547657565,1.182209011958537
0.1570727594490665,0.48941388672853386,0.12047684014334728,0.05738726684796851,0.2629931955311007,0.19834730510119283,0.19981028822876432,1.0831349352759825
0.16103387596851673,0.4615060035528989,0.10088839590431087,0.04294588858182421,0.25192441088651574,0.18318036407163218,0.19145175062151193,0.9111889627423818
0.13468558703194405,0.41324187165580323,0.0894107275882439,0.030352014185900375,0.19715501917877637,0.14529604926363543,0.12141160186775889,0.6824964943579729
0.15395500385154753,0.404020034921581,0.11110523380831408,0.05926898807633766,0.20915883815820896,0.15379156807903974,0.14966929103933588,0.555410267412345
0.1520951480275539,0.4057033562924097,0.10862551115868942,0.04994712061054023,0.21428861957126963,0.1819518986483973,0.15625068481558357,0.6787674892225752
0.13835857980689892,0.4529998319926811,0.09194683582087773,0.04131067727329246,0.23205038415237486,0.16895003673875816,0.1656459079288089,0.9081122674836996
0.1388433030963856,0.4641700806819378,0.08274524130278268,0.03745601529354654,0.2342641122308546,0.19900591742211682,0.16371266282523989,1.045041872411665
0.1488238500917352,0.47178615532851104,0.10142970014993405,0.04770711509204306,0.28640066961132815,0.21595858892615552,0.21644616180107676,1.105066441017915
0.1429362322453593,0.458354570394787,0.10519679099734193,0.03700695330712268,0.2642751731088574,0.2003913539712965,0.16903924390423833,1.0985602732254567
0.12759163792999256,0.4794321096476843,0.10629779667495445,0.025663218028386222,0.25773826735808436,0.17620235387236274,0.17781856271807342,1.1512910092086044
0.13263346108631208,0.488853553616054,0.09345198008562516,0.028638420841370273,0.25489163250973174,0.20525230312225448,0.16334468014610834,1.0345913984967352
0.13293305155612858,0.46385631577267084,0.10186690670725981,0.04569595995739428,0.23011215935610643,0.18774416361027102,0.16699095728170196,0.8067880835454169
0.13745877395486078,0.41349284734107605,0.0854115675391057,0.02278421440880273,0.21010728102329018,0.16017032538064757,0.14811000866662474,0.6112202197752039
0.1100717890968158,0.4283323193008068,0.07360311286838751,0.018076870447296577,0.1846637758904339,0.14556465537083982,0.12442379645055855,0.6282719142650123
0.12860028031046472,0.4384560471858719,0.08512555068936081,0.03890879998500313,0.21707002906888628,0.1879947230011219,0.16905481026517646,0.770067515454348
0.14112225355771552,0.4400693209347567,0.0989717026851553,0.04602774512962571,0.24528509947784619,0.19591920202777513,0.17179575783973738,0.9611247209751153
0.11875830178821059,0.46610505656029483,0.07732372658305832,0.02111399608538038,0.2577605354842068,0.1822200341575378,0.17469795214385503,1.0369085540040437
0.1235458385208219,0.4782504609541506,0.07329962489990494,0.024843769438983008,0.25290483622005416,0.1863123793978657,0.1732264089888635,1.1624433812844985
0.1370091736837813,0.5182402922534384,0.09167149314017724,0.04500794390798104,0.2816471980112382,0.22430535222678666,0.21707757734537586,1.2463105358532953
0.1296183640329174,0.5129962919965467,0.09416649431345711,0.03862140818073935,0.2751018280760151,0.22252656337280582,0.19778419963507085,1.1624968331302032
0.12460122601194756,0.4610414722096208,0.0755469404317992,0.016851360146826776,0.24320269881935927,0.19301097032311,0.18289883088821574,1.0299049983977124
0.10377881908968908,0.42540485070119965,0.06432863949905405,0.010880357778773248,0.223940394689347,0.15322479024402713,0.14413550869070788,0.8099584423339594
0.11270758322270176,0.4454250664619012,0.0836850275424125,0.02423817123318468,0.2233149329144819,0.17800862208826568,0.1513485994178961,0.7000578539988628
0.12422406035213561,0.39344075743322315,0.05839735804231785,0.0034194721364054085,0.206689758850731,0.15867937851664202,0.14084656381557042,0.6709390953704956
0.08825946782609473,0.41003536286515807,0.05958534814528663,-0.01119840575183103,0.20014692627173786,0.15406698817345185,0.11965542766406774,0.7129195345275477
0.10992275017975615,0.4307908319129681,0.05095452859420714,-0.011841410110753734,0.2295893626660173,0.1606108179684318,0.127248678133253,0.8462732237213699
0.11686232041220128,0.4842759411257136,0.05655893091697187,0.00684820854123968,0.26114340814528153,0.20244622489908348,0.17770144479193847,1.0414873482506788
0.12334224879860106,0.5106924396026654,0.07234352603473033,9.388822718428848E-4,0.2717906597680211,0.19630688175072886,0.20103208059068733,1.1865617015849448
0.10091580458885865,0.5017584322067029,0.04960023983184486,0.0030989260550906205,0.24422436497953035,0.16952711116697192,0.16860582926239456,1.2268101990846867
0.10796922351380767,0.5009147226448145,0.0686349595493595,0.0013298458977136472,0.26374164425468444,0.20426444886900466,0.16050436229649684,1.1390830190848436
0.11317824968810705,0.5159606587382184,0.06603305585938533,0.004258972626181081,0.22756011313886926,0.19301328195130768,0.16295603568468567,0.9427112780652437
0.1112049713673223,0.5147645566773458,0.058911548393173835,-0.005373863789039851,0.21315977829520552,0.1557928679864444,0.15097990844476483,0.7301350227673704
0.10142797148616235,0.5189611774698216,0.05502303162838231,-0.018313755103750683,0.15744929378736483,0.11405077151681418,0.09834579436315445,0.5013338658401051
0.12434354928119068,0.5380385424146993,0.0647174706106953,0.014143028014795552,0.15258648734427038,0.13097980370874662,0.10316125943737667,0.334620744316506
0.13226678392052335,0.5740193163156881,0.0646404476820295,0.01321036880015412,0.15156664919034568,0.12891443043428824,0.10566963656213377,0.4503018679675656
0.12057461578364476,0.5964047837249759,0.07080958640913168,-0.008615310608381013,0.17630061904048694,0.136970250656193,0.10371815426134243,0.6904705203734453
0.11832005734467828,0.5874041729860614,0.06658318245033232,-0.0044512275621327,0.20430833891263445,0.14519920937795,0.1156745625092243,0.8813977322565136
0.14489400825251378,0.5740544880721838,0.0719799411709877,-8.663284686528009E-4,0.24246180171830536,0.1824426235584273,0.16632780109624382,1.0356833692044625
0.13120632938246077,0.5545719188646485,0.06676758104967695,-0.0012403079066450771,0.25004971109551194,0.18480701906483699,0.15964104810525395,1.0426279351364813
0.10813163850150213,0.5458030366543566,0.06031514124515357,-0.03721878645139306,0.20708515736130012,0.14867327604664637,0.11096098744385319,0.9586415926404215
0.1283820753108691,0.5165234516218141,0.07230701565131166,0.004178100101910377,0.22430880714429446,0.16495172939479347,0.14266989265458976,0.8515651850521773
0.13850188725611873,0.46983035158456515,0.0586464589816791,4.4755110164434016E-4,0.19976459851836315,0.1450363985886922,0.12368909214577418,0.5992605993716374
0.12439339437809203,0.4388831001634476,0.059572705153026276,-0.0015090107275897748,0.15619538346364817,0.12496353050156747,0.08974738557847071,0.4134583592820932
0.12074453711109481,0.4470758224324754,0.043169608177216566,-0.02772043538076906,0.15450349084813073,0.11112130450928613,0.08099687689188716,0.4440250539163608
0.1444566579276416,0.4616205778591843,0.07666775309179395,-0.0058851424756508584,0.21972362959207897,0.16170875710092233,0.15173552858679457,0.6902432590811112
0.1561226449736212,0.4980674617790609,0.062071230671128914,-0.006509866612016645,0.2294633217745509,0.18392488368549512,0.1704267691648407,0.915265986595504
0.14180846059588775,0.5127965219369084,0.060567118334883374,-0.009154619841228997,0.2508505193906717,0.1859361531337646,0.15868894479543016,1.0901598217461062
0.1464674480708261,0.5106998479348601,0.07826236163886081,5.632872149385678E-4,0.2737863688271158,0.20755538322004455,0.1829782001364451,1.107244296111408
0.16902114182697012,0.5446214017581934,0.09691325374444375,0.007773855594669626,0.2880859861312944,0.21172979729034522,0.19039420122243397,1.1020667451505082
0.14252172429024196,0.5263573591534109,0.07544670931060968,0.00140369517388693,0.25955377690465536,0.20033507619299418,0.17975154691991527,0.9943361639691011
0.13746859435986816,0.5110702298680039,0.062110170515757686,-0.01383904151368289,0.21918508003629922,0.1629041800625693,0.11409330395304107,0.7710413893813407
0.15672769547170304,0.46930877200882826,0.0766888690649866,-7.250861630705521E-4,0.2266413146382707,0.16588030285574834,0.14078291123294748,0.599834460024023
0.1483766243030443,0.43929204623774226,0.0743402896785678,0.011041976170022826,0.2031688900473296,0.16663352921589014,0.14620400544264758,0.44378662175489497
0.1377296371529775,0.4255247873861902,0.06747306797832829,-0.004845325877758101,0.1957224159285284,0.14203656130725129,0.13117723747820878,0.5213461379596562
0.13421610261799832,0.4161875524414223,0.05227113226631696,-0.007155378531646669,0.23727829809668527,0.17407241857084135,0.12594126446553205,0.7553133805477262
0.15614664035164957,0.459705764380267,0.09284108140876113,0.011669034836577797,0.3092683603458812,0.22407131990820983,0.19170194215333686,1.073853686867937
0.14233742316187162,0.47743797555333845,0.08175384636903003,0.006327677863578763,0.2885851133712798,0.22264865151953817,0.19383316400233122,1.1514176681536068
0.14869175259429307,0.47961000153208316,0.07450275882421509,-0.013250764517259503,0.2828930493777594,0.21230961639808354,0.15783985926262123,1.1137420355344987
0.13757936857855335,0.49800637466774733,0.08637346773613248,0.019841622924300188,0.2903183109955187,0.21404325919642495,0.1913491676510941,1.0631272305682007
0.15598468996132353,0.49318029409912456,0.09462029970017727,0.017814969095048563,0.2774702688537528,0.2206148030987679,0.1752620321423217,0.9408769710857395
0.1416080908474213,0.4752344437253765,0.09026863091641343,0.0070856584983017825,0.24756778217583783,0.184711472328026,0.1529783962593571,0.7172753797384541
0.1278251307867051,0.43382038888870333,0.056683360042968034,-0.01666594252925587,0.2121422278978185,0.1441081651469295,0.1299522907216265,0.5613300364005172
0.1455875100110017,0.394637606869823,0.07734066615281912,0.007476248340292833,0.23385067822535247,0.19255313735913276,0.16155008641933047,0.5419432852212691
0.13103310938130885,0.39319464682403066,0.08491259993819204,0.011477940825991004,0.253072339556232,0.19491293502791848,0.14183384436538954,0.7112155573588873
0.12505996259875463,0.44806835220333147,0.07082448808091413,-0.014936458423564045,0.251592900008269,0.18787901385876343,0.15329755627988748,0.9592533809457054
0.13713496374821874,0.4801517434286236,0.07410671855141135,0.002518047974901662,0.2861994644070854,0.2075260099203007,0.1787653027755903,1.1056818955987173
0.14415653963929803,0.49344655287290207,0.0830913367362481,0.015052470742399345,0.3022056064894795,0.24427089292232762,0.18526177651817502,1.146217534261345
0.12631988973819822,0.46184787518110615,0.0678042194928604,0.013035079506508259,0.2960306744511612,0.24239748031913244,0.2028859386550603,1.2246093550729986
0.11912949582465564,0.4823260030660925,0.0601868550810321,-0.005121404838823678,0.2784682851733192,0.1824614890999795,0.1586993858640862,1.1314256511214948
0.12439640915121283,0.4412222228315901,0.0647997288414206,0.01951843720546173,0.27257119501121885,0.20232594653519845,0.16038426791728336,1.0067664361437474
0.12644758480523452,0.4180100218062244,0.06533896320852657,0.0025276174214048665,0.22891359789046897,0.18345314874685065,0.15827984353184057,0.7600434600382059
0.10647294751623058,0.3893451449533505,0.04451080749087565,-0.030269800832606643,0.21784946752124443,0.14381673829565642,0.10613384735556748,0.6252833384032765
0.099518637702243,0.39964759340390726,0.035331959072592276,-0.03578027434264188,0.18844282770575396,0.14705793862030883,0.09847109381057431,0.6343456154142043
0.11302442710408847,0.4224189912320952,0.06087029715342912,-0.01309844709837241,0.23835334290170535,0.18532131969972881,0.13905659425723674,0.7410837556633426
0.11266471843099783,0.45214211713187846,0.05541866839143958,-0.017162167428265544,0.24595303948197528,0.18591159679375655,0.13198284666976673,0.9293142344667209
0.1099417568707755,0.47067530254833256,0.03729152709181903,-0.02841164276102018,0.24471359391044786,0.18201302268483455,0.14942046810232298,1.0890857067308706
0.10830376263065977,0.4718775159222396,0.04890464011567274,-0.022029356113132434,0.257495264611139,0.204461875691758,0.12970161053240117,1.1701078042722
0.12477583822216397,0.4927803000011376,0.06202001281461099,-0.01095407595769615,0.29272582057839214,0.212140956604339,0.16670489780093317,1.172543513566325
0.11292023705426654,0.4574617386672857,0.04210755014521739,-0.015924847638362473,0.2699679830734595,0.1748773635677793,0.13828314275277698,1.098199818945601
0.10165238608686425,0.44982016736347924,0.03352986462683535,-0.04032408684460757,0.2259769698028893,0.14422243466911452,0.11846443492414535,0.8750735712348331
0.10346330684390329,0.4244390557298308,0.039057165358160444,-0.01688103259968284,0.19010517189475595,0.14377409311954345,0.12376636644466596,0.6492605155278025
0.10899839172920427,0.4080034359035862,0.03573923817751524,-0.02781375500495949,0.18434175951277423,0.1445035580350254,0.1124494325049044,0.4764405899736778
0.08796916072806839,0.43062966417867626,0.03557361363781011,-0.03190983043523898,0.1976346248742899,0.1299439448554155,0.08642855775555684,0.5302741894957124
0.08765864932709609,0.4421499112365049,0.02170740605521797,-0.038769477589249736,0.17780024542007328,0.12408673721908552,0.08104183196418346,0.7605567909104077
0.12127554548987649,0.4991631334916732,0.04722295467895951,-0.03788461947108736,0.2500439970895975,0.17361321143595612,0.14295596064527183,1.0644749923150025
0.11569166278243845,0.5233178188223764,0.03797376597221177,-0.020428264183176104,0.24710312486618558,0.16907684731248923,0.11576238117119511,1.07673085694537
0.1065501883371159,0.5076669323915928,0.02994935584850141,-0.047407107756489306,0.2543484280279137,0.15506362303870402,0.12234893376162685,1.11682089579669
0.1063982934427345,0.5035128077320962,0.02281769194131049,-0.045421890874077914,0.2371227791770723,0.1565194291854424,0.10315563017380901,1.097311083757342
0.11694551218073133,0.48021971555755333,0.031964319749925356,-0.02859862490916364,0.24937054078395823,0.16728090678123422,0.13009817715232636,0.9977221878932999
0.11078194699642617,0.43309244190451845,0.02345061018601607,-0.04522899302640944,0.20412383960103014,0.1454243617090167,0.10255231896866486,0.8379729867691132
0.09146011434217013,0.4291241127803415,0.01127985630804264,-0.04904626696459031,0.16764193105034808,0.08717910487821144,0.05034468470780725,0.5151368987184269
0.10386933274851477,0.4118624654653521,0.017559099659345268,-0.0503906307709973,0.17092248433487628,0.11035839423810223,0.06772098424424045,0.4582522486705835
0.12486112398012672,0.413553885731962,0.03691210256321755,-0.0412748007494647,0.18976709195806638,0.1295950907498941,0.08362827847099516,0.5110470392661277
0.10562805551626228,0.44786598995623395,0.0250480911440451,-0.04865177600608834,0.21622128680582073,0.1444687663632105,0.0930376988820223,0.794216253343649
0.1077257430151016,0.49462262853096317,0.01370877384978838,-0.061806100754156566,0.22244543329193706,0.13721997796526392,0.08630054603649225,0.9526507305340086
0.13233973113360872,0.5125925186510406,0.06031618720571273,-0.030580501920138364,0.2526761907450106,0.19356161186426663,0.15344256925133204,1.0379361032527858
0.13970788352458152,0.5067336702571615,0.03988804545957472,-0.03579306550467046,0.2503796984166959,0.18729249126980482,0.14386876108825505,1.0345586882575122
0.12746285419728504,0.4703615914922614,0.03430029276510125,-0.05803308486363351,0.23683787435254344,0.18285993728141794,0.11095155846553911,1.0362537028726948
0.12586891976733747,0.47885663024252106,0.040195435077603654,-0.052472526575437606,0.2326497361051845,0.14392469779143394,0.10322889918764182,0.8885326956037338
0.14583736722764623,0.4577748458692688,0.04137432141871697,-0.026976400266973146,0.22495383302509125,0.1659500925413808,0.11703160972970549,0.7014480008172854
0.13614135870675667,0.432903965568932,0.0374858426840308,-0.039555358790918996,0.2003192532178607,0.12267134588029911,0.08666333213300641,0.4623581066913489
0.12196902273808122,0.4002885387133314,0.022390685863720648,-0.04918349089255169,0.176926728106154,0.09963200528340589,0.05963758829428464,0.4671041322799798
0.12548732376374866,0.4395601620268936,0.04293530780637027,-0.04940973258327838,0.20783267508358202,0.12382712445191321,0.0833419952827685,0.6257309960873336
0.15461257665761205,0.47350919059428836,0.06259218354708292,-0.02546925183534048,0.26280608844752723,0.1818679826353982,0.15171513933786035,0.9269636920781403
0.14922648488060677,0.46412767160124674,0.04495432170876172,-0.027542986525832744,0.2696758537135508,0.19626747398077254,0.14754399344600277,1.086427374303839
0.123334270632345,0.4540449101948508,0.044534336449159384,-0.062085411360664894,0.24247418552467193,0.1649904761288412,0.13904570175948505,1.1101206081268327
0.1369175774467978,0.47855333508324416,0.045466589694917584,-0.03719324979127092,0.2515075064597855,0.19420626766419394,0.14528731670358822,1.060370753450613
0.14627966002670054,0.4926354385814666,0.06190469621044649,-0.016799247228063963,0.28419658393168173,0.19924444041033984,0.16754525593540964,1.0343921714489188
0.13066817703455205,0.43539599064951684,0.054314375389634344,-0.024413653985780718,0.25654196546996455,0.17199328040831624,0.1299576286637746,0.8110819394268405
0.12927423071806812,0.410988884157462,0.03385363666438713,-0.0518003833186323,0.18236011195018031,0.1230916005600908,0.07666300895655216,0.5480552782437529
0.13408455169077413,0.34405715090804784,0.033992826778118636,-0.044870473026245215,0.18387535122163845,0.12882859975519462,0.08419589902415354,0.3774229409014458
0.13845364368977528,0.36584908306739555,0.055038967012804973,-0.015479757957487164,0.22271298616941443,0.1726625613536225,0.13461624687867643,0.4360303341347213
0.14403433517310135,0.42888260260486305,0.050614898035698214,-0.020323778432327945,0.24063165795217392,0.16378420643791075,0.1460567884575289,0.7052505727800171
0.12970056015303738,0.44068620104049955,0.045619835560293406,-0.04835020745434978,0.24237868185756786,0.17294437604194568,0.12625209417718242,0.8564666792139219
0.13548510207496114,0.46584985083089836,0.05253183711009729,-0.04610918635560327,0.28215176445353385,0.18865253844855392,0.15492857211101843,1.0981763436557426
0.14701626526678255,0.46876677772496006,0.07291840520359077,-0.01409224482343448,0.3110257171967086,0.22512637684330278,0.1970270091690993,1.1116649468175133
0.14235540606635674,0.46302320963335786,0.07420623518321572,-0.007211633270097941,0.30294551919943824,0.21791898253061626,0.19635391707399008,1.0859106314936364
0.1329283918399475,0.4392116107187885,0.06491375639211995,-0.032465520979306696,0.269591311271224,0.1954162217849277,0.14219691186459044,0.9204050489607785
0.11712682112936183,0.4198997362760533,0.03986391279478543,-0.06025732454776326,0.20955614196303626,0.15133178273314357,0.10473494466905847,0.6681660818788443
0.1331285752717658,0.37911850751224596,0.06173618820371321,-0.018981505476837295,0.21012561640129665,0.17501153959590876,0.1361833136590208,0.44852497472872294
0.1327202352776809,0.38979601586497786,0.06618180739092082,-0.02459785834817978,0.20791617846427932,0.15593414610454756,0.12333426590316149,0.43585352919584247
0.13249468736798165,0.40485882076302543,0.05925260105406841,-0.036425351622493454,0.21408704988334432,0.1715551324741799,0.12637477720110324,0.6164291235463486
0.11453345868431042,0.4449447913122521,0.0536015648376111,-0.05155807947857362,0.2327197940552971,0.1550188787400483,0.11965005981249514,0.8930373019961227
0.11902002166034414,0.47638386822496337,0.03821117837138385,-0.04322156882470814,0.24655811684198337,0.17768558809367402,0.14216231367765494,1.0744151743456938
0.13963071006559602,0.47130757629519593,0.07505664273216564,-0.031058861042215162,0.2945536981585441,0.21622103790240543,0.19952868816930144,1.1029369781047151
0.13134932377710348,0.45891181173943296,0.06946331538865184,-0.044440240299289155,0.2788313906464522,0.20049613820072978,0.17801620522302164,1.0542436345288109
0.12003783183055845,0.4417842050304615,0.053369307120640676,-0.06532792491391677,0.2542406316271359,0.18943684915340048,0.13983897948062599,1.077109882431343
0.09699476387087563,0.45287537483361456,0.028016712191147247,-0.08634614965978729,0.20631784449441257,0.1294948535184955,0.08570294120319029,0.8435998623640621
0.12704799642902118,0.40007837505791755,0.06787255812581454,-0.03452163941064196,0.21382024484441325,0.17246855218467294,0.1124596453560175,0.5575202234104478
0.11492454610783562,0.3883087561348148,0.0495159647218572,-0.021620978784937444,0.1910096560551715,0.13227960983293405,0.11682248027023553,0.303280541897712
0.10558687722371296,0.38532272751926694,0.052275000267301815,-0.0342410160911139,0.18704403492488952,0.12354069425102757,0.09363009696665792,0.38498057864902074
0.08917801866406232,0.4145427900984759,0.04337248927744148,-0.04761451819669242,0.1882028729039792,0.12675121041491297,0.08586222924755899,0.676154140628255
0.11677985719889925,0.4498402619353163,0.04236960368263023,-0.03719956310028189,0.23523434432147025,0.16655218946888573,0.12207828849896199,1.0050395936542054
0.12436117528483315,0.47831149730315176,0.07431267860775294,-0.005401388363812334,0.30841032114277117,0.21074872087886076,0.18686891882973816,1.1107303862179114
0.11717600822134991,0.4784055504160736,0.06956520485176318,-0.02856575330126981,0.28051505625577383,0.2104996901874411,0.1623428030793227,1.0685675335589595
0.10849893384466829,0.48336475163297465,0.05637282752399451,-0.03060279309883297,0.27055163621042133,0.16749778269242996,0.15168903356813393,1.0837621278309313
0.10520449554975675,0.47807333623598264,0.05819277854769494,-0.03678912117586305,0.24911016730121296,0.16864183371695676,0.11805907879742449,1.001061092885598
0.1443965613837533,0.43062248891070837,0.06590265511198529,-0.009531387927254237,0.25545059766900163,0.19826715388995736,0.15637293072172695,0.7409041274023438
0.1294679895951911,0.429574005772981,0.07977846724516642,0.001262928842964596,0.20303550977257354,0.17140158210073886,0.13747191997726801,0.5447415255891913
0.11293280666556085,0.42156955387909856,0.0524018216632362,-0.013136481495146988,0.18744929237654412,0.14298398682919627,0.08128787309477045,0.41720904936497927
0.09917748823220562,0.4266113853271908,0.03673969473618298,-0.035734745415523204,0.16481823133229703,0.12511596623512236,0.07199290646118851,0.5459180478117834
0.12662732310796385,0.4569296386987432,0.07369195260765678,0.010606276917447808,0.24835462596489305,0.18716465882975594,0.1457719515013144,0.7362548167195275
0.14237551518450747,0.49976468369985694,0.08122886851316004,0.0020729858649544642,0.28260380665219104,0.2088047792349177,0.18298364591082683,0.9835456062554353
0.13380786656816995,0.4710107940945257,0.06664711942450134,0.002545303431895683,0.29317686093833323,0.2107899867053224,0.18627679386392734,1.0428154763603472
0.12363326323883461,0.48576939308571115,0.05531266351204624,-2.456525229813061E-4,0.24514870054547497,0.1702097952531637,0.1444144294174466,1.0624041158995134
0.14212359084028414,0.4849656702909647,0.0715770018890201,-0.0014851073513625396,0.25476711707203864,0.1832655732626372,0.160366497981604,0.9231647569939131
0.16208137685757906,0.5004442081371082,0.10915346417443707,0.022231788281025677,0.25773426890083484,0.2120074299893893,0.1773351183788176,0.7348034209179184
0.15411267278432325,0.49867423938186356,0.0991291857019384,0.02294928373688922,0.20442371534200277,0.18352468981690104,0.1559947003848775,0.5440325797654804
0.1380978898258387,0.4555757096462091,0.09456808511293534,-0.009858653186152314,0.17537246585570299,0.13046372432844996,0.09933387478398698,0.284201879560145
0.14564522997405072,0.490154189595956,0.07751441419412618,-0.0017194496951739144,0.16184828757518072,0.15086126579048104,0.08761139672967276,0.32846985177068727
0.16995975158403018,0.4960771375445887,0.11541869114199821,0.02086139740048154,0.2219784700404954,0.20969193550824464,0.17530592823063845,0.5092769327024119
0.16716584483067562,0.5395531911166367,0.11142343263501903,0.018559128543626787,0.2712477995707766,0.20795822344057377,0.18347739804870572,0.741525379626056
0.1612685232593389,0.5639742194559195,0.09987132779187241,-0.002598400841797599,0.24681505933646533,0.198204958085105,0.18279845555318708,0.8484162577673746
0.15467019926194628,0.5701887325866782,0.10464142240294402,-0.01686847850632743,0.2468452814068108,0.19370614989510077,0.16963472153962228,0.9100032965635971
0.17929763273095634,0.5534587892050421,0.12670760862750366,0.034595108225163575,0.30080733961250244,0.25142776066387545,0.20998782737756874,0.948914211303305
0.18751796182726263,0.5235442456615231,0.14416718846573076,0.05441962736820747,0.29321490645762815,0.233469543359564,0.23454545659456158,0.849577545478222
0.16982403986734407,0.5052357223365438,0.11575554257992254,0.07028045901315552,0.24542393851328873,0.21269043052569608,0.18854182804602648,0.6591575084804197
0.15954156247378012,0.49646363362809853,0.10163762528621441,0.047776419204445884,0.2152273649973916,0.16658518920537335,0.14152691458917024,0.4297790223656468
0.17691391422217215,0.44703785546408153,0.11463671916882769,0.07544674790216668,0.23440867318725683,0.19796913855484446,0.1841520143717526,0.3653419011417648
0.18888443903287355,0.44542605284771136,0.115339615719916,0.074604165696636,0.2300826666282195,0.22552851383695743,0.20351969610557918,0.4637586661965521
0.1874646779681019,0.4901977562078996,0.11283281239812196,0.06213193536524017,0.24684818220044735,0.22408834974751898,0.21098110564533384,0.686531705687619
0.17291240370353164,0.5016843568258602,0.11527051725793626,0.05499939265041132,0.24486455627925238,0.20006431890865664,0.17111980396398285,0.8872852316810524
0.1915915529985228,0.5175400129893142,0.13552514918128591,0.06820894889587595,0.28958962587218057,0.23473650505408686,0.22922600601726204,0.9890476412497584
0.201647976034561,0.49347363445723647,0.14815803022150956,0.0956663344354148,0.3089248650393518,0.26781032335857063,0.25497827384514354,0.9727488647970188
0.20819507776613266,0.526045781073088,0.1417620630914456,0.09260642619831624,0.28737592247078964,0.2537338679118036,0.26172097494606666,0.9373426223119201
0.184885323727561,0.5111854807375544,0.12545215275217944,0.07389851905607793,0.2736739124193194,0.22174040710998494,0.1997743845627644,0.836560400496447
0.19468443033359936,0.45672765078074606,0.13016758372456858,0.06960943703127771,0.2469181368015104,0.216032483933849,0.19190692447364202,0.6441932051554815
0.2122572678080599,0.4706574057390955,0.14521985740455062,0.09691033648307928,0.26232412521355936,0.2346562078428084,0.210671300847234,0.4701584457885036
0.19431678851462905,0.46347158278148876,0.13544632977275767,0.0889009874375001,0.2635558194481085,0.2100213025271599,0.17781638069709982,0.4003303733296506
0.19192533709056545,0.4399152948283086,0.13600919458587446,0.08494512162445628,0.23593088215178076,0.2151382253709016,0.1875088776097683,0.5067978636131351
0.18332583338429972,0.48264611840600435,0.11802495540543465,0.06619153295034229,0.26112497415763075,0.21247249434937263,0.1918587900217326,0.7383460284245721
0.22349636114065158,0.5271659283932616,0.1584960731416715,0.11049045147462896,0.34131233445061043,0.2652517052928778,0.2650583294881363,0.9726243581805653
0.23204161687095193,0.5428720666715037,0.17392335492074246,0.11186858216513997,0.33822298775878884,0.2693019365269351,0.27110775137953946,1.0173362296419433
0.21696363712956346,0.5164925458698643,0.14936747783648266,0.12185149576235246,0.32354113046169425,0.26061941741213124,0.2510605806302463,1.0360721689706036
0.21249213168172523,0.5068789548906908,0.13228562027457585,0.09181208858793632,0.28876077472969974,0.23426116461587557,0.22791010152734334,0.9352506338876283
0.19089700399603807,0.50276462199433,0.1289067059063653,0.08031810961846406,0.24906708143041922,0.22445161446162118,0.18871005276232977,0.8222987552594803
0.20638851043606324,0.44236406992839344,0.156444308692228,0.08934866253717057,0.27902738875702693,0.2201551386539022,0.23043100013568774,0.6294502893974471
0.20593739545609802,0.4219149539123012,0.1386104554056855,0.08748600072191562,0.2479091460816346,0.18886281408935607,0.18181911424975067,0.45521823082561097
0.17912122982582568,0.40500310039331655,0.12810882840357302,0.07966811533640136,0.2270099567964027,0.19065531565440566,0.15944339351572465,0.41924105606066553
0.168004155580449,0.4358881514867139,0.12180998123316167,0.05527347883917896,0.21934214222738121,0.17439852518762855,0.14393038939020572,0.6057125386726571
0.18279818982765694,0.4779680921096084,0.12654033228185152,0.07508733794580306,0.2644719224541063,0.20418667469395474,0.1835723650982175,0.8160371242098091
0.20224118501614902,0.5020829425350652,0.15042322599480884,0.09080898817499357,0.30546202208542195,0.23552977352281215,0.23697921148511292,0.9148927972217575
0.18965625423109994,0.4880730828195766,0.12560143946382507,0.0881123466257107,0.31871924235843346,0.21634377244439737,0.22319950776736036,0.973081207653596
0.1833874464231228,0.5172202965689813,0.13159797166966644,0.06485806785605076,0.27010967089729676,0.20235933574075465,0.18695102702409877,1.0228769473832913
0.16963070184731183,0.516940354496645,0.11218926749422531,0.058545952873639555,0.25776197408502277,0.17960298585998363,0.16997565693409553,0.8921627093220618
0.21065217096465547,0.49740601384930344,0.14971860462346787,0.09617811182662449,0.27337455101213615,0.20879129602837,0.2079701287873199,0.7186451599288086
0.18653667158244888,0.46536106238315467,0.13484070761984096,0.07362258872294632,0.23968404931483187,0.1814574179202896,0.16570889718163276,0.48239198306857944
0.16760776379433526,0.45588718473517953,0.11516743935311999,0.05930976685778613,0.22682137730561133,0.15446170002764067,0.14496454468044942,0.39269058102739723
0.15821041876298597,0.48188198179734876,0.10893367144996119,0.04766182258174479,0.1786539944892874,0.15156431406521156,0.10526913586277419,0.42064010841668104
0.16975302829490013,0.45340106194822594,0.12318287753814926,0.08072077996853867,0.235657198116805,0.18587004950230046,0.16090220381604045,0.6713627794783189
0.19174610806615316,0.4895100666414843,0.13654477292232864,0.09182884501703177,0.2791014302377267,0.22287794270534586,0.18668715694007496,0.8300004991441116
0.18449184233160038,0.5176362507492198,0.13387719153564082,0.08503147949963154,0.2751002541742841,0.22613207790274467,0.2143966053103215,0.9972988174767353
0.17556863743424916,0.5267833412841199,0.11556244323342921,0.06471446888842856,0.2762182494196522,0.21046103260311347,0.16720289877570294,1.03948713292083
0.176572673730592,0.49581860182783827,0.10611094660259596,0.05421898178778649,0.24696106501290738,0.1848438532288237,0.14772217319038264,0.9771720730350492
0.19160008378500004,0.518907118428983,0.1328115693997384,0.08686476681593369,0.2837648035869132,0.22620125050325152,0.18707065753704685,0.8865334258516636
0.19403726053678588,0.4800219543401955,0.11552667564156668,0.08214742213008681,0.2573203475832111,0.21082198679073247,0.1742120375103126,0.6575883067143625
0.17843282913009365,0.45640265301406696,0.12511068337454406,0.05729546218541287,0.21698475815918877,0.1671304753334183,0.13665216448868026,0.508611695593662
0.16080579905784295,0.442984101936426,0.10501338344898227,0.04295540980285321,0.190690369022043,0.16303912701158518,0.09883713592245211,0.42731401011175746
0.16836438586065944,0.4543800025093346,0.10435683778914194,0.04966423370272607,0.2058400047199223,0.15493344760291958,0.1151974751273502,0.5216807743616927
0.2023159119850029,0.4703110184513124,0.134446508093701,0.09107271558411707,0.259944372767426,0.21826219048631262,0.17562268841320292,0.7405931871847842
0.1951473613926043,0.5314503738394195,0.13437907741612093,0.07288902480099449,0.275214296383735,0.23112885560876306,0.1884337457164663,0.9917024788358811
0.18915414308898904,0.5258769408582205,0.13060119809949242,0.07291119131818821,0.28694736699846535,0.22099063790517037,0.1906459823259139,1.0423864943204493
0.1879178588660824,0.5003995821537766,0.11957068882434592,0.06827413765128108,0.25109116043213864,0.19478589095078214,0.1785892788821527,1.0080989872213508
0.20245165975379786,0.5456896388669294,0.13845824877787058,0.08597577922655396,0.28732251575694895,0.22949962521348946,0.20576149136864283,0.9733905486753585
0.2059218423357139,0.5244489530964213,0.13719814310914685,0.09693184493877587,0.2539303986751198,0.2142255905310882,0.18337103103431454,0.8175489187268301
0.20501103854442165,0.49659955347723084,0.12496759548967515,0.07987387818931732,0.2274969387187567,0.20344195347083174,0.15762352551159042,0.5951488626515465
0.18919648772974562,0.4564563831645315,0.1271069060070946,0.0678149522852002,0.20416266265086194,0.1580626688974935,0.12621041489997098,0.44352023539285423
0.19162778548607393,0.4591128578704295,0.12755717487480528,0.07407501599161655,0.20990547485075808,0.15048861117679901,0.1444123027027265,0.5273105679125055
0.22166479340300166,0.47568277270329007,0.15416287402171716,0.10043387385049833,0.274658370399624,0.23263494516955427,0.19720758615902284,0.6612283618558186
0.2160447732759205,0.5185574631068579,0.14235034506375047,0.10380206392931068,0.2858405039436015,0.2344181877218811,0.2070245557447338,0.8936625163809371
0.20800800731386598,0.5134067461943771,0.1629274549506398,0.08113217622243608,0.30136927313927486,0.24410699784678247,0.20533829235960976,1.0093868129780672
0.19950121608661403,0.5027334491406907,0.13266330189745712,0.07019858349745854,0.2863086540765887,0.21554947375763264,0.18812679571428878,1.0596705626181482
0.21202194822213088,0.5064040760464462,0.1435716987514948,0.10204865940439281,0.310575287855994,0.2425352055741439,0.23090982066186758,1.0319815774928567
0.22530276720942638,0.5027518913735429,0.15334628233407338,0.11023431121422313,0.28569783483496486,0.26526128498088286,0.22127212104811037,0.9069858410902074
0.22426163074427408,0.5077354992541556,0.15156133725199505,0.09892786509834149,0.2784569152630234,0.21491086105656815,0.1870876618598057,0.6706206946869583
0.21584205758492972,0.4780977347244439,0.1344370646499272,0.08644973149863243,0.23148540179861532,0.18097341989538612,0.1497889738498444,0.5058407889974368
0.18835792858844896,0.4692575227610986,0.11058553289579479,0.05698439178096698,0.19893378770550615,0.15572365667935908,0.11773698580330606,0.5195621035351784
0.21096704563474625,0.46744272613432525,0.1489221035408795,0.10784136976385046,0.27624963973339245,0.21959121423848735,0.19689633331265394,0.590107804950496
0.21932925656167962,0.48493916660447817,0.1516468248383731,0.10257935418769804,0.29133423861928315,0.24435747184441117,0.20104852266489026,0.8744024220944544
0.21399265205126447,0.5044270335801657,0.14415574538460904,0.10515439078800302,0.3092121934268805,0.24678831643865323,0.21332258660483597,0.9539529871713874
0.19884022018481662,0.5196097801129774,0.1291752799360084,0.08653387829651392,0.28549597844206365,0.2268281779935702,0.19302761877097588,1.0325006789561246
0.19622012492813906,0.5183570045124295,0.14010460177297954,0.06761407235182837,0.2641075124303253,0.2007745379583071,0.17723436278162844,0.9951187006568478
0.22723740941605558,0.5058931535964696,0.14796314855105652,0.10513138535610697,0.31272911372216733,0.25129328327323047,0.23651146633433012,0.9440871540876553
0.21715257877505054,0.5167524145903618,0.14761827272794806,0.1098754601834858,0.29066705723058633,0.2329603558268066,0.2154329997762606,0.8135112969943021
0.20436927388473206,0.4871019545710788,0.1344782648289359,0.0888917425911622,0.25464119461779733,0.2057069650945844,0.18253354167766417,0.5863460741339045
0.1768675379788742,0.46746401072594596,0.10705854773950228,0.0663794790704114,0.20313357245961847,0.17199569247822127,0.13338182667676868,0.4570331636482004
0.17874972977686632,0.4534317498031307,0.12004884645190994,0.044867534287854914,0.21743749837182405,0.16650016064911582,0.13902704512590586,0.4593066860107967
0.20300543047093203,0.4649417897958719,0.14679164440646233,0.09714332941214104,0.2716895232252937,0.2173800895638778,0.22394502263258342,0.6939787113513519
0.19222657951284053,0.5031167532643095,0.14238904708606562,0.09465285650030851,0.29987311225529184,0.23508147253418157,0.21099735292535446,0.9025670587201483
0.1836148628693367,0.5004163554839451,0.1341265378866268,0.0768891662082589,0.2910722751061743,0.23298013919227872,0.20770594064085288,1.0408334098090282
0.18474269956036257,0.5267724764440066,0.12007194562981223,0.06177599189318187,0.29776151811690466,0.19655755871383018,0.1862746125955752,1.0106823209000235
0.1658024638141127,0.5255639277425308,0.10802502723967732,0.044377172771132574,0.2569571761414449,0.18892606017302915,0.16865520526933825,1.0150459202380964
0.20233620953961712,0.5012973545218995,0.13777364751061533,0.07965569839337008,0.2946572499667311,0.21682651929211666,0.19953310746190253,0.9226562517722899
0.19849453309293819,0.472926665997409,0.1339803691671974,0.07571787648204378,0.2539813444185821,0.1996783999340121,0.17732971728974972,0.6670777978313697
0.18378992976158162,0.47687935188981034,0.11473874996057055,0.052970921978079864,0.21891196281615496,0.17222783693944824,0.15161855149925285,0.4686680019041261
0.16364673218559822,0.45788472120857415,0.09389297369049361,0.047559996038038226,0.19338837714334073,0.14430589173448227,0.11565182567036705,0.42592042272225283
0.15240018021895,0.46902897682983535,0.0693893940662248,0.03515000427762642,0.18839388290442696,0.14664170469194338,0.09538865614339892,0.4935714167633147
0.17782943425414624,0.4825460834909292,0.11406113824571866,0.06795928267029773,0.24333352265155078,0.195411015840099,0.1546781698242801,0.7401597003434286
0.17645845117191514,0.5329435478597515,0.11634632995627016,0.05739275706388668,0.2767955671884481,0.20541168857003975,0.19204678056436927,0.9297204580701129
0.1695568336798849,0.5129589223066408,0.12518090008206453,0.0489998762056523,0.29808467423341767,0.20381443169230715,0.1988463704898776,0.9954415704696759
0.15664400633366657,0.5186941796678501,0.10162315634200354,0.04142336941471127,0.2740344138123823,0.18727982829651457,0.16169104648255422,1.0320367120211626
0.16151297294766315,0.49182781156688454,0.0868918117335368,0.025015114072377054,0.2551088022013741,0.15656955650831764,0.1467239948184229,0.9702066478707358
0.18339140477374785,0.5007202712808141,0.12037219210056943,0.0564616712462458,0.28451093969224095,0.2025141834474938,0.18045766745309147,0.8650969838201319
0.1667676021565676,0.4838798951610604,0.12237672816121459,0.0591149858550958,0.236282531908224,0.18808762189805825,0.16494796650251983,0.647253746949997
0.16890981593994223,0.43747151409886936,0.09638127965918408,0.03630131733083266,0.23156571429489542,0.15129881905699735,0.13515808659904316,0.5384106406252784
0.15209593772396243,0.46433550571456744,0.08529921463773268,0.025416601109701398,0.20574205360592832,0.12138988429854315,0.11262982390927209,0.5013210120982656
0.15852241768745545,0.4541575906961201,0.09885165832866118,0.02718935128180285,0.219833007088059,0.14763195591984982,0.11783516406669824,0.6494732427248674
0.18477266859155642,0.510753971380593,0.12174412625742835,0.0601345865770236,0.26658876891632083,0.20568905736271711,0.19401774403317712,0.8628897108166419
0.1798423410928427,0.5418778491585384,0.1312278042903913,0.05309737772622933,0.28507694718160825,0.21458839420731088,0.20783893475115112,1.019879251418207
0.18846792194781964,0.548162147188066,0.1227704649556133,0.06265993695006686,0.29226702606647803,0.18783922007114,0.1797307623203835,1.0548455250936914
0.1690513669673779,0.49923253549458724,0.10772672578855999,0.03816162622223641,0.25449107200473714,0.18130150307062876,0.14380991683572966,1.006668576787258
0.16953987193712888,0.5152095276464009,0.10776189064616871,0.03613485861394599,0.23132796616559553,0.1500485857200465,0.14192292945999713,0.8736668542057776
0.19134560990488692,0.5045562928994267,0.13937291260122184,0.06913167833841648,0.2745574720891203,0.2181343714243184,0.1693063210956157,0.7692067134023738
0.19204935961399608,0.47459204750590217,0.12787699993933638,0.07221946742001036,0.24196760172455675,0.1816538728746219,0.15256971554321713,0.5609410272640944
0.19427825099744583,0.41570089141971145,0.1307730731933454,0.07405799938782803,0.20472484800295987,0.14058411748560268,0.11472614574436836,0.4739966794097852
0.1741798640073238,0.4684964070267808,0.12179126288585528,0.054476849833714945,0.1955049166111267,0.1350344496744167,0.11735827159012627,0.5386355572616537
0.17594660890029906,0.46911079803136096,0.11222196614393945,0.03755583681693111,0.20850869689573742,0.1404200092930315,0.11810498115087727,0.7892021636076311
0.20184469109917544,0.5204127149868792,0.12680986704258437,0.07688335208890619,0.2727419876822891,0.19878519060801214,0.16981221201826707,0.9982702530534092
0.2045447149365242,0.5075707558870383,0.1468027815160065,0.08762216167168084,0.2912834358625345,0.20797653524515958,0.19554357834095634,1.1126044566524453
0.20653869784112602,0.4936620315761026,0.14231477187577934,0.07886628494940602,0.2792215819031546,0.19404882611204421,0.17182431824743072,1.0383099294909317
0.18757848412392628,0.502419205671735,0.12385140789385775,0.06777418961490553,0.2612158082195442,0.1859295701508763,0.15375072940906714,0.9548642620871259
0.16322876895038368,0.4992339917967755,0.12067375007632479,0.05562095747711193,0.19914213872491598,0.15396121011038705,0.11213709086525495,0.8242534265046934
0.19892892081271477,0.48010648820508145,0.13524536066044215,0.09113871368525302,0.23607874444622637,0.16194793593025295,0.14473002546897012,0.6134302742899892
0.1985610014410976,0.4317522734661024,0.13315084728966248,0.09762466260348544,0.20223747045888013,0.1548526850643204,0.13925114949290018,0.40263054067041265
0.19519245023326154,0.42441072120382806,0.13659917020328546,0.10190698605131916,0.2108358190698403,0.16794286416627766,0.12780608629029022,0.45527422369924114
0.1888671099345955,0.45552432956827993,0.1300102690411687,0.05985758381563277,0.20078626683496653,0.15129954959004532,0.11352555941177922,0.6439522516190481
0.18925953580735722,0.49048601870478004,0.1232747147964033,0.06093045198697053,0.22377098999350817,0.17122086175063495,0.13406615580389503,0.9110498348685907
0.19497768280740627,0.5329600683473664,0.15005653849162098,0.10288666438125536,0.26102677392929674,0.22564172811119013,0.18799215326232582,1.042657768419492
0.20991809342986326,0.513203636207907,0.15511059026078194,0.10006635199418047,0.26180295766178463,0.22681463042900177,0.20949241129001162,0.991841532381576
0.197877197865313,0.4844327351387024,0.15658014003759108,0.08115338099857432,0.2531541073006257,0.20969178844113645,0.1743615736004787,1.0317825470962736
0.19015170255154823,0.5068681672736157,0.1302219173515448,0.07380242557883233,0.23808257605551209,0.17541670411366056,0.16154419386694607,0.9120475463977415
0.17860766425727068,0.4561978072915371,0.11608571881053278,0.07195235037542731,0.21232118714097167,0.15642600741113638,0.1433770278599893,0.6812129712073557
0.1912824427126416,0.4301627268997992,0.14445121810044723,0.09883916303929124,0.22184986778543422,0.17697839187788944,0.16577063374010953,0.4583915536333558
0.20280022365341357,0.4183038026116193,0.14092294309801484,0.09696105379908665,0.2061956035361917,0.1754356959175043,0.13931643677194142,0.3928704175951715
0.19043014276572504,0.4365361010818503,0.13830638627830807,0.09028067422828494,0.22004095309151178,0.19366933604128259,0.15537144488854518,0.5761128284090975
0.19112153893125056,0.47231967845018646,0.13677296538302683,0.07292987026472918,0.2191067491560014,0.18514532242119508,0.14920639010343367,0.8363770566434814
0.16845745053616787,0.4790229282754582,0.12618903962597425,0.06827499495930495,0.21877725132772527,0.1812454085199525,0.14525252259344215,0.989809887375882
0.19792660249435984,0.47255117374508515,0.14630749913014787,0.09617845990265154,0.2750618293252517,0.21769296860204598,0.20810009943562122,1.0592889238447303
0.1850813098756716,0.4678506514467695,0.1435199259237446,0.09939046924681423,0.2774222147579364,0.25684806056090287,0.2305126497057153,1.1005728232829757
0.18602684147742363,0.5232317659404963,0.13877013341476935,0.08405437484554781,0.2968094183699968,0.22617141424407483,0.21173736980493452,1.1116342655130447
0.173127959806069,0.5077617525343046,0.11496220072487295,0.07303589805358988,0.2387486115104362,0.19073836653792503,0.17242122887530228,0.9464552504014989
0.1548977157002311,0.46307686102673346,0.09112908788991529,0.051971231026352975,0.20061036574903118,0.1349060324699333,0.12391166496035326,0.6181552411648942
0.17420366185082323,0.4148701112548407,0.10555503731652832,0.07390600781680869,0.17113156985256003,0.15627621513804213,0.1250628379877916,0.42651830216184
0.1762478956250659,0.42936486088491216,0.1254557343986611,0.0925457492862551,0.19987239110026728,0.19041430668864118,0.16153740989831222,0.5139963322082177
0.1687986663888458,0.4406187025173944,0.12808131438966033,0.08535950785551943,0.222744894498057,0.1856538127885523,0.1861241997344288,0.6885797988698463
0.16831327151613512,0.5166037186637407,0.12163502717996136,0.06409791637317593,0.2223277580367064,0.18226892092745448,0.16379154279882144,0.8249033571828596
0.16088161663717973,0.5311764760083616,0.12258552548546144,0.0375207814845256,0.2419687614870335,0.17451189389992808,0.14885639390868988,0.970428573530244
0.18606728041412898,0.512254484914276,0.13545580319585301,0.04269689316346069,0.2486093861123212,0.19706904802705646,0.18492801324759273,0.9802671727592652
0.18704682728645997,0.5319953727841603,0.1576579366488053,0.071731845546873,0.27231834988528936,0.23019715067942287,0.20028374685424602,1.0388726492410603
0.17018575545370448,0.5225763116279263,0.13168809141759566,0.07032714233182279,0.26864624194303394,0.2170899570317737,0.2043869871822412,0.9696838327073133
0.17616958069582053,0.4709500261254508,0.1224681980651014,0.07340216468311345,0.21747692894875714,0.17865379850806173,0.16996932395887343,0.6745750959475978
0.15960003744810314,0.48035746682015695,0.11151160250696306,0.07076555291980272,0.19841481424100518,0.16370655181641744,0.12033258174961631,0.4689542226233337
0.1770939051769384,0.5147916323326102,0.13114372232562688,0.07886127223554815,0.20719922877065008,0.19045313628658583,0.17077263048749725,0.36341818251166474
0.1764412045027465,0.5515521530724672,0.12335032116376617,0.06672951062100368,0.2050655903459285,0.18595430591042408,0.15732001602065315,0.46890275384132235
0.17512606798521702,0.5766344459228533,0.13822991342903512,0.06601033756832382,0.2177970997779461,0.1709430049867639,0.15580842130238964,0.7110712233020559
0.16115139969963882,0.5694739029545339,0.12508089950890058,0.038142611234176234,0.22888164067712896,0.198214441240802,0.17289201137041565,0.86860637703048
0.18942722046641233,0.5928041073768348,0.1372119675467476,0.07041479116226355,0.2699797359653354,0.22508313733766244,0.21114422040502723,0.996962888658913
0.18850341625514203,0.6050136614419996,0.1480704115657527,0.08403188859425452,0.27997323435329574,0.2288155193772452,0.22753298155321477,1.0056856966152194
0.1637019360203246,0.56497741932713,0.12738792257276094,0.07025004450850378,0.2627899140659883,0.21732340411470422,0.1897360056598127,0.9690363413560914
0.1714797362742452,0.5491928576515118,0.11895215029071836,0.06378870745466621,0.23779679614290514,0.18738374390135082,0.16055276787858663,0.8240673562850603
0.14882790732540932,0.5061693345339233,0.10142456158185818,0.031131440210631346,0.19484005154946354,0.16413364803871847,0.13180195976063247,0.7099955712644046
0.1664089717557544,0.5009639742531288,0.10885361953766401,0.0698650897888094,0.21075175333865934,0.19162553448836844,0.16493410878056464,0.6019119762226502
0.16524641733504472,0.4633474020178227,0.10510297445790225,0.054395831811076614,0.21961067465786066,0.17405317135450893,0.17210920297186544,0.6538306112791377
0.14729351208420435,0.5021665572527826,0.1076417584290149,0.055973824021018824,0.2159853390067401,0.18196990536569063,0.16007393328810923,0.7637986493029897
0.146098506774967,0.5516709851810289,0.08862401964972666,0.03938566922336739,0.22595585632876786,0.16702317339437683,0.1680097047776936,1.0641442581565317
0.13806265952336938,0.5363289656801139,0.07988506625035842,0.025024915416619265,0.22172046305628398,0.1658215570237835,0.14000551426830585,1.0486041977095555
0.16342547604376462,0.5627941869094646,0.10904621411781672,0.059127173446234534,0.2667563060325458,0.2246212546081394,0.20136491092587094,1.068787837623275
0.15359088543324073,0.5410194450295704,0.0976856880891332,0.04657439653341831,0.2525885546525615,0.1953421632922434,0.1799440090452726,0.9520919629086539
0.13923693616966143,0.5352573499338039,0.08652635805810696,0.035979010422247396,0.20585490292446085,0.17130019848183492,0.16216777918799138,0.8947293259418129
0.11631105666335523,0.5215590536351844,0.07100344555750611,0.007307487466578706,0.18107435241330164,0.13098562557688392,0.1054148334046218,0.6978892032946513
0.14414410073297207,0.5451026769772946,0.09036587543197169,0.01821620107611332,0.16448348146383515,0.14725802545298391,0.12791272847807333,0.6184946685910295
0.1501130368595681,0.5425542029452786,0.09232282341900898,0.04011616327967032,0.17421008784712777,0.15629627806433405,0.14425487257595168,0.6040640537478618
0.13277179691448018,0.5223002958852253,0.075890581974546,0.03368889648587806,0.18836420385817193,0.16475684643068958,0.14391934192421946,0.7483316936421562
0.12002643250703399,0.5159723461983963,0.06215725698337535,0.016683297876741433,0.18551059597800676,0.14894826748691395,0.11446702885343067,0.8729181869922951
0.11426051675161988,0.5215556334488489,0.05332432746545969,-1.956409334924085E-4,0.2127990134530387,0.15224542551465597,0.1328682888234867,0.9828390430809649
0.13117535285679593,0.5890362368364245,0.08379941995942965,0.012521503295126772,0.19832977109157443,0.17203813190476558,0.15427598996587472,0.9762861969175582
0.13691909873701424,0.5958942811800949,0.06972129352033037,-0.0011321458438930873,0.20452599595895324,0.1532947402307723,0.1388224651800691,0.9429778916416514
0.12284388268607707,0.5756733609117078,0.06721771321057239,-0.007293908963597118,0.18200342027815025,0.12188852893104159,0.11029522296832786,0.914806887985478
0.11904274432848982,0.5421419986409398,0.046272740982830005,-0.02177507701529104,0.1629270222542222,0.12523295883558225,0.10062464168295365,0.8340420743878527
0.13238009508672616,0.5355290970917242,0.07842704948242346,0.0019111128049789205,0.17799074466661743,0.12946363512954254,0.09962430239834426,0.6627118775271417
0.12022321209220785,0.47004905158829335,0.06539712138688422,0.0028755687471878097,0.1367153044935797,0.11692804315872134,0.0883205995994786,0.539517165231713
0.10206545769019705,0.4370861684325724,0.03403645111524628,-0.03232604775676389,0.12319729213315671,0.08804417725383559,0.07137715438816562,0.5925519408595286
0.08947585747465575,0.44122598556151155,0.02923186278037339,-0.0424460436034176,0.12208370347987582,0.09292013018426926,0.06313243420661337,0.7528393877644949
0.11896723323971405,0.47603914475910597,0.0583442704851297,-0.004225842990519681,0.19965720177964047,0.1517774303551762,0.15987269933487083,0.9499758536852333
0.10876052673492446,0.4846656584731313,0.04599128182410079,-0.012554895492961493,0.20128609807381279,0.1850184546056014,0.14668078661083453,1.0585779193688243
0.08438595677000095,0.49091536249857476,0.02365328755568668,-0.04134643049366572,0.2016440103503165,0.1670107690444917,0.14094066894174212,1.142605490735572
0.08686868869510153,0.4832679457347971,0.010824000902505671,-0.05965665131477467,0.1889126513892126,0.12904621902084898,0.11084869185780125,1.0526398137829875
0.10843879149078754,0.5211071796175636,0.033335159966551564,-0.03721947583485055,0.19613186988186068,0.17442860557742546,0.12948331076345876,1.0235792144792875
0.11056984554444035,0.4961963598258814,0.03814446618557827,-0.010629557941954384,0.19029153523483425,0.15868229224927993,0.13618323880676228,0.8431825091604102
0.10988104872376872,0.47105416755949714,0.029736898411780757,-0.03457845496534488,0.1535656940169041,0.1331222569864132,0.10498341639822655,0.5701403614760814
0.09141771594015434,0.42307289543158666,0.028332258630184105,-0.02574501181523544,0.12542904863401677,0.10410291619608165,0.08380145204020463,0.47918740740481985
0.08654694689312499,0.4086243430608189,0.013983044224224016,-0.047233169024951165,0.11225125744600588,0.08768853462168408,0.06260959949330308,0.5461768963819624
0.11275260815558287,0.4602369949484198,0.02368764711773583,-0.05757335482466229,0.15158584446323048,0.0911339988754282,0.07910616662533397,0.7157845608313846
0.1261927323965761,0.5369844722858214,0.0683835359294517,-0.019450784120995466,0.22790805287295757,0.1832610686021545,0.14860948180873268,0.9726355002980378
0.1440862903393656,0.545507293149561,0.0698209400618942,-0.001770986534978573,0.22771202014653244,0.16959842428229874,0.17092712768337465,1.1147366372821115
0.15100851743561616,0.521982968603833,0.05333639910900693,8.813177766422544E-4,0.21223298646264377,0.16410489263956782,0.1485571336338811,1.0561901272964256
0.12179267082728194,0.5436776210458164,0.053605167623607675,-0.005356661551151826,0.20442096236516802,0.15324133554552558,0.11026618321359072,1.041352695803557
0.1199918272222933,0.5272861444410909,0.02980629531465078,-0.028645301651504442,0.1724483576331666,0.11902144028462036,0.07467168731516632,0.9671180767752939
0.13685701050829993,0.48134013194356523,0.05731158844529529,-0.005290848574099731,0.18044429792835442,0.12160609637147834,0.10297911932916025,0.8551505051076925
0.14963654574830804,0.4732698213020092,0.07468776719468082,0.005984198976730728,0.1929365473425851,0.14753862115158192,0.12117761118732186,0.6719925999402991
0.14868119622965,0.44233867801841964,0.0650810515578913,0.010081273979371953,0.18205774363616567,0.14019048875201237,0.1035749722616557,0.6340074193542785
0.143585800243033,0.4930369779709683,0.06654209848826177,0.0014111534064181193,0.17328054664985895,0.13149809896711367,0.10467858569002594,0.7886275664458009
0.13858798682027937,0.5187131643283222,0.05711319702061313,-0.005438136815371346,0.17321074886504317,0.1268356870565926,0.08667947354052379,0.9692623517988957
0.13668931296642775,0.5098152637745299,0.05136587289845583,-0.0258841869861737,0.1823352432313156,0.11675610429356097,0.08197607510150175,1.044497694808922
