-0.01059274748471183,0.2455348883305874,-0.021687224209634974,-0.03987682981747305,0.04227619006603024,0.028041435799209116,0.03413848536181316,0.5495873375174185
0.024420622966909892,0.2554706927913,0.015237189972279535,-5.02932795825313E-4,0.07824006676619727,0.06861293044849756,0.08915203777124034,0.5562788559910076
0.022474849693356884,0.27221156460296164,0.010394013666003763,8.431882903315729E-4,0.09605741499725225,0.061639123961534245,0.10055737084613874,0.5859430590080148
0.020207502650206634,0.29443707442746947,0.006958922040673814,7.015452064661337E-4,0.05817627548118883,0.052701539082014956,0.08260107712349647,0.4847328926791424
0.003286512687066501,0.2591930778178012,-0.008588802650659477,-0.025626832050983483,0.020528028297665403,0.019029856722774532,0.020842548661202893,0.326875483269149
0.0019627150338995527,0.229631384521648,-0.017042129133639547,-0.025437267050435093,-0.0021361031253700237,-0.011517777224928506,0.0139869784818136,0.17019003118269974
0.031148771870929223,0.24569737379487194,0.013556878504503512,-0.0018822760436365688,0.037459599520714044,0.040962399483822826,0.07258023044355977,0.24963503620835786
0.018992356335766104,0.24947413469056512,0.014096185480082957,0.010359920789133274,0.04427070113423419,0.04459885920704961,0.055025594532873104,0.28460484674019637
0.02604047819947413,0.2618042723942652,0.009273989624150927,0.006031622590803157,0.03514012638496643,0.04312409563195978,0.05915860616131591,0.38179410956260507
0.014774306325642791,0.25507229193807324,-1.026109121972478E-4,-0.011638990065354168,0.022737362726819643,0.027890921402914902,0.036972400883596865,0.39696090495821157
0.031945320705638845,0.25690027356341344,0.010901704573979702,0.01156516064252771,0.06388775539216819,0.056159884829508844,0.0762748926542386,0.5012650832166292
0.04163675272052336,0.2741695463198645,0.039237600317411504,0.025859892137889064,0.09446201137215236,0.08569481779487331,0.11101122111807778,0.5824864166158282
0.04914713610223792,0.26439105402107327,0.03492576715489968,0.01878918044046321,0.09220306219419655,0.07796904712923303,0.11708817151971083,0.5629004916410318
0.03603993353330879,0.2816160137935542,0.027143412379947815,0.025707907574191412,0.07090530746664227,0.0424363005100324,0.06402267244413552,0.4690510604611653
0.049974436776677844,0.2457506839064104,0.021461578246288554,0.032922064774388415,0.04206476850741726,0.046782028549030324,0.043943289068562444,0.3300952586575809
0.07969794033417586,0.24061369824166703,0.04526037427194554,0.05619757879303593,0.05506915212101862,0.057535062217401366,0.07908267328086424,0.28367169613765925
0.07654937815398496,0.24739604987641628,0.05526583962543967,0.060026587015413115,0.061278212694066476,0.06854897426166759,0.08439969401964481,0.31635967287741856
0.0717782904487374,0.27888371699999315,0.05421023137772443,0.06142840951726397,0.07941994908121228,0.0628550981537431,0.08229182876845717,0.3782823690537425
0.06743730565685564,0.2595354820132699,0.05503410035384841,0.06525429784634991,0.08485029278982867,0.053870360645363935,0.06445504885274059,0.46285640796683647
0.09537738595111281,0.30111951681280197,0.09159175266427189,0.08952086101113865,0.1065435430983622,0.09427671242502264,0.13001376664598832,0.5343837670530421
0.11672649875542404,0.3223358348825003,0.1079961560493238,0.0888572488031325,0.14672432361008725,0.11259154598327989,0.1421349522874974,0.6120831798723829
0.10814728335396886,0.339831719229992,0.09190278439855103,0.09357465496926323,0.12352764636022516,0.10282464334174875,0.1433082229743302,0.5681858919679195
0.09835726789095778,0.3129959195134003,0.07650689934124175,0.08125890588096436,0.1125316087834904,0.0804605258515595,0.11290700601077905,0.501455152027069
0.10911719955816612,0.3058030037119423,0.09712546654778859,0.10321331507485285,0.12159395495472873,0.0871006338313696,0.12850096168831912,0.4989310193763087
0.10781659298055071,0.2880687879614137,0.10916594132245569,0.11560045577309067,0.13103367048582776,0.11161035401148522,0.13816151380122532,0.4169219911622358
0.11520593604838748,0.2729029513945196,0.08793344261680806,0.09701092206640535,0.1198683787671522,0.0914656473631493,0.10786074443006896,0.35197159670575573
0.09593998859944079,0.2563370399929651,0.07866527978496916,0.0738405160652005,0.08179528528595062,0.06302533423659948,0.07480243957019198,0.2365708479948738
0.08720861096115795,0.2638074140951379,0.07088040528156439,0.0849382449353859,0.07893519798593891,0.06856456049222753,0.078677488116135,0.3289225434316366
0.10279922399020729,0.2988741123123057,0.10813299870363396,0.10301748697563881,0.1372899273595252,0.11163907122665165,0.13710686650812248,0.48325927644103284
0.1071390674742224,0.2948867875032706,0.10031446301710167,0.10941558972617113,0.1560052083193435,0.12533544142639075,0.15991812679306652,0.5968960341628778
0.10213234735427801,0.3121104438110165,0.0917999951497305,0.08271434107221122,0.17064572573641595,0.11309839047677162,0.1520529535358982,0.6655310307758524
0.08660988663154787,0.32358076451039525,0.07652785407631509,0.07175740874477222,0.1393984671051001,0.08136230361001644,0.13702152326290296,0.6604792513137472
0.08197023333255794,0.31181782228383637,0.07479102468312958,0.07153750229157665,0.12548504914390374,0.09712479529398488,0.13492184628846776,0.5967804618148894
0.0994174174159245,0.3023697992759365,0.09211610936983747,0.09282819020865879,0.1445613997863086,0.11519641286407095,0.1452794187301526,0.5348716028925936
0.0897545542245453,0.2716781696319213,0.08544302892301117,0.08475100562628594,0.12516832799232352,0.08637867187936543,0.11537109606389827,0.4029446791111063
0.07493678376147717,0.2549888742734174,0.053466373256686,0.061835588371765546,0.09451326499725324,0.061539897661786094,0.08078049758854905,0.3046336101274558
0.05579742478428025,0.25252220719769447,0.044365354067436115,0.0406387568326812,0.06788322522882789,0.036790204204456015,0.0582591833305669,0.27824956703626447
0.05464066910825231,0.25013909755183816,0.024214110899292724,0.02771380746664947,0.0737155762152526,0.029236934292801355,0.05382884854202945,0.41226652264370206
0.06846696277000841,0.29641084618754737,0.06206199415707338,0.05970088432021994,0.1368433261285576,0.07976440927491785,0.11029514977601271,0.5633043458767812
0.06448040376038976,0.29371259388896315,0.05425704332656427,0.0672158716667562,0.13423150732911152,0.0888872313211293,0.1198070358110977,0.6840515822838403
0.06373337125197197,0.28352609723459127,0.04690270449938259,0.04908472927705444,0.12598730239178635,0.09088767731232542,0.1057310125987864,0.6856590512796955
0.04178049579558507,0.289006415131872,0.028355740721691176,0.027255726272934662,0.09928878527332896,0.055826853777002056,0.08906380190291016,0.6417598191556809
0.03395152890924239,0.2649401396149935,0.01165885575644851,0.014832719044923198,0.08115148577774131,0.034028535725602535,0.04918888318705852,0.5040318241409429
0.058097195067436797,0.2537441013058103,0.03378974601718196,0.032405635499876226,0.08133288607980921,0.04404642683433707,0.07872014524400181,0.40124767377758214
0.04561450133478536,0.25861352029745,0.03378243521386168,0.02178943722424135,0.06911198063330742,0.0456136668929647,0.051675096241701704,0.2613776220965853
0.035019779145634714,0.21998131419359712,0.01717041518341956,0.016183111682648008,0.06675272679404262,0.024630566954716097,0.0343869518430363,0.24682581485392527
0.026764109557246115,0.23322417432459505,0.017869569015803437,-4.840874647558391E-4,0.060940407944709285,0.010265508867875597,0.02543043562654832,0.3487754305590319
0.02371626328987293,0.2523590578953512,0.014181888069345203,0.002274042981451216,0.07150608503212848,0.032157437952215734,0.0398117713699528,0.5630320390359264
0.059657700441339244,0.31287325160865237,0.04603182006467514,0.032516506677736125,0.1211833633699791,0.08788961274872138,0.09281733412781742,0.7074628673700517
0.05328852765467948,0.33088741935539706,0.0424393054030258,0.03251031540441994,0.1467571753818461,0.09109878780190939,0.11147021934299729,0.7128055896640785
0.05235172833932296,0.2826947620730669,0.03149337208071293,0.02093289521528905,0.12816953064850842,0.07720291860253688,0.09012832160089937,0.6732276067379075
0.04352770194333985,0.2877770685304824,0.03125795258716674,0.0034892668108026104,0.08764500714601524,0.05464823220477444,0.061866390029434636,0.5792597735212701
0.025125750526432518,0.24603319425426784,0.00733433646846144,-0.014578299480220089,0.05407948575666305,0.008257939504994198,0.017702250216980644,0.4339952954025856
0.04132437393106334,0.25692423850218965,0.013281931631481881,0.008092663377502668,0.057152352952916846,0.024732716189515707,0.015738515320452284,0.30016940727720376
0.05776589728939832,0.26102087274988073,0.02976193701270596,0.028064063971441497,0.06879010445432474,0.0451545138856978,0.04409443623149295,0.2902084041783149
0.05793018501627643,0.2386590120571662,0.04319897693886922,0.03112671228349432,0.07054280834236502,0.048859269710830794,0.054325929423213154,0.3280420141672031
0.05030069057907055,0.24471588541991451,0.034619259388937944,0.011693115054639755,0.08417884872107119,0.05003237017140781,0.04267326166576562,0.4189284523315923
0.04389932723078046,0.28720243427725456,0.014433480586449207,0.004971917553417152,0.08369189096615826,0.04683002929541656,0.036530013434735546,0.6559741869198945
0.04710167622345669,0.29239579115252023,0.024472492179828376,-0.0022249106276150538,0.07854866948743014,0.04645211055479315,0.03810910714198898,0.703786371552477
0.07616957758618872,0.2957131069776583,0.04949587663781951,0.027073418402976612,0.1190741641624502,0.08189665303502248,0.08583949175946559,0.7163441786021573
0.07835631947023397,0.29390452801369493,0.04129960065034223,0.034072057868534095,0.1143158459491715,0.08614721061160319,0.06760928414645836,0.6417085383491566
0.07639184593930509,0.2754095117346089,0.034050761470304475,0.019648397028087655,0.09711250437770244,0.051306056256620734,0.06553867058246929,0.5250852259704091
0.0593746184303096,0.2844811820185877,0.038191254163570006,0.001641920836073868,0.06064951229155614,0.03435337003905414,0.022888598161843035,0.48410448255162364
0.06569970847095755,0.28030551003579957,0.03930748832119519,0.01267358214040154,0.056946261611699245,0.03745183539345161,0.017818656112058642,0.4049072778960418
0.09225451456095433,0.2549765989490743,0.058206333880260544,0.05962099519759964,0.09005470958948412,0.057101122524705644,0.05529706193327259,0.3950921693540833
0.09140886564623049,0.27562759367223644,0.066605521541669,0.06822070849916058,0.09448186242219245,0.06977924428931868,0.05602020410300759,0.49918345912859907
0.08517769076845057,0.3005420507133498,0.060454948436156404,0.05276469444711473,0.12149167672676606,0.07034876860505088,0.08225207493350407,0.6568420801031265
0.0860511731950606,0.3060171117908244,0.0544300287178034,0.04251729228722364,0.10892192230236294,0.06593873773139623,0.06523982548626116,0.716426859734342
0.08857845669174308,0.30780700788422966,0.07093551131209155,0.06603963146593551,0.12200942570997372,0.07542730201764306,0.08369594829628729,0.7328632039520246
0.10897320846667777,0.29818714293841025,0.08558400998746765,0.07531754776473377,0.15481101562386787,0.10236587754340679,0.11505564865609261,0.650183174572801
0.10865452629365804,0.2881806618510432,0.08598242923837582,0.07251623844739419,0.12884775867656864,0.08857642903030122,0.10086630089463929,0.6350916428752108
0.10141908083935147,0.28904979571499173,0.07251171489054326,0.061762894335261866,0.10857170241393432,0.06392845268247953,0.06359385423356709,0.5107209675459476
0.08017100382860959,0.2706535727486004,0.0519065671568616,0.04332405832843173,0.08566829221449637,0.03833849343226441,0.033171015626707046,0.42333480244244825
0.1037887470450463,0.2397200035442923,0.060230141883203706,0.06319178751594415,0.08593043769332388,0.05563119647912828,0.05185133310597752,0.35103706773803794
0.10692953323301253,0.23302553244352192,0.08328298749826109,0.07882639145655335,0.11735196737139282,0.07523092940052208,0.08783128485282779,0.3814721125102241
0.10217184442131558,0.2718804275702492,0.08148275064594106,0.07814573635665295,0.1298268093281595,0.09488935027272977,0.09259197045290846,0.5167737393674336
0.09960902993829822,0.2926318414540302,0.06306167799128556,0.060737727551554974,0.12734642219498463,0.07932572584951479,0.08464992057469845,0.6110639000252628
0.09097886379352263,0.3005875685251184,0.05715127388163991,0.03370763739137232,0.10846685700544786,0.05702436473447173,0.07370698643135096,0.6813016195400206
0.1008509546099713,0.2907975928297984,0.06795858536272559,0.04882544050225675,0.1330816133118332,0.09353249116217974,0.08971781069864686,0.7340266971811575
0.09952251691215713,0.33145111432898455,0.08111772799284506,0.05366159777829998,0.1758217249300247,0.12314909503663797,0.1266105523860231,0.732298970063511
0.1005654529179326,0.3181722195680414,0.08172096256448874,0.04748574633458122,0.157751968819451,0.10099798233718799,0.10148401268812096,0.7385190954540872
0.08282058445856277,0.30753828377109027,0.05316319153421619,0.033768379754142985,0.12328301753355796,0.07682709961565551,0.0689175032955193,0.6561164855466727
0.07159096774703037,0.2651197439631143,0.034580510771100956,0.01649389565425409,0.062445159317482186,0.04813660345946826,0.02808103107551775,0.4680915597365903
0.0906341419427063,0.2590161233793767,0.06308394117734153,0.05856320816087942,0.09497641473483875,0.06424314234138606,0.07405514343428599,0.3534435729553422
0.08479787588982012,0.2701395101253047,0.06310050870166221,0.07420586877997554,0.10735532387200535,0.061998632566276454,0.06898391103408791,0.40795088131022317
0.07393228978966869,0.2600370739360094,0.060281822463745194,0.06300207875730582,0.12065630628594051,0.07157401033172697,0.08717709621309407,0.5069898759247701
0.07518944626846202,0.29476747395450104,0.0424019014930387,0.04295698592574502,0.11436613507538919,0.06345148952099727,0.07615767256967407,0.5871151683292389
0.0665383871744045,0.2924826514507516,0.04443363584414912,0.03970264789066019,0.12539386624783228,0.07721858796501274,0.07757959645832366,0.7078163215599129
0.0860908535746151,0.2953436182141254,0.06094737474435712,0.06932387662574013,0.16690121370127592,0.12215977132538326,0.13805222585187327,0.7891036569513058
0.08234286534619908,0.3039334654139671,0.07265964797333362,0.06258413768303706,0.1721883738726332,0.12325790121969032,0.13587736356615454,0.7762431415787003
0.07100249228090626,0.29022471003911643,0.04683789031539676,0.04819663086526988,0.14094748213609654,0.08740793332501033,0.11039955105848595,0.7030429567936524
0.055007907293804836,0.2781740483242479,0.027012251728604712,0.024053001639553068,0.09728091376187105,0.056686734219164314,0.056390837521353536,0.5514688388807377
0.049697209235642414,0.2412423282452658,0.04267353380985754,0.032589020308531655,0.09226435559850968,0.05136956119818814,0.05412944296210434,0.40800345554707285
0.06743417309773034,0.24644591896496315,0.04959946221072363,0.05909299231813429,0.0986698924243306,0.0691474050690601,0.06995834947047429,0.3198652739018899
0.05806912294290898,0.24898230068796212,0.04729143597816386,0.049013810408033466,0.09817761750126122,0.06456831638379017,0.07766829237846995,0.3822792707926298
0.05420846296714462,0.2640081388319852,0.04347585083638376,0.04061284593703641,0.10359510910530922,0.054949933015972854,0.07791541345905335,0.5122253534361721
0.04005096318293287,0.29343991911217965,0.017075735865877406,0.017160388364131418,0.10342674590374201,0.051441070065522454,0.06985653500023017,0.6497281646436466
0.04547392099465719,0.29334681553987896,0.02875136112761797,0.03109134493717429,0.14550383794694313,0.08862509023088122,0.10666323462373606,0.7594568658457458
0.07003077599655763,0.315217897455585,0.05133704644710232,0.048771745010613224,0.1628777047909687,0.11232796608553952,0.1440878246777604,0.7930716217534475
0.062392107228333674,0.332203318837986,0.048846366897991926,0.036405274658298334,0.15057196236366158,0.0933851492813665,0.12363581862840504,0.7460138497792425
0.039614887137978824,0.29721226676822005,0.029536007260354914,0.015262561035530545,0.12081720962240541,0.0718910366244954,0.0850666472029308,0.6228390122724843
0.02509864784442673,0.26231487012129956,0.012438060378313236,-0.006057115580934233,0.06930376735723809,0.02922269844142812,0.05349632687697299,0.45753555893799136
0.04386253825309597,0.24921872674196224,0.02379729365316596,0.01675254419207016,0.077860331531358,0.03366883965795431,0.06791648918250497,0.36226043561085874
0.04344558599564134,0.26671648675712567,0.026684938811535455,0.02031489026923043,0.08474534124148432,0.06819186801209318,0.06540829271941839,0.3594194889001966
0.04685475578621364,0.2924709802920032,0.028426755258408133,0.026160475290591553,0.0936626224046809,0.06613471710653879,0.07932800713418353,0.42886558931107577
0.02094730278490524,0.28635962941747195,0.007799666103911529,0.012005335485607393,0.08876897717747251,0.05755097148069965,0.07438124195529633,0.589157296263394
0.03450533319111411,0.3033689784867148,0.015831827927174094,0.027048672972998303,0.10584767046879963,0.059633393921540497,0.08722457029246253,0.7088759676443541
0.057665061862606996,0.30888475895033835,0.04502136806348125,0.060900970793672786,0.14877337262328458,0.11586104478254729,0.1286592627424764,0.7572545189555413
0.048006720476081,0.33890359203572884,0.05009424676855694,0.05501090433784562,0.15244290522197035,0.10616224982215242,0.13266408451924566,0.8359788085411677
0.055708128226503284,0.30895918899161967,0.030217429409027004,0.03202328367937243,0.12314110041873072,0.08549283820708166,0.10425466192736967,0.6634772702226222
0.030498817162419506,0.273124430684017,0.0074877139134049975,0.018644423150050216,0.08662683850520181,0.03617998861692461,0.04198019409221647,0.5232833810789993
0.037941610806882756,0.26227270696503036,0.019539067853225518,0.02624938542783141,0.06894788624608444,0.05539483892629083,0.05999282894997224,0.38128737783422184
0.0637374267784274,0.2657083451749541,0.04402959057202605,0.036967738566651906,0.09178342136682277,0.05689377519301168,0.08759799662211615,0.32746802186907376
0.05076034565617238,0.2731698498396584,0.03145221243894382,0.042399605081952035,0.0813974366210778,0.07100838126269801,0.07341999260383238,0.41825412851816696
0.05182638036306493,0.2749197982534439,0.02069807696112788,0.028716800473668397,0.07587138417810209,0.049236622931964215,0.068657284039323,0.5381514272853316
0.045932177507183994,0.28045433244844087,0.02074578009770077,0.013778481462286205,0.09033315308532604,0.06189781259392324,0.06319132049150308,0.6826207117364487
0.054322701592778015,0.31288609078340157,0.02811837736764463,0.04218032252573062,0.14109122958657688,0.0877310849418379,0.12166328011063424,0.7944054282454391
0.07119356717470453,0.3372561562154809,0.05842457946924125,0.05178846848121528,0.14340404651759028,0.1198022292303083,0.14451766570977084,0.8232239462764104
0.06971498546864059,0.3229568287029814,0.04120430370021876,0.05222838620823858,0.1272786055315603,0.09626332297172986,0.1304052055319264,0.7763511191255191
0.04304085083414214,0.3121880588433697,0.02435658066112644,0.017532032022097577,0.0993195398827292,0.07465715613173579,0.07643424572857782,0.691187441761084
0.03445661823363549,0.28959438580863855,0.011616432079738816,-0.005050802173682589,0.06638467744843636,0.04698412291812141,0.0629277132439203,0.6032874804259891
0.04662470188959252,0.2983271408534208,0.029090636124362593,0.012210664690663911,0.08603024232029831,0.05807952286500578,0.08966171041107394,0.4887533880113585
0.06850459933968385,0.2655424679919619,0.03731801560143028,0.016163189303639455,0.0803053639720038,0.06467227005281324,0.08192596099972732,0.37737022557129185
0.05843572571048594,0.2667739719158087,0.02998026042320695,0.014975968393154723,0.07853209884869987,0.05400311505746291,0.06527759035782457,0.39041333991604643
0.0466934650531408,0.28323875914910573,0.014143256234724316,0.0039990229068326,0.07262079434706174,0.04622766523275935,0.05367227455558054,0.5160718280687507
0.046206122340193535,0.29407100298561245,0.013217277049387861,0.0033919017874581847,0.08166508895460217,0.057926182777787515,0.07232305658272872,0.6677480200900445
0.07657481418757484,0.3297545691056631,0.03674650322777055,0.04280104216040346,0.13769479385351677,0.11209539195755597,0.11716610563592005,0.7824621732408232
0.08078410842438549,0.3434778594591992,0.0454495304397447,0.04647989291413787,0.13543090083295936,0.10862345097244971,0.1413279902907538,0.8140304385318471
0.06000379628300383,0.3195116886639835,0.02734632089985791,0.030668602914580678,0.12382955162867866,0.08802577390352095,0.10363327969147952,0.7827856555317233
0.049227649015748415,0.29847866866038764,0.012306018338004703,0.005323876275008299,0.09611197793040582,0.059653331118675976,0.07104487472053816,0.6566595216343877
0.065431431904338,0.2828684972318917,0.01880322028047981,0.01335074821126854,0.09854236556144455,0.05787488646767957,0.0789706038047899,0.5742502791595653
0.07187409107977184,0.3032298614815365,0.03346078489307522,0.03903394302101072,0.09862892881815087,0.06641834149860319,0.09260694152195709,0.4620766917085199
0.06592179277400798,0.2849739437574115,0.0337456836713289,0.0320137311646974,0.08095066728912755,0.05718761324140994,0.07430418125056758,0.40596487179632484
0.04026749188829538,0.269827883698907,0.01601894408694591,0.007307196988100423,0.08828578617729746,0.05507585955009948,0.057095244302484124,0.4592057462703361
0.04423488601891176,0.2938424730437844,0.007586521467681531,0.002021225174034469,0.0820455819986951,0.06959391396925316,0.051060442029942116,0.5863400257183714
0.06601524173808995,0.3352005266686063,0.0344884725920165,0.036601225814376345,0.15386691964166094,0.11437633400422462,0.14535334962106683,0.7757145053859185
0.06953140816856732,0.35121395535835387,0.03561822411820023,0.03590153298146191,0.16469126397238307,0.11712049886715295,0.15252047963589843,0.8569075246336502
0.07500162440204078,0.32029615933419103,0.03207229060958426,0.023336220778148703,0.14799124881762307,0.11169889671743077,0.1387533801721449,0.8499187858061246
0.049932385310645006,0.3195900454112109,0.0156532906286243,0.009094346272209855,0.1267793944889659,0.08279419957730534,0.10202315030300659,0.8132421074351768
0.04209497725771137,0.30854038692382796,0.007446454998725344,-6.65000993625986E-4,0.11350997058742436,0.07216166370084029,0.09421610920573076,0.6632182636279871
0.05896439229231774,0.27461141598730054,0.03112930070971399,0.030534425922876668,0.1145341223690848,0.08789086271976149,0.09990563127404414,0.4614732565758949
0.04915629576519259,0.2539593213890164,0.019667791240381968,0.00697842930562903,0.08442038267495101,0.0663009891411966,0.08198375978001181,0.33541325386468546
0.033917082270723646,0.22208624843999888,2.8186372414150396E-4,-0.0072632158505958055,0.0589916375338686,0.05399581431921163,0.0698464030713794,0.30785710378116776
0.03312976727343562,0.2665894442203162,-0.012570254313138386,-0.014831678150360336,0.06719348801902388,0.04356769977779593,0.052195285028289386,0.470128866026801
0.04799527173405623,0.2878934645391994,0.0013108340121143827,0.005395952874841126,0.11563387139621094,0.08843933449782482,0.11567756914973093,0.7016759982973422
0.07237764995377817,0.3306586603066757,0.0298528004651888,0.023271782201946756,0.17065172018001765,0.1363144321916982,0.1579505612148532,0.8372237860652099
0.0472513970422153,0.32851739076868286,0.022009243142822064,0.013772759723455888,0.17337931699896889,0.1292035690352941,0.14968337940424098,0.849486893457899
0.04170464330624708,0.2871897517418077,0.010950877961763715,-0.0031603694902957724,0.13925147923407283,0.09889121550721117,0.1187821298080251,0.804428456711554
0.04192003214450482,0.30163311916714963,0.0011975982246083608,-0.01748754676193237,0.11774951898793587,0.07638627027608613,0.09944966222424582,0.7039845608129657
0.06125097304856104,0.30444353227345033,0.02158676360724543,0.00783401416755622,0.12154054792609606,0.1052278675134774,0.12691162376010826,0.616016122853277
0.04481799192184779,0.2899621133129691,0.007042649898894374,0.004574110526251618,0.08792422134803698,0.06492037743523199,0.08894331473635972,0.4202587695579423
0.0214262003277904,0.248854944063545,-0.01567146900795175,-0.01255949098168585,0.06964088727028869,0.046882626294338335,0.05290412599952787,0.3035914880554458
0.025372945150884604,0.2404326414732282,-0.02267757842711715,-0.01523777897940505,0.05136680659255963,0.03506836690283849,0.047889987317488135,0.34881639555095967
0.02731163947509553,0.28839910954440734,-0.014741711941182123,-0.008882504581308084,0.08014883161473149,0.06417613350432463,0.07161702860715459,0.5569063460835809
0.05450154347138649,0.3179820544471233,0.00528129993856797,0.017886570939201388,0.13711898753380108,0.11171983378967246,0.14255439806112546,0.8228170131856198
0.04702010970869294,0.31741111547687056,0.005380653616482052,-6.806151004061234E-4,0.15282719316818386,0.11473245646486295,0.13714153142867963,0.8252549330716499
0.03723152258932764,0.2862863753584057,-0.005255196391798632,-0.020132978047033817,0.12455500560109155,0.08849576783511119,0.11916955026067838,0.8098390820081628
0.02429922415806457,0.302554757279304,-0.03290531232884213,-0.037868500294961055,0.10914845065474549,0.07608458391883206,0.09528670935294536,0.8016566544879252
0.02098345309909451,0.3208150070568153,-0.013607573691307662,-0.012925489836212806,0.13137809492669655,0.08372295943585387,0.09750162965424895,0.7990664081482831
0.038491691808248074,0.3066478570759699,-0.0018012940774807529,-0.004759536205454079,0.11302045806663832,0.08166221271382233,0.10481895088391463,0.6554302857381652
0.026258893249202102,0.2785214130996629,-0.01161706135852554,-0.022821679633026337,0.08060895132687147,0.053305132975453286,0.07467016803380633,0.4824753873264478
0.014554696131273649,0.25434216858828546,-0.024044323205108083,-0.041937889572054576,0.07050739789581714,0.02315593898601454,0.04916373909207229,0.4085639949231453
0.013179736612944765,0.2489972076210713,-0.04006406984082262,-0.060989601453389025,0.05539002847992958,0.020757511336576627,0.015189566862878964,0.4600279054116102
0.0347612514445271,0.29198395069002236,-0.017519542007858893,-0.011492874206424836,0.10590008925043498,0.07862006174443331,0.09494410187808881,0.6402781093384458
0.03620317498754594,0.32333795353080674,-0.0033872473019260357,-0.0018001714128524776,0.12046092485839102,0.08933969058156929,0.11453062401374568,0.7777465180790546
0.040195585562530875,0.3090319248216456,-0.014137846106581725,-0.005312991099768891,0.13301747859680849,0.08922009232271175,0.10664530641667884,0.8071116396416844
0.03823315055098843,0.33557624796779556,-0.01627354381784997,-0.018665556768593786,0.10794501422542989,0.07633188274987554,0.09870276662399254,0.8319755895774988
0.03807308190311877,0.3454351473160513,-0.009003431021721076,-0.020923402120595735,0.10916559417418673,0.07838756350818371,0.089145733442754,0.8594476225131177
0.0607774911668483,0.35314890867400606,0.011717248536965708,0.014992653402212092,0.13335684250046914,0.11091753899928444,0.1133749103028337,0.7870102042487196
0.05866823201932677,0.33257503906821395,0.014470182196528104,0.013545664509061084,0.09320615892463933,0.07683692407007656,0.09793090156631519,0.5852473620193603
0.04620862669413482,0.2909523358898087,0.002017752540586115,-1.7969428006178734E-5,0.055797912278206026,0.044588207146122036,0.05245949993734342,0.4365507398344355
0.041801571143653904,0.28474188257388156,-0.002477586846376015,-0.014745873197839834,0.04038270016856486,0.02839351612217022,0.016469502737980465,0.41538216849543463
0.046865637826701445,0.2744541251650636,0.0034916193119352568,-0.0034439864847034263,0.06431131496064181,0.03960203992290157,0.07225124443658622,0.43949193459663083
0.08122414144591986,0.3219317607153107,0.032367835488263594,0.03901216932749228,0.11246251955692733,0.07822658535551193,0.11267757610378717,0.619881041576729
0.09051192780394918,0.3508590247573554,0.0453741545796025,0.03739210255251792,0.12081697291973525,0.09873498041396021,0.11812954672550738,0.8019534085041367
0.08109123778879804,0.36434544296452054,0.03653795392271288,0.028125437299884065,0.13718728423120527,0.08595381152815412,0.10635757451023706,0.8519268136323804
0.07010936192607892,0.3452975950266127,0.02687308919914423,0.01805022192591646,0.10895096822174119,0.0720850753888547,0.08670481354154298,0.8227085843366698
0.080859078249883,0.3683990576287133,0.026694598830794523,0.025625177859691248,0.1160888387529539,0.07832927197069234,0.0887169470690514,0.8047146395538048
0.08891921655454851,0.3542990192717375,0.045958773540662946,0.05033208221410641,0.11757135650305849,0.09811996329178096,0.10117997530505521,0.747338678590794
0.08580028861951736,0.3255336294660904,0.045200333180225816,0.03886975141102865,0.08927471094750072,0.07982579661588454,0.09949668665352832,0.6303626431074204
0.07721671743107511,0.31909889568601557,0.03365753559757067,0.020102076196854626,0.067183419592002,0.027311158813504408,0.058111360677008436,0.5255943273239922
0.06294728089121239,0.28564087627065143,0.021259456455800047,0.0026844690962183893,0.04997706397911404,0.0010353078558328205,0.0233841853359303,0.44075318267576025
0.08473240082774366,0.32457057440018355,0.04358238874778842,0.030568702231022232,0.09022967340925546,0.05912970731683803,0.06405980856594039,0.5358285579695512
0.0895045746897325,0.3408479469260174,0.058641370011479566,0.04480054456664659,0.11961055873577325,0.09036662498523411,0.09465579296990195,0.7048109560549403
0.09494827898116201,0.37079396641409385,0.058277839849219006,0.03021651576536835,0.13339880126890089,0.09839805601196519,0.1079479849066801,0.8381855676787561
0.08683441094827564,0.3701136020546492,0.03288879717766625,0.028207655635246368,0.12578050349981734,0.08368602788079771,0.09916661072942125,0.8991685976285579
0.08792889984096203,0.3701569902882647,0.04133809789638511,0.025997879909629637,0.13172843101458423,0.09034791747875856,0.11169917669093336,0.9545049872891413
0.09806214313685993,0.3663035516624134,0.05734822388005201,0.048574348357576194,0.14881072700513584,0.1103615857526935,0.12858745228424337,0.8784523185679843
0.09530818990335409,0.346420792568923,0.04889477083976011,0.03833289477635832,0.12392185132852579,0.09241472668229853,0.10141684640130808,0.727168088785723
0.08207668745343868,0.307201940168437,0.039228980081134554,0.02725012861778779,0.06964663956527031,0.048754095491064874,0.05881743972575289,0.519382551561518
0.06194042747214645,0.2987412268058401,0.026098566529935557,0.015312821547391761,0.046625753449004104,0.022261439297938897,0.01923306311968853,0.3822393277867038
0.09162611866683933,0.2975197312170777,0.05165456904313429,0.04999183143711537,0.0945001002653311,0.06301629951024583,0.07396502572049209,0.4718668518716119
0.08729508508066999,0.3315768579393339,0.05422504832378355,0.04520449384363234,0.12561438063175073,0.08576996104668927,0.10825266254044512,0.6032827777507614
0.08852834607015142,0.34938860214821177,0.043167759487666726,0.0556712792028498,0.14019336440272293,0.08674773267702399,0.1156176431652462,0.8324989225040779
0.0736761373734331,0.3549394633362448,0.04270294805207106,0.018145826323265044,0.13261357695455395,0.09807999193643174,0.11807365739068722,0.8936999342097667
0.08022181592999142,0.35992935481980914,0.04087066467688031,0.03259937989994861,0.15367404269604246,0.10606984839869396,0.13277183996167666,0.9337563483449112
0.09013508222903815,0.36508822682199865,0.0610557533398155,0.058483056020384824,0.15845729584150753,0.12131220814683519,0.15015617977168594,0.8659428965960656
0.08711059415464026,0.34392130935701465,0.06288049249080849,0.050392670188660046,0.13324844598840907,0.11428477471975027,0.12543815292595922,0.7428710895818339
0.07040735670695339,0.3235204706366379,0.035617545298923935,0.030139091381646374,0.10140973613961504,0.06578702665527318,0.08173923839784811,0.6071247840397499
0.05383665515248741,0.28161613770323224,0.015447540386705746,0.009789017785992532,0.07081265057636249,0.02811030156533068,0.03186472672750036,0.4359179538998287
0.06387019850200426,0.2711762978962637,0.03295813402643478,0.018554899830413016,0.07860157443453863,0.046491876445648804,0.05327210558771942,0.42241128503378705
0.06643992025359519,0.3016908972151857,0.037498477741964846,0.02993128305608908,0.10555857256005594,0.08471974392796451,0.09172465201559585,0.5283504571154746
0.07128271199949443,0.30954345010135215,0.034165997997140624,0.029193288954119795,0.13364887486900326,0.09976247339951877,0.10681940553510486,0.7342375848704505
0.05902406853984869,0.3440629813946992,0.019400815372833488,0.012473240875502042,0.12196437105347427,0.08556200732185712,0.11416910630940583,0.8995696205290049
0.049429642193677265,0.34545723062343536,0.01570620592684631,0.002758482397855394,0.12624735872434723,0.08911793676921122,0.10099876056086719,0.9315322201780547
0.06731222330561068,0.3203991950833419,0.03991096744827945,0.029640027588310164,0.16031449939463752,0.113974739666311,0.1411693833200548,0.8754117216268217
0.06070280878963295,0.32708790257150555,0.03332353977393422,0.025000490231147365,0.1450018409052243,0.10181408403481196,0.13194354823467275,0.8156379689137238
0.041585030249328706,0.3143847783549019,0.015644437242739735,0.006200712977198902,0.11277734641644009,0.07474498933874582,0.07882321019336339,0.6631056413824129
0.028092517676963902,0.2891024336836899,0.006744860853712037,-0.006214736766111242,0.08885858663622043,0.05090369112217764,0.050883773703998256,0.5355571308103421
0.031228503523656245,0.2766817555343557,0.010393423082648727,0.003952652305936735,0.08012520187400773,0.0446673666811772,0.059918026208487435,0.42568366725218215
0.05561833874674567,0.272576998633564,0.018140191480376065,0.01618151981419748,0.0927083408154743,0.0830649133058308,0.06979171814539831,0.44615539134640436
0.04620829749601902,0.28360647961079427,0.019464141406300595,-4.511777083997248E-4,0.1178176605974795,0.07648002291413149,0.11218875193924184,0.667660441068773
0.052266052694388984,0.32604434292536544,0.010273681478732949,0.011271775143798943,0.13027356589410186,0.09324521329341692,0.10297777564633906,0.802008775743047
0.03789224361503686,0.35016829100876584,-0.004747827276868198,-0.012974552572883158,0.12408374860378078,0.06747941916881087,0.09335947112988786,0.8648568758796735
0.05970602843569199,0.35768762315593694,0.021360194033288905,0.023172650316564986,0.16277308409853353,0.12504845999231626,0.12763486044113545,0.9004594677735533
0.06921673364363054,0.3708961972499667,0.03220359147981973,0.01921319133973559,0.1630590449388674,0.12958829307242142,0.1376064658042933,0.9588996925902684
0.05216069322496983,0.3568870703502611,0.010277655055078744,0.021519725170673673,0.14255411999183779,0.1011422628492448,0.1381680257343025,0.8396480587929618
0.04689503435364084,0.31234331216864036,0.012293866327443753,0.012462035642899827,0.10464527901767125,0.07369394842766902,0.08416646003117237,0.6921707963209649
0.036243168570820904,0.29856752789088553,-0.003890269636406242,0.0036586957046601254,0.07626153787780644,0.05064880262846615,0.04800994356704013,0.5246433226192229
0.05353206792190335,0.274208873999414,0.02690755499638048,0.02412008827291809,0.09660579518227523,0.0687273751160336,0.09556354190352981,0.5354999126526288
0.05162607686060459,0.3261225566158763,0.030007332983436975,0.026351544062271234,0.1216189083908405,0.08485336866129155,0.10276844726712847,0.644008809773568
0.05137513111226391,0.33142491465109947,0.020730870251770783,0.018342001972928346,0.1231812551482792,0.0928875092941564,0.10593906355682639,0.7924718366445176
0.058946665969382216,0.33756718131644603,0.007705052091240325,0.004528093735075442,0.1203903304314302,0.08571191966742286,0.09357088725543518,0.8753124720628223
0.06372389850277689,0.3260637753910836,0.016548405680028508,0.01490140095151557,0.12653210478565416,0.10659826570075047,0.10903626824308585,0.9106786608703821
0.07249140774689168,0.348206966127082,0.03401556041019506,0.03969334455319409,0.1555133395968316,0.11532467600357282,0.141004445064235,0.872862354684489
0.07549304716659172,0.3558244911493268,0.020575290756718732,0.03740992520572271,0.1417275462198387,0.1157384132716377,0.13465964171098133,0.8432048637894107
0.0676077627810503,0.32851378942538345,0.016486344761326086,0.020120062979144746,0.10787739790749383,0.07274153328054611,0.10122967978897453,0.7006693770103767
0.057147012220262874,0.30514631556185495,0.01026187793057897,0.016224221167354447,0.0814760010792086,0.05261630058632833,0.05555313893293766,0.5628443528639987
0.08000297303136755,0.2962599351047604,0.037880235023655194,0.038626527085049184,0.09806490070044314,0.0753973141031947,0.09279738838323127,0.47584734629729747
0.07819068461618187,0.3041672332469783,0.04172712950949294,0.046354398256999406,0.10382883663097027,0.08209656798200275,0.11217065837311832,0.5387150858121303
0.08114249971684873,0.35153089259058184,0.050620349291844585,0.042316710243777034,0.1262115210909248,0.11001540200007764,0.09959191897928779,0.687810014234265
0.07291208828340574,0.3588886351043478,0.03882000688789662,0.03370934243172878,0.11600417106444687,0.10008170102167713,0.11077176246314806,0.8558967841362952
0.07937937918126334,0.37307502988599817,0.04000430137050351,0.041156964482597966,0.1404952522383873,0.11985624329489926,0.12530416543858497,0.9008403023035959
0.10299116163849423,0.37451696146542046,0.07783048427208486,0.06523095777868916,0.18932705517288717,0.1492741673285609,0.18933844143176704,0.972195053582039
0.11209246420865707,0.38789837307681624,0.07756248847952182,0.0656822583722149,0.17887416947243118,0.15460492570446513,0.18673153106831825,1.0423862324571693
0.10980496119567348,0.3819018164200076,0.059632947547571556,0.054329827709654235,0.15852541472632475,0.1185697453455671,0.14481142725881324,0.8833125706233151
0.07095528740366867,0.33588551134366307,0.0419067007479785,0.03320886924261633,0.10594744405653642,0.07658490611928537,0.09629219072096339,0.6922176472903985
0.08480363698701499,0.29623265805283455,0.06759231096156484,0.05720495808790823,0.09616381728408147,0.09083459230474267,0.09966879766263537,0.5476629592485671
0.0951723407719936,0.32731683874073547,0.06539343813121265,0.06909267139124485,0.10784098294095452,0.12066759370879389,0.11597078284714332,0.525311873161337
0.09871131075641484,0.3273770566721428,0.06285233951775979,0.060472503425680287,0.12014571215777141,0.10725385160398783,0.12961459823716742,0.6141378010836457
0.08801743882799078,0.3245072079305285,0.06048651116554053,0.04546875194099738,0.1365025241981161,0.08931744848945568,0.11432138519036453,0.7416112507511778
0.07614859959886644,0.33315501528278213,0.03486736208538549,0.03730641316050608,0.12460871063362841,0.0898763268476393,0.10622827845781915,0.8878307247540944
0.10418275090205888,0.3652118986147751,0.06486953748003597,0.06414040229815732,0.17289129308631251,0.14960626357161308,0.1559072298534937,1.002311930957737
0.11517277956074441,0.3912574236857407,0.07442571219608561,0.07935917796630237,0.19009437494285727,0.17047897301783038,0.17095176350863184,1.0644420030077857
0.09567216071479802,0.3682246448970072,0.06285118482965864,0.0721289019234884,0.17902091689749133,0.1299984129808261,0.1611286068346618,0.9405022974570316
0.07211244155902423,0.33492198519865113,0.04454808743627642,0.0447983191308391,0.13736343350676,0.10144198760876066,0.10635023001912085,0.7644042368150861
0.07946399139408693,0.3036759314840745,0.04144995944521755,0.03100291768281449,0.0964740300236884,0.07629661723388897,0.08207316359029185,0.5642388293883184
0.09779132314493011,0.31390402740293405,0.05720685282517335,0.059768152008539716,0.10780355267603246,0.10009807689767686,0.12548403732678487,0.4893691892064172
0.09025940616893602,0.2885161841424534,0.052084137982569695,0.056457471976928165,0.0996315879287277,0.09161012124875456,0.10953337267002586,0.44762135587838675
0.08544485728296422,0.2890738160396824,0.04479592555297261,0.05390663826471573,0.10667960826826892,0.09808556128253636,0.08444310645238275,0.5557907131305353
0.080694830444027,0.3272128639096695,0.0296884733590906,0.035597252093934315,0.1303215368560383,0.09669372054124827,0.09908764240824997,0.7234377514047842
0.09457338241653326,0.3544892205700668,0.05690879500094888,0.06654442711354835,0.18762686217174349,0.14902979926823193,0.17180815117199394,0.9378480330243378
0.10570764503040819,0.3688750140486595,0.0734427868307326,0.07803414390534666,0.19620972132498904,0.15840654924225692,0.20847673349064774,0.9744948903854904
0.08832674586998929,0.35666327846065027,0.06136656902887494,0.0752745727398631,0.17348707198952543,0.14705919301921963,0.17527245682519538,0.9333848615456055
0.08008858639672572,0.34505135418179883,0.046611564279558544,0.05594290239124977,0.16114418235368982,0.1250671241268759,0.13503237609370525,0.8573237725154095
0.0695567039842031,0.340669950495894,0.04212805909192095,0.05580831764139717,0.14666230055135326,0.13047161173364574,0.13382693971851942,0.7551104248899363
0.09317810614829822,0.3159516755018149,0.06908169002895471,0.0679272895714384,0.15307894175839482,0.12939356514887096,0.15687438007270388,0.6047586851537445
0.08148888559346347,0.2893331375216188,0.06123207584624775,0.071972406298502,0.133059908994959,0.12336047512132937,0.1211204059129165,0.4861189963198964
0.0759979250738215,0.2817172148182993,0.044842173531399646,0.0533643211422157,0.1168852947269924,0.10835542917107804,0.10987931018739905,0.49186235857736715
0.06839201658203964,0.3329669228873956,0.04659265491463259,0.039602078859564946,0.12835603820776953,0.09377726119895674,0.11510065715919857,0.6771966238997803
0.0862453611172861,0.3530282502692648,0.06357046820143386,0.06856101070742895,0.1872038655007035,0.1630761427364818,0.18258764372071476,0.9394991396635801
0.08367255644539556,0.3489268127458407,0.06756637318202968,0.08294799164520167,0.2080894051454255,0.17545820021808978,0.2050666165303845,1.0239448324622025
0.08124930792314865,0.3398660456569146,0.04862663634702769,0.07171367232954727,0.18768206601650425,0.1532683224109126,0.1755643013626891,0.9842227134201967
0.06466478056199983,0.3573092604382313,0.03668694292486143,0.04557252691064471,0.15468189815322814,0.1309630444897766,0.13953726788605678,0.8933152441806093
0.06850497935004199,0.3313476610954472,0.0439317900981776,0.05451845764226617,0.15421946028866845,0.13900966925020694,0.1387679503689288,0.7448706448645623
0.08158223118366077,0.32379962536131324,0.05464125067367969,0.05903285195424958,0.1416132873854223,0.1394730069057576,0.15722490432563252,0.6132673678611551
0.07384476359135612,0.2983486211960138,0.04442147469984938,0.05550212886315094,0.1099424208420727,0.1086834406433124,0.11978940760932852,0.483788163910298
0.05017965937840656,0.2691521724881806,0.03134824959744294,0.041719360610211656,0.1072196019566701,0.08725089660694717,0.09086935646420098,0.4200293384218903
0.05764306488151568,0.3100219537380096,0.043743117351483195,0.04301630208478084,0.13319618781269824,0.1005556858634639,0.12629228831526157,0.6222121010305308
0.0876703460532702,0.31976110957899395,0.05939005209323779,0.08132294886906294,0.1951057030407118,0.1580413082436672,0.18979780027083318,0.8335466860385005
0.07975462351299215,0.35160276370150895,0.06388592652080871,0.06447155649238744,0.1974036105182967,0.16728797265797793,0.21321492356609323,0.9543092735788978
0.0791036691312423,0.3505009440643591,0.059930357951851504,0.06281236854771423,0.19398954985115374,0.16834032254094214,0.18982679844184946,1.0135268017966617
0.06879346612247203,0.3729493390536487,0.0435586299744324,0.04345225552755117,0.1732167484581082,0.14791655635526238,0.1695600170875909,0.995198880952249
0.0884164976775018,0.359933838391983,0.06511139519492624,0.06711766438941474,0.1825083705357074,0.16961195236665405,0.20681736652318466,0.9617313537778088
0.080946619044317,0.3547183985074689,0.07366909843046236,0.07918998469005575,0.18296606709611782,0.1627393328326819,0.20186740546902682,0.8119832413036041
0.06866594978063638,0.3078632453704502,0.06782485672300093,0.07311620316680754,0.17028810222039636,0.13124242388584134,0.15642389104051543,0.6436820740788911
0.06282716151388128,0.2831906120300151,0.04473060666138632,0.054479283289883156,0.10871971921761621,0.09083443917534205,0.10624517235367337,0.5317445091460774
0.05898906182837803,0.297026839051983,0.043683099124219284,0.0457913385596264,0.11368034130829838,0.09108870177378406,0.10966467977089142,0.577253889066654
0.0888788997281286,0.3533462407192335,0.07157740748529082,0.07814368564082314,0.17393463123898978,0.1552043938140203,0.17371044609671268,0.7643428656995119
0.08820983351930098,0.3728801416647678,0.07865431832438685,0.08913148694898512,0.18784760678302087,0.1581806437954278,0.19433285465648553,0.8788591760701844
0.08465625150066404,0.37543760722094943,0.06703971904622363,0.08719732104026347,0.18414602340730632,0.14339565060981835,0.19040666425779423,1.0332786556369622
0.0792166049731049,0.39696209164318885,0.056781699210061265,0.0708046314106952,0.18200510414463228,0.14368347032801537,0.17424142331715142,1.0198862221250078
0.07944458299367277,0.3768887313010162,0.07061954430689454,0.07692568086300969,0.19391624088876985,0.14944367700648226,0.1688948990972473,0.9818322711012304
0.08603753513168275,0.3609674259564586,0.07222597079119959,0.0855329719264763,0.17563162816158165,0.14801353819394908,0.19409215206968877,0.837503650886873
0.09596283678036023,0.38036465360024635,0.07561914712428665,0.07767012672409586,0.144178781530921,0.12001121037143445,0.1431463722496671,0.6743609303225971
0.0847698406519196,0.3569660382359423,0.05865031195931278,0.06958467715012508,0.11139335331101106,0.0906211452799107,0.10340053654053818,0.514290845569994
0.07572822329500187,0.32007952371093673,0.05841437272588926,0.06278406132108962,0.08129546074502922,0.07656627281995043,0.0853501291712829,0.4413837016767995
0.09862200884425133,0.3270933190918489,0.06721513095874868,0.09035453095760798,0.11561453254253189,0.10666719337231141,0.13914261267804262,0.5300429033019562
0.099741059137092,0.3432558823707317,0.08173258606841322,0.090672582404991,0.15443480775147578,0.13400146991451384,0.16858780029295925,0.746795687529157
0.09842794923620815,0.37985008155703337,0.07725658398979203,0.07640154088326123,0.1793407063695298,0.12959074590253,0.17543693695694082,0.9256142407656698
0.09861467001941128,0.4004637546266731,0.07905983887720962,0.07767011603284614,0.17233939776858076,0.1475085625775559,0.17866063421706135,0.9931775819254227
0.11939300775808599,0.38159298137627495,0.09788761936353055,0.10040789163438868,0.199686141116101,0.18087173375070448,0.20247907694038753,1.0004138551385868
0.11416376645429277,0.3984476470114029,0.09085724994215054,0.10156786262827608,0.2045908497316569,0.16781757594914942,0.22362942603167835,0.9349378827625905
0.1117005944498985,0.3868962692145274,0.0935709443959535,0.08439610355426201,0.1851179302684848,0.16154378978283124,0.18583496306951258,0.7743851451619637
0.1026542191846412,0.36297465518548455,0.07981954369181957,0.08713759562846116,0.14856446624576533,0.1269647031059411,0.14932876408027818,0.57298492900616
0.10804787637718924,0.3620713653990939,0.08876978748990191,0.10626326642751115,0.13941317668651743,0.12915362763395297,0.1421194462414097,0.4737707354166423
0.12023833174527948,0.3698474023424711,0.0969418020008044,0.1122992654679911,0.12904668917425371,0.1309295884073566,0.14780845276435225,0.4088116833537139
0.12688109665712052,0.3851324712103171,0.09639373180030311,0.11203025745081281,0.13822437941703913,0.12612781559388567,0.15208525689483907,0.5031823315624402
0.1118755406257621,0.4309180451173603,0.08937365008744372,0.09041980427098299,0.16378885069147223,0.13605165290759955,0.15343957226932567,0.7166195395440573
0.1155862990250178,0.43076739194830266,0.10503898386849604,0.10628861548718942,0.19162000256061196,0.1471735128997083,0.18349559457168207,0.8297332521587136
0.13755284689128472,0.435970954567841,0.11119967969880039,0.1279312232368298,0.20718203918073336,0.17151771905987162,0.21539699021311726,0.8667301953862436
0.11453032326316948,0.4575544521560937,0.1200576697912082,0.12487822340135613,0.21953611742508092,0.18081540522943976,0.20112523196485724,0.8924263455997049
0.11062687708417356,0.4327078676547002,0.10526667732337434,0.10405263679736423,0.18655191307837266,0.1607637657776343,0.17648989753185101,0.8772345021068201
0.1316373549323229,0.43871254745995125,0.11761070962518409,0.1361877847386203,0.1988043772563878,0.16085390045853612,0.19146204202708023,0.6938193986499729
0.13717182471175374,0.4154267564471941,0.13039037117692,0.13634538512975147,0.17000751960037103,0.15323343064291292,0.15873331256067275,0.5389355221210288
0.12091090398051084,0.3896348623974396,0.1020034110756513,0.11422790117306907,0.14402870547918262,0.14449626607910498,0.15078001455756082,0.5144081852126843
0.10767166455068945,0.3892413673786172,0.095086498209881,0.10185277842414109,0.14027826765236848,0.13961303331262565,0.16408966598153338,0.5395523560042819
0.12368589732582949,0.408738114504579,0.12315727571184386,0.12486481463830032,0.19571345411791086,0.18978836750096623,0.18951647754010795,0.7117873052947727
0.133555033885447,0.420452699033822,0.12389592649321211,0.13500852675739117,0.2193873307541615,0.20281407004728716,0.23452237762660555,0.8810992163083509
0.11693185565093292,0.4245534991259175,0.10948241486574856,0.12735653017702256,0.23174459164833316,0.19996812232724687,0.21750644136476427,0.9141508774830658
0.11316461322117326,0.42292763939442435,0.09599858610970895,0.1091458992987871,0.21656571903141694,0.18161311618522347,0.20982324169942906,0.9616449285257679
0.10448823565091815,0.42050505270373784,0.08101371641712213,0.11417295491748936,0.20856296550545123,0.17132305358781266,0.20681993306434557,0.8673538586948991
0.12588067453715404,0.4155281772921301,0.10374779067193662,0.12594604422830294,0.2153996555586704,0.19352999991247466,0.21286120820953117,0.7607803070565667
0.11272286917608726,0.39215452983968774,0.09563111771316113,0.11621312791925223,0.1878198643559522,0.17682606312971208,0.17250870028619936,0.5801494479730155
0.09016376850817515,0.38589816763769735,0.07439330090284804,0.08639711704447658,0.1661709553180236,0.1300946259659589,0.14026824405916152,0.48576243609308645
0.07383567329787448,0.35615156155519556,0.050750150664385624,0.0664457792462653,0.14340722267536965,0.12140415784790438,0.11691574642219198,0.4208201938678632
0.06607883385511083,0.3566779602403148,0.04654545158224505,0.05781192778394634,0.151163036771504,0.1102608876796264,0.12687164946698826,0.48794417822361136
0.09112987782633612,0.3573179878854037,0.07305125725461141,0.07299866145382738,0.1977099901705058,0.15543758131014956,0.1753117350085602,0.7289776333776257
0.09235541040106192,0.4015086636083754,0.05408098275789441,0.07589627485420433,0.21750504945008278,0.16499424848462899,0.1861544055262717,0.859582836123785
0.07768652934460754,0.41081032078104557,0.05312728464296055,0.05596739216767935,0.20826805411202956,0.15729692053865846,0.1745062925547337,0.9064577171489878
0.062167758909947364,0.41174319020624073,0.03676582482814222,0.031810254329139545,0.18494343019266715,0.13688474978489354,0.15139647251547747,0.8772249266323531
0.07825334296883643,0.42093900486461294,0.05223384542428042,0.04478742413758559,0.20528591032793117,0.156635558770081,0.17128520273481132,0.8285089074894216
0.08061465841206888,0.3962992800390741,0.049589644491793775,0.058555575968207665,0.2059907093491753,0.16027116566487948,0.16929519493300632,0.7711083646186214
0.07065586950775778,0.3816739927025331,0.04426343045401994,0.047261984590732574,0.18797190525644777,0.13894373728158285,0.1409818907411402,0.6539272205738804
0.05173970412686794,0.35783356748200545,0.026908241331220675,0.01962075280788691,0.14677843868589027,0.11217712361331841,0.10363084041189324,0.5481879697835734
0.05491047196305732,0.3125348093918784,0.025552645450591834,0.018942446370826573,0.14566787963104746,0.11693185348478352,0.11663447024836743,0.5763433640095684
0.08866816045961673,0.34031122502430494,0.04440806303358729,0.05133601002898983,0.20160714570951516,0.14761232522970266,0.15848920204716188,0.6398895997233333
0.09260484494549237,0.3898049714218793,0.050199474230868936,0.06010727827448191,0.20955654659596662,0.1634270935150732,0.17436086087895758,0.7855289191359734
0.08647158567627679,0.3863015890905455,0.05391284496750825,0.04659380224131794,0.19569005841087259,0.16245157647156983,0.19098541125269086,0.8663710165339777
0.08031016918604608,0.39958436837036326,0.050071125923605804,0.0409007083699066,0.20498411521916865,0.14749401481618835,0.1588016576795785,0.9106300712168769
0.10210184157515952,0.42441587486070326,0.07214658460281623,0.057259760913274206,0.2167964245397157,0.17109807341127528,0.18208787611578683,0.8983303450751842
0.11570182426779922,0.4024115070721376,0.0783373882190389,0.07319278079198135,0.21769946091831407,0.1950752841057228,0.19332527058738616,0.8468709177272877
0.11449700438132394,0.38968112242607783,0.0791770519797081,0.07344551425046483,0.18158600622825477,0.1479117251386162,0.15917244831654848,0.7311623148129842
0.10247201253796803,0.3655046097906801,0.07393466656200842,0.04929322643733784,0.15480215599964484,0.11618187455871405,0.12695478115224484,0.6019606921228275
0.10460899555215393,0.3423182674579865,0.05730423286753519,0.05968158295896705,0.12720741890600698,0.11418866034567068,0.09531672499956315,0.4940551121699074
0.14544067364042487,0.35186205680596144,0.08944468828490212,0.08724407664397128,0.16740687950545197,0.1320466208323731,0.1378495804060658,0.5286656616252011
0.1388056141388816,0.39674274589192116,0.10609052787074813,0.09686241190466634,0.17760459109745227,0.15342603438989383,0.15662649160852032,0.6562970343964224
0.15099817211066466,0.4272367218147949,0.0951764344924677,0.0975101123873725,0.18574913994491318,0.16346639329681723,0.1772229631225839,0.7835942325362779
0.14815894535955423,0.4197827762653438,0.11734595106303766,0.09784201721653843,0.1937661838093964,0.15718308835041925,0.16724275469870847,0.8524226034676614
0.17390753178813687,0.46725394633887346,0.13669204657167525,0.13062322034273563,0.23766606509064753,0.2074062915897595,0.20515764339279774,0.9414687140711437
0.18537015614520225,0.45638886711326015,0.15378717979560716,0.14156267575804787,0.25191292688304295,0.2135350241504872,0.23309413008720062,0.9830968422255332
0.183095727088783,0.45289125209116166,0.1452043811964436,0.14223771387060707,0.24772113134983229,0.21258840064904494,0.21337400674592139,0.9401141417512814
0.16755872629656318,0.428228148207406,0.1379488883247613,0.12987884363193195,0.21909584423096004,0.17773066846547117,0.1742178920291274,0.8368093372256595
0.1766510426929189,0.40598959027295217,0.14892652662191685,0.14892601803970407,0.21012360570689334,0.18082442334485233,0.18463318428666303,0.7144137820640437
0.1860405463165421,0.39802381859838487,0.16355701680862755,0.16652206925494925,0.22144046069816603,0.19215064469904009,0.19846907764834532,0.5928385465066608
0.19525512072420864,0.4198400539539169,0.15650993608976277,0.16344797514421397,0.21362594634914336,0.19139718912357717,0.1922698351759991,0.6152012684577137
0.18756443119344732,0.4231084930064918,0.15418741294126964,0.1615178175907568,0.2154748791416359,0.18385741285628276,0.19033940328803334,0.7112665031459415
0.18187319337793834,0.4292793904556973,0.159431189101625,0.15614065728324938,0.25101486280968704,0.19636340772012723,0.21726885780574237,0.8719828235985378
0.20847134311732965,0.458376386760315,0.18774441157804048,0.185577897893901,0.291501416282448,0.23391322388179875,0.25197349279257275,0.9314754140132827
0.20777424611339013,0.4512989761206246,0.1850807780748539,0.17950488576108026,0.3066906496719829,0.25444626885192284,0.27311138134767454,1.024697902836601
0.1970364972451215,0.4514184139676081,0.17727951211341747,0.17163371566562266,0.2788553613556553,0.23962876911826173,0.2522877275113739,1.0301242520890224
0.17676980772252557,0.43804467521920804,0.15694629344020855,0.15114867837311238,0.25303492187462695,0.20584853691749877,0.20538974847269442,0.8843211257512789
0.18921801401697835,0.4052542012706859,0.17395605889228954,0.165442541670245,0.2515788360163336,0.213992896654208,0.20636509691553048,0.6676555262373716
0.1776002816497354,0.3854103600160087,0.16613866742021335,0.1691876353651846,0.22325145548292474,0.18164854962913216,0.17070262982797335,0.4864934595284375
0.1810371342604911,0.36500119276892895,0.1568566074128338,0.1529087109548456,0.21212172697894768,0.15636896429909944,0.1649891909882792,0.45127184049865693
0.16462040008998768,0.36448830434101404,0.14774130438013838,0.13702354881670945,0.20603267836870606,0.17101469087868612,0.164262837653736,0.4842805397383517
0.1797737077856215,0.3839131869013542,0.16605992093984873,0.15629516016895761,0.2670342386547439,0.21401365672301578,0.2175699725042633,0.6691154595710971
0.18482241587648177,0.3988602768085868,0.1653289957778442,0.18001359600684924,0.3002260327055948,0.2512443307570232,0.25990604213288904,0.8910387634876922
0.17638726198940075,0.4022416829003067,0.15404797512248025,0.16734509725051983,0.3107451307816036,0.24966037933637136,0.27023459460030175,1.0168531726978216
0.15788609348787178,0.4093065808957218,0.1421731937739837,0.148899102431725,0.2985034468854854,0.2341104072276484,0.24999901406025565,1.0423196987234362
0.16595947255596977,0.40045715334746057,0.13682635899664183,0.16241666122719922,0.3191421281558267,0.25913104362474615,0.2777218288964486,0.9790048652836674
0.16902812172080509,0.3982685292573722,0.15636944305932063,0.16697883854453166,0.3106100507776925,0.24338891695126635,0.2540229376731186,0.8624796347141903
0.15899163088313137,0.37536473238562273,0.13876875543280778,0.14519258016430658,0.28453315718006716,0.21597030314727927,0.2273293181245718,0.7106785014642978
0.12907094538766156,0.33007310946614654,0.11991892487889536,0.13301331278570133,0.24277681508246335,0.19241858604700465,0.19316197291471165,0.6202917503638311
0.13078431873830557,0.34300739916970846,0.1216104406863649,0.14426598938352558,0.24944714706892693,0.20349516526683775,0.1977026504219112,0.5981074626953377
0.13679018363940687,0.36732717968957235,0.12774624989481267,0.15014265295651413,0.29866041313285874,0.22808837666348683,0.23663256668555757,0.7531699609136708
0.14178460123187467,0.3742869681000314,0.12739212044696585,0.12775491470597475,0.29923782561160356,0.2325268695717431,0.24994959328265626,0.8986101829439096
0.12161689951440867,0.3810993819941398,0.10504568568291303,0.11583821527218371,0.29366874673083665,0.22798114947371,0.23399019299694615,1.0243389412058277
0.11540622504433085,0.4228221272190691,0.09316431111457361,0.10107792182150366,0.3044401328904065,0.2319800362515255,0.23358817182284558,1.0440010720983446
0.1318337123343468,0.3967386146924766,0.11535666728000504,0.11861442418639813,0.3219268021124256,0.25071662138571216,0.2519303782949296,1.017988607818469
0.11980561368159905,0.39289946959625405,0.093414960987849,0.09966112947554606,0.290277283890789,0.23847312363040446,0.22629397116861716,0.9194766263471607
0.10741630544733537,0.36979646064828164,0.07820293304442291,0.08968245826753007,0.26774083679995175,0.18790101058492265,0.19454280106605087,0.7759179699325507
0.09940690560999015,0.34719437301897227,0.07631503276519422,0.09066913752152575,0.2400818079011708,0.17000029365621397,0.15605350763389064,0.6210127969164351
0.11021192897337924,0.3336687459142421,0.08362024975382107,0.08254231236678994,0.23721327916445223,0.19105586550048884,0.18736868484202254,0.5208194641299575
0.10363409451408881,0.3156852496198461,0.06768325257249555,0.08326646196002783,0.24187325532463524,0.17519986224551196,0.18794105786389584,0.5987066396395279
0.08785570954040431,0.3379534585148802,0.052528035892232997,0.05908169087551604,0.25705547640659526,0.19760576884373188,0.17661378783740858,0.7808893659160864
0.1035060298150216,0.3633595419021845,0.07242329329747534,0.07285761200435642,0.278221521289522,0.19553239608481932,0.21570357869871196,0.8975997955722335
0.11529321216392828,0.37931061429094837,0.08204765897192771,0.09962450388310123,0.2960540221290188,0.24222279873178154,0.24786030672816942,0.9545401617046213
0.10790802722607254,0.38094675919911,0.07350111767174823,0.0905845413848525,0.2811424537093922,0.22241085056661744,0.24122770092717286,0.9745926665711225
0.09405774373465269,0.37637163276275054,0.056232149502079234,0.0702929880835114,0.2709225063510057,0.2087272570846138,0.21826806881743643,0.9455148661035915
0.10231032962527532,0.36431592424022163,0.07032427334587874,0.086229207179571,0.2798121665281429,0.210095238905331,0.2271653318799727,0.8898633569518177
0.11277263217014792,0.3533189769623672,0.0843710560431498,0.10017787964260791,0.269288582323376,0.20910706568063994,0.2197422434803136,0.8234814926164343
0.11348465178881195,0.35837387635384177,0.07576516090313755,0.09037493360255283,0.2388809466188791,0.18909505806216428,0.187684649075932,0.6755391722819635
0.09257377420367881,0.3165184292013373,0.06202447305206667,0.06920535361979688,0.21839054023338092,0.16213457888220398,0.13330066879019048,0.5487144897864492
0.1001547783307838,0.32287868577260204,0.06458182167425953,0.07728445789825716,0.22279541259845542,0.1825066381865552,0.17522800421516488,0.6078618583785573
0.11644031591388065,0.3639481895184833,0.07950711932481319,0.08640622938371076,0.25684520178442777,0.2021561069732568,0.2050867474478267,0.7656551874618331
0.11745692826505418,0.3777544219191998,0.07797922828221794,0.08029375614990969,0.26208145532308585,0.20681958949410295,0.21749978668072234,0.9125858340192298
0.11409201248869008,0.37197168982252543,0.07290850511147876,0.06480677123320189,0.27987937008766556,0.21415325535773985,0.19625266360491445,0.9857640745773348
0.12190225947312439,0.4112551581638156,0.07229782315219276,0.08433274212675486,0.2829978533160819,0.21762084973740042,0.23706559551720963,1.0539025148848626
0.13440757794401043,0.39829280947925844,0.08870877526329074,0.09834482180689257,0.29562873536685946,0.23400066873713954,0.23779148299033667,1.046821279294797
0.1289933856663601,0.3932933078034435,0.08408270291896883,0.09821901604644556,0.26581014189690944,0.2103789627799545,0.22993910958089991,0.951061266719948
0.11700318362234824,0.37875326188506264,0.0639432814786134,0.0752348852808804,0.23994706916421485,0.18207477162799457,0.17436540851229912,0.7708477121989122
0.11256127415797368,0.32850176563899425,0.06928905618300428,0.08580510095683444,0.21211018285652555,0.16768040237131177,0.17121423033777344,0.5520905758508724
0.12426002904780933,0.3248530129008347,0.07611557242808312,0.09491714290465975,0.19887202764813836,0.16728785888056705,0.17120589143004816,0.4760344915909951
0.1193552345646823,0.3295396298641903,0.0828502713826577,0.09328827700166768,0.20169077843790653,0.16512789160385627,0.16673800634996788,0.5315626441372405
0.12793845156103786,0.35768490795985336,0.06866097452831241,0.07512342455533914,0.22272206359891503,0.16519681366111355,0.17761583870499728,0.7262336602550632
0.14415226870432057,0.3925504371808787,0.10255699514682706,0.09263366968348632,0.25847552414636327,0.22261698451365408,0.21337378950559024,0.8950560934831246
0.14495696062066826,0.42439924949228447,0.09905377494302449,0.10786210178050977,0.3008949889908293,0.23416973215092168,0.24825575375114542,0.9875394637648587
0.14937517862402513,0.4093980670094292,0.09750742909370122,0.10536050085761305,0.27179936482678835,0.22588323813098837,0.2394683550828436,1.0143665751969082
0.12518286894082414,0.38836647050741124,0.08041408646055928,0.07775291420581623,0.27287792109758613,0.21194103318305824,0.21880142778164569,0.9899416984199532
0.13767959903876745,0.405175981533232,0.09810424947805531,0.09541254613372566,0.26208127778895535,0.21235981970991408,0.22345254395790928,0.8312411220044963
0.13258078342614799,0.36933319009973764,0.103382682239833,0.10175435357041676,0.22371106040448,0.19323653643009536,0.19192262175912175,0.5897235360396558
0.128298205127542,0.3317758402614362,0.09257327965759629,0.08810994069451517,0.20243646388525,0.16407169784945325,0.1524756668649113,0.4067278796764575
0.11759269620520868,0.3202462286989558,0.07322476567178104,0.07858717341055502,0.1717222129943585,0.12922235660090187,0.11642941880159549,0.36940720904704366
0.13930963318662318,0.37471052562299884,0.0913581988426212,0.09029399641438968,0.19774825101121601,0.1783053363245957,0.18340169221145394,0.5588732785418167
0.1406612499957296,0.41949145936024207,0.11124789454429569,0.10659275228339747,0.2619746619598425,0.2119717458394842,0.21111660503725432,0.7504861308282827
0.1397895587834721,0.4057625854218355,0.0995409471238111,0.09565007725069262,0.2648108805481041,0.22485645230887347,0.2217653390178156,0.9533175879879454
0.12515970414613375,0.4029508784352231,0.08251941757820087,0.08940975951043248,0.2712664755196237,0.2165629936190693,0.2161134628600906,1.0071046005565427
0.13467646103800693,0.40897456227637585,0.11544878276881194,0.11464195707478746,0.2993744335229363,0.24245518527038643,0.25314893093482393,0.9997527229678214
0.13715715649091065,0.41175482982926104,0.11426506102882636,0.10833923951572792,0.28523400587015124,0.22678617359735517,0.24744957702571665,0.9221998227135065
0.13564754916213018,0.3855476851692489,0.09770939988138584,0.09675203466264035,0.26395474297750854,0.2018723906330378,0.2237699405750146,0.775470250326222
0.10663594356802393,0.3431141601383638,0.0822849243628077,0.08341468019052997,0.21463618823450362,0.1666864046500351,0.15925905441568822,0.5816911366375204
0.12995018875217554,0.33747703331912654,0.10768245731886851,0.10876708372859145,0.225237456487972,0.18231380734364383,0.18567020778479496,0.4811487498998315
0.12892267946702166,0.3374136857852146,0.1023076876895791,0.09890179450164499,0.2274459941185512,0.20021811321348643,0.19557826821853563,0.5877931456467398
0.11497342529778762,0.37165439487561147,0.08710905943853477,0.09181697079726184,0.2466242085174185,0.19570084333998794,0.20580421939919913,0.7700648876497249
0.11310515560090525,0.38112383758160717,0.079869843933465,0.08891116040769229,0.25679822341495473,0.21784091163661648,0.21172385545546782,0.8852725148916647
0.12013400357314113,0.3898875470549126,0.09807689340030443,0.10501611988944237,0.2991837632973956,0.2358675385323413,0.2589915212412919,0.9345072825452431
0.11450674693522951,0.3763331339677835,0.09687815910050976,0.0958393915400863,0.283487079101967,0.22495193407777006,0.2250669839030974,0.9252604303876177
0.10146138871709148,0.39439908914481825,0.094839259460526,0.08249835940221677,0.2680245228543838,0.20560975549412996,0.22664172256287368,0.9649942155642068
0.10881084584503287,0.4007298659262744,0.08576282723301532,0.08662778852528319,0.2634182252099697,0.22194531477880491,0.2078137570158209,0.8709282300801041
0.10760556680702615,0.3829556834524719,0.0974094905491508,0.10418227261978297,0.24295682624880346,0.20991860470150062,0.21122535694480685,0.6864199199586722
0.10684716942854305,0.33510422684892904,0.07963063285207038,0.07786236690921662,0.21379538297875636,0.17776410215109217,0.17839173277190382,0.5217858511451237
0.08336909288298411,0.3483567382377921,0.06699582662673062,0.0702012532172004,0.19855379228613756,0.16210956891247316,0.16434437935299645,0.5335369055721462
0.10102203744479762,0.35918882776991323,0.08050250230787692,0.09165404029408111,0.23568359685014692,0.21127002512132112,0.21002242376636635,0.6587034726668193
0.11212529532539327,0.3583090464467209,0.09011610492329915,0.09507259229234034,0.2667671025991004,0.22106643242348017,0.2214497876805137,0.812734586136141
0.09397076198101828,0.381951510288119,0.07207971295168593,0.0798424936954895,0.27111111964506424,0.2133341425120354,0.2205471129186433,0.8789766021480961
0.09271170398363326,0.3857522232827222,0.06657193589941776,0.07835912293849966,0.2636823573008756,0.21143424597283245,0.22484357717507586,0.9761388139211304
0.11770711618531558,0.4228028103177054,0.08555597282208607,0.09996485124047769,0.30237000777029943,0.25441537098181943,0.26909783006710314,1.0538856027534627
0.10446529314766088,0.4181334341322237,0.08602291964905476,0.0928916379709529,0.2888345143864013,0.24244583367379632,0.2470192990485266,0.9752318574785005
0.0944411038430005,0.3745096328124286,0.0667370745965369,0.0748507343048574,0.25128245512174224,0.21113677594577307,0.22143661805602693,0.8637873991483553
0.08204141951012267,0.34543672069414,0.05757977737864468,0.06834984233924338,0.224444796625684,0.1753559626621319,0.18460943862005486,0.6843025570161094
0.09088592288934294,0.3637847324469694,0.07626885586565951,0.07900915586125684,0.22758090527935773,0.1921919284569981,0.1906288643521478,0.5945302553112417
0.09852926930663869,0.3176515110413347,0.055006942125628795,0.06087544317926309,0.21123249440837413,0.17360778356652418,0.17596902294425923,0.5704868287481714
0.06832285593921644,0.32506180341832674,0.05005624758553647,0.044052226654423765,0.20448444991949127,0.16760887892541812,0.15123423142411424,0.5996216849036344
0.08447171617630804,0.3480015008058006,0.04872818397432817,0.04955781827100301,0.23531869384557816,0.18056691636458547,0.16962489159698443,0.712939677022101
0.09667016731037494,0.3922231020853275,0.05476868251150472,0.06943305043480433,0.2635942420021767,0.22136104524585412,0.22155829227357612,0.8779519215255386
0.09974541693660237,0.416345147508678,0.06566384671678693,0.06240297920454299,0.2810000900379633,0.220797950218123,0.2482026901332026,0.993755931083509
0.07780752102912536,0.40759384636030077,0.044822537404782384,0.061284321445545666,0.2485537998975904,0.1906135087749546,0.2142195667496426,1.016408145968292
0.08916539545162075,0.41256709174789097,0.06109938715997999,0.06525076556904343,0.26731093084919,0.21774946018216296,0.21008265944848284,0.9524350446443085
0.095113769151485,0.4218068008180365,0.06035071932106391,0.06833437530639044,0.22879529707174898,0.20289667019789923,0.21026597695995888,0.7890591755071062
0.09503751427037381,0.4213963076313239,0.05522277315805792,0.05767830069215782,0.21363204767336627,0.1718453947704722,0.18110570848790583,0.6155906787580434
0.08360280415802047,0.41840233191789233,0.04944336513960089,0.045042756739241165,0.15924290407253272,0.12944678955119893,0.12599628501921636,0.4175957629783094
0.11407609836129201,0.4486036248006149,0.06844161342136854,0.08621188092031429,0.1580654548632176,0.14122135093137433,0.12488342378777972,0.2859868977656133
0.12086835780730647,0.4762151898488665,0.06816327981663321,0.08123573237123922,0.15549098873956763,0.13965138321910991,0.13393356783140603,0.38073666064082157
0.10962006211211155,0.4927371838345655,0.07016238183415517,0.06625601889863812,0.17659217059579554,0.15697010438157652,0.14424893885801054,0.5790191318673936
0.10849437800752224,0.48262233267588694,0.06635983564548976,0.06685119091024197,0.20859116141276,0.16518053472805902,0.16352882788698783,0.7368390145016702
0.1267212778016521,0.47656353790801753,0.07545185438345468,0.07572493397275869,0.2491259853884909,0.20471783914896324,0.21255655388516162,0.8674144116458793
0.12146644588003551,0.46141660448185634,0.07137433075919243,0.07243253446335932,0.2518873564941848,0.20553645586268332,0.21030164278990732,0.8744849680851646
0.10101223286475654,0.4529565808393963,0.06069791008935634,0.03827539999077458,0.20755504694794202,0.17170706752549153,0.16337001429858486,0.8019581289252842
0.1139258049410437,0.4287162723473436,0.07521553707298033,0.07542598883741712,0.23005347073198124,0.18525660591106147,0.18992645180437429,0.7177882651386611
0.12212177691558393,0.3971837551802755,0.06635987198012389,0.06631060224709767,0.20076843342620604,0.16713264324169994,0.16231850721556976,0.5100766107358294
0.11165700902324889,0.36907643612843233,0.0636627779882312,0.06418566092821672,0.16372417231962114,0.14365535222240028,0.1243642317037211,0.3575264291801218
0.10718423366297528,0.37517058293813466,0.053627753649619345,0.04608314836615378,0.16372425833268592,0.13528314836522795,0.1270846995355284,0.3836633375467214
0.1371402433480913,0.39267203329078015,0.08830809942005563,0.07591455761737098,0.2346216232508063,0.19047713637323066,0.19930724189219393,0.5942000620477844
0.14318672234777577,0.42711438926230805,0.0777803322210664,0.07818295203823138,0.24842745186906565,0.21373554527212515,0.2267284911067272,0.7838362992095083
0.12867882399192268,0.4371766712434374,0.07516813248306214,0.06722519978201505,0.26384841271154447,0.21799382337737128,0.2203262479628793,0.9230375276676731
0.13809937766235064,0.44024643849734263,0.09230467321012666,0.0866437358167471,0.2880032838649996,0.2354864792932801,0.24894052094087438,0.9403624180672077
0.16062553998593881,0.4710407032346217,0.11339534734765423,0.09308395963756821,0.3002889908757957,0.24940597811324092,0.25500864960217307,0.9379961987527596
0.14121163648048185,0.45485573585944755,0.09449905636333596,0.09111524460408407,0.2773454947879845,0.2344210052648243,0.246566842884802,0.8491961058935662
0.12804798001509207,0.4379252178533442,0.08441748264520413,0.0709044134485678,0.23298346709813883,0.19718577851025418,0.17714943030964758,0.6634816948995599
0.1482672833310368,0.40618344497789716,0.09820972665379517,0.08691272616870196,0.23807673174746405,0.19674231404683196,0.19219968442356336,0.5214089763624346
0.1386825765750203,0.3830576425377463,0.09761461763198459,0.09566124211453773,0.21748416339523724,0.18751268985923064,0.18887056428156407,0.39047643047707814
0.1310272784736477,0.3692163782449667,0.09189851738565989,0.0798665901334582,0.20783968452752932,0.16924280211769055,0.17115141954586824,0.45556152028650937
0.12291561724365443,0.362961614557124,0.07948439277509398,0.07962712734399896,0.24590653801489895,0.20250558440675592,0.18858145122516254,0.6531717548581679
0.1495154748848579,0.40221419245650714,0.1209978405855062,0.10268872742431293,0.32037396697384274,0.2571949060576743,0.25483861917818185,0.9188536001673475
0.13976859199486652,0.4140022818863587,0.10945120413946408,0.10048005825313688,0.30005504214477996,0.2531560686938352,0.2588784707151551,0.9830968959184687
0.14007647761685899,0.4162306044859431,0.10060148056256706,0.08251127510859829,0.30242535508653484,0.2445807970377609,0.22757884561786065,0.9467534863898118
0.1317893637619842,0.4356145024460666,0.11609403059540875,0.10883088525874315,0.30520452483694116,0.24564894832915643,0.25958012071963793,0.9120726838853519
0.152418692698969,0.4293813953170875,0.1253432130236977,0.11211702510600427,0.29704874519356483,0.2554428858220627,0.24118862888636564,0.8103077752099289
0.1307253411716696,0.4110579799812548,0.11903036077492603,0.10198510755700825,0.2616160519646739,0.21789206383865134,0.21649099272771655,0.6213968618141474
0.11983206098683509,0.3783951141550929,0.09020047222040084,0.08066783836435512,0.2243520360475779,0.18191417422513223,0.18064690663357935,0.489426422066315
0.13426588414871776,0.3491129079100495,0.11146905641215576,0.1075447701092136,0.251980964977442,0.224327830863376,0.2101268502408289,0.4800675124446127
0.12345005729558604,0.3461825649566176,0.1163713104036781,0.10230116323940809,0.270609626766228,0.22245999411924045,0.2080607193407626,0.6208673688071452
0.11604978362908897,0.3836798507105202,0.10309827859827056,0.08478859755553483,0.26589415476696604,0.2217646289218106,0.2175742007690096,0.8213150319766146
0.12834716061131746,0.414748402579073,0.10581963936678501,0.10153733423756894,0.3035917993223417,0.24293822642404395,0.24397796898268775,0.9428778112285767
0.13204344433120754,0.4289052079899818,0.11554398317736078,0.11737646607496029,0.324535073410303,0.27930193678129134,0.2594676419495917,0.9820306822346139
0.12034783814709166,0.40054641106042416,0.10089860900745617,0.10828041895703966,0.31254014738814206,0.2725814336611697,0.267536922404077,1.0380647156320673
0.11144048384313468,0.4149735950895703,0.08799024571875139,0.09189564780471886,0.29075847871829164,0.21908579137400072,0.21902639969410637,0.9587009213063592
0.11765209021687076,0.38413170461813145,0.09616032402371893,0.1183439530528708,0.2870079286893396,0.2381934680405625,0.22578791438267123,0.859009287721572
0.11578480465108143,0.3620642867073492,0.09453783266062167,0.10069635349750043,0.24295357113157623,0.21174647058565643,0.20839008146855903,0.6506387274736699
0.09490461231091492,0.3341496038720037,0.07258279640673644,0.07102287430230861,0.22738655676638503,0.17319442512971633,0.15826040309478004,0.5324146683571098
0.08744575687403576,0.33627005462519477,0.06444585645277341,0.06219689743991078,0.20130388067363603,0.17501207163325883,0.15359564910450457,0.5380305314577507
0.10400926402980244,0.36266128167365663,0.08986027155197393,0.08641327777396468,0.25140063010495384,0.21573068913821905,0.19485825990391026,0.6403522258480951
0.10428577265255655,0.38823295938265495,0.08303353312276002,0.0797439629457704,0.26342365798086986,0.21784537359497483,0.20333387356750787,0.7930208765551261
0.09932703702230503,0.39720288768589285,0.06626584738187791,0.07196434286922723,0.25972100670549453,0.21696584340453998,0.21117731930303701,0.9182766725138957
0.10053107272109107,0.3990323159475196,0.07901060145343954,0.07838837964024059,0.27229868911149085,0.23442770739269342,0.21080757171033573,0.9894471972447012
0.11452047254227417,0.42142558633721505,0.09141839189106973,0.09329394188460621,0.29779311163457695,0.23796152302163867,0.24142888133739338,0.9932268888647977
0.10445067401462595,0.3882215230159023,0.07243606018685199,0.08516743057577197,0.281924980848933,0.20909244451993306,0.20476728480082676,0.9291027916893251
0.08590655965913314,0.37499304065131484,0.058599844180958614,0.05779678952691576,0.23258058546443794,0.17639497782777439,0.1751514072301511,0.7422950692365644
0.09270267881830252,0.3582544000873612,0.06666852314143057,0.08118477259639037,0.20551540180851166,0.1734441326580201,0.17422793945573534,0.551419250607778
0.09694113292543634,0.3449639869701487,0.06657457207233744,0.07193681744446571,0.19193546765355948,0.17220927114422716,0.16279750381561633,0.4151233321091394
0.0810563325999344,0.36260923164571396,0.06461299307993587,0.06505843876938128,0.20288551386089743,0.15972840469786198,0.13946847888292885,0.45511945483997485
0.07981981589724081,0.37327410426138696,0.04757265471349072,0.06053070677796684,0.19080121589278654,0.1552120160000503,0.14637340493871703,0.6429477500621774
0.11358578871515143,0.42332917096868933,0.07607692424248971,0.07074610223798757,0.262634209413605,0.20860891636822265,0.20139991535471344,0.9009023406504671
0.10787782176948754,0.4432375475142575,0.0654153475972912,0.07375486203381502,0.25021545180411825,0.1998937798955877,0.18784110248946112,0.9045493873117494
0.09997489525813966,0.42604994320593553,0.05745891866173791,0.05054721754281083,0.25362664718027117,0.18785731897444474,0.18597196327513993,0.9390120103358597
0.09831501696376485,0.42294146987779124,0.04927469635550147,0.05459440163250977,0.24225754494759427,0.18560652316003123,0.16549406160481547,0.920583693085495
0.11360428089353147,0.40818601439297564,0.06238541909710068,0.07163316843219913,0.25480868862033496,0.19820466664945385,0.19064987682587298,0.8414351435167904
0.10678218838084853,0.37132843214825917,0.055264816768060984,0.06024322090826452,0.21119090808719185,0.16640169450815312,0.15842479124939235,0.7050886846765863
0.08392406596684841,0.3615448812216604,0.041824029996652384,0.048801159671462875,0.17145913576992583,0.11817487113091842,0.1035586887466225,0.4332669071610853
0.09673784176316835,0.35437413706845067,0.05043024003759147,0.05081428501350191,0.17487587279115313,0.1339861205017947,0.11488607994986896,0.39409642044771015
0.1217106218728326,0.3577190216547138,0.06934261269619016,0.06385937135735606,0.1962744669853329,0.1531957417250849,0.13667075158367128,0.4430000899563321
0.10699538666654461,0.3890648852144357,0.058612507568867975,0.05717515148826142,0.21952217619551426,0.17584723218692222,0.15287533787119784,0.6761756934050489
0.10960577649011743,0.42371637550124935,0.0461880764973261,0.04979463955495766,0.22796809125482206,0.1717906948817829,0.1563035817771327,0.8043468501552147
0.1360269866052442,0.4459837689831594,0.09192708867308128,0.07998423232164455,0.2650554439920512,0.22297887646444295,0.21667698690377252,0.8781984892928406
0.13797423531568723,0.43828116884322527,0.07620298668835154,0.07569309955519897,0.25988193158670725,0.21378291015568401,0.20230467649304698,0.873551226181404
0.13172960478509488,0.41117759601980935,0.0702993166533005,0.05761426804536489,0.24528062192260994,0.20823117752206785,0.1747193841214828,0.8706292757051051
0.12777647759619162,0.41729684597690875,0.07711828258783739,0.059695696130115106,0.24438934863662024,0.17631764603168554,0.16553383323231513,0.7517358721700296
0.1478710234072297,0.4096193030609649,0.08477243090038261,0.08330416965262115,0.23643596176051565,0.18905833802726496,0.17751618581325335,0.5971943680881068
0.1410154246126178,0.3856501116233298,0.07959841261181161,0.07506778084908425,0.20539729487043967,0.15015457859769962,0.13499675413962414,0.40058991372260394
0.12465102923350017,0.3553394481272304,0.06457237037575717,0.056776212701230754,0.1841921529041164,0.13159173373149646,0.10633944760464462,0.39875009425176616
0.12780847727872838,0.390314124318736,0.08505392000424097,0.06781100898113167,0.22184447802237617,0.15351156034375285,0.14118970638670814,0.5393309746974086
0.1579292931774862,0.4249656985744373,0.10644552683842534,0.09051696499662916,0.27907428676135143,0.21366724206140117,0.21456705934339387,0.793869394620413
0.15190808519016702,0.41590014327217895,0.0925829346527633,0.08831575832211279,0.2842846198128505,0.2313353664779795,0.21757778790852528,0.9248933450269181
0.13170704845494663,0.4047859762885867,0.08804277460414589,0.05675387735324651,0.25923394450582044,0.1986962649936845,0.2026208255386351,0.9397152279569322
0.14319618301036263,0.4224307786287954,0.09379115845966607,0.07806581797756666,0.2704197033390341,0.2295793244767219,0.21598380666227993,0.9068283532940069
0.15157038227288755,0.4405666389415559,0.11211767202919704,0.10446451384317719,0.3003618891777967,0.23434828850569378,0.23250930020005384,0.8858507469152083
0.13951430366605874,0.39006131697605934,0.10492480269620408,0.09703126435089264,0.2703816706987157,0.20123689646403264,0.19566308896602574,0.6979283344842001
0.12992535187233056,0.3665498944253824,0.08341908055339076,0.06480438275552791,0.19929201326024032,0.15250899879122912,0.13299411598609653,0.47285750595987114
0.1319217019555767,0.3199631157974416,0.08642100958393326,0.07204021177086442,0.20017397393309336,0.16139295908469822,0.1401706949372411,0.338913250578679
0.139939707273899,0.33686061215652124,0.11035044676402642,0.1018714684159734,0.2402215640233166,0.19858057251576328,0.18950491743916764,0.3989396117048743
0.1493196849927008,0.3851230767210386,0.10449190664899341,0.09902152310550985,0.2572030908024625,0.19914292215111862,0.20653792733830595,0.6112296831088668
0.1314510630880271,0.3954775607581423,0.09798042021457756,0.07635952771510984,0.25924668192858547,0.21192803282996625,0.19045288435257374,0.7386900087017041
0.13472726898558193,0.4198667339195517,0.10394266958039003,0.0813422910265616,0.29365194429697206,0.2198953800492157,0.22399368767612404,0.9315436699863474
0.15242095352897012,0.42565233909281186,0.1295539421752394,0.11263408050912203,0.33173755732378696,0.26373529653645067,0.2662314047055959,0.9515974144915131
0.14387949773462366,0.42332612808643005,0.12795473728335194,0.11645980941772223,0.3175871141628392,0.25500318305598396,0.26608889598943547,0.9305048278042123
0.13079649715223932,0.40171186395718167,0.11872755503747628,0.09234109562480639,0.28055592288995884,0.22471722403305117,0.21053174593565233,0.7883563951321791
0.11586381033215827,0.3744097392322208,0.09466716170230993,0.07024800844810755,0.22380882763228135,0.1787842901964647,0.1564063027388529,0.5756709629015293
0.13314851970823158,0.35067522018678404,0.11960316707341524,0.10629852425601036,0.23012610757329827,0.2031910802883278,0.19014857413347283,0.40416729042416927
0.13176963147440482,0.3520964424934853,0.11869383969208466,0.10065775778534504,0.2282777830328666,0.18715141046969097,0.1753932975917305,0.3891552671744759
0.12992173367637563,0.3635432225047116,0.11259006054592598,0.0948220383498299,0.22905948608971705,0.19916154270925873,0.17943148094192674,0.5344101284883336
0.11168347075031736,0.39519281803784345,0.10441579572221232,0.07872660392451576,0.24494993267240214,0.18606466030004346,0.17877371359074923,0.7595995901659385
0.11578016824425438,0.41923556454561955,0.09093481241774529,0.08483463724970909,0.2656535532484382,0.20914017364292342,0.21040031024194567,0.9129176101364112
0.1387192849280918,0.41970737903632466,0.12788119403251058,0.10220217590850614,0.3117369172378468,0.2468039428696277,0.2618303137568296,0.9410955344001687
0.1291261111929008,0.40669241077527923,0.12004269771445678,0.08808550833081823,0.29550713438551157,0.23328177069740763,0.2425182529341511,0.8998988814773613
0.11703229714724783,0.3893940022412619,0.10197885642938598,0.07158640199158638,0.26419906150567507,0.2156197777013967,0.20939141175515064,0.9077881424699141
0.09237278984161709,0.3898287842839817,0.07974795716570743,0.045027342331098646,0.22192146508896726,0.1657869866655285,0.149279262914161,0.71150237231801
0.11911482640687576,0.35630779895607145,0.11678389705460396,0.09417684299593423,0.22965497259636608,0.19944220583342412,0.17489055228371386,0.48738574712804456
0.11347557259837313,0.3467099355130239,0.10158774884511192,0.10316285844679615,0.20700998565126433,0.1635803190654636,0.16882544074079237,0.27649247019588513
0.10234142540792969,0.34026158910897586,0.10226200258700262,0.0901162030775286,0.20101726456027447,0.15513622798559268,0.14908751636637918,0.3424665228406397
0.08940775673637832,0.36240862409506,0.09251448458397481,0.08465038199345108,0.20101077813821444,0.1568908676776115,0.14177946626498894,0.574273844873703
0.11547800636810115,0.3969221517109213,0.09788832166118819,0.09941957970845208,0.2526448662829992,0.20663652661789234,0.20052636349888608,0.8589005929364322
0.12964372101648333,0.42485723264480924,0.12757821430687405,0.12610466682051405,0.3223668520960776,0.24827121760628368,0.25904784337609654,0.9479894831765376
0.12028642565481075,0.42456597557982567,0.11889412663253485,0.10990562467470638,0.2953628992540552,0.24728634434763588,0.24438904365231823,0.9115244685604484
0.10555949457799327,0.4254556180530385,0.10566495652989195,0.10914265944660696,0.27644903474910537,0.21215521806567367,0.21986868928687675,0.9209350960574001
0.10518102568096466,0.4194899788815022,0.10883260712668957,0.0983851566282036,0.25811875390616645,0.20446395831037667,0.18823750693602265,0.8449592683700143
0.1435669466642451,0.38745531707503145,0.12122049922244404,0.1267189034826261,0.26826441069987134,0.2328160688166172,0.2247420790136114,0.647428994877499
0.13076711786220627,0.3860603032016441,0.13057030300470543,0.13425707569168463,0.22061839629927432,0.2051150661179863,0.19561517153071242,0.4753418902423111
0.11415774214723291,0.37751703426314864,0.10827426071396376,0.11911972250804614,0.19957180394264257,0.17097277845328396,0.14122883706369566,0.3637798814203063
0.10161863731089033,0.3781580497509751,0.09154418343023982,0.10149570878519237,0.17828283393052627,0.156387738117642,0.13462407523304287,0.4680449696282525
0.13225247026647685,0.41239294398450366,0.13044351935932574,0.1444645333269857,0.2633864592865184,0.22107015230101212,0.21484614720663564,0.6431240067659977
0.14564956445738594,0.4459086600269555,0.13728554619198696,0.1406408843006108,0.30126049304211827,0.24859922070470306,0.25378130659733017,0.844684652481929
0.14304761226045043,0.42262350612046634,0.12368349134639618,0.14364463607766811,0.30143795998051576,0.24695948391487876,0.25350000910853054,0.8880560257556172
0.12415778548580347,0.43125451198081355,0.11173162912335108,0.13395615645948492,0.26051941908868065,0.2079957860212531,0.2124501240945365,0.8977581006272144
0.1517768099985568,0.4316401037629835,0.13376599878459633,0.14393854858368085,0.2735351857304773,0.2187570375807017,0.22846743347793913,0.7924789661849937
0.1707644703950921,0.4569191372981769,0.17102422584381277,0.16687319908693857,0.2724800208101469,0.24795094968727566,0.23564002640755366,0.6355757458892614
0.16470051937159694,0.45095750566669557,0.16089153787126373,0.17181811688471188,0.22015322753025934,0.20695563792170538,0.20618133359105983,0.4728866163372447
0.14548307682959583,0.4131731771820957,0.15693707561427925,0.13855997630697298,0.18314289008828044,0.15742557375627256,0.14303861170677348,0.25678480538315784
0.15133392642061402,0.4435292644902678,0.14009048331988447,0.1449370530925755,0.1794128829281532,0.1759069015459033,0.14049141633527035,0.29093948202863085
0.18310892024526804,0.4538409522160345,0.1783323510231668,0.16926584658143132,0.24278453507900438,0.2363212883074967,0.23250166546833223,0.4555367920810472
0.1768140331228288,0.4885236472011574,0.1748932597805695,0.16530477620968115,0.2851285238061904,0.23460328451416929,0.23997335926891694,0.6473114295991277
0.1692893673025868,0.5089798576907352,0.16314647756158973,0.14952825394237795,0.2642883826851974,0.22780790379265886,0.2395476047826199,0.7273848245085787
0.16758155474131048,0.5090227934911135,0.16513651427154105,0.13404041751579354,0.2651213110712596,0.2241998920063604,0.23378826342520057,0.775327491426221
0.19066074853288412,0.506745119420416,0.19068122958047953,0.18594652412937587,0.3180072205282601,0.27881635577523567,0.2754514868120791,0.8201510468760624
0.19681810518910245,0.47965312113586717,0.2030089875079601,0.19885699169396084,0.30838511375444283,0.2606485315380346,0.28883269175821996,0.7359534393260232
0.1786918802151983,0.4610542202947806,0.17636454166139237,0.1997408581271745,0.26007105347386256,0.2305151967603161,0.23650402189714534,0.5740245264087269
0.1664103425622209,0.4498891049352406,0.16079481216628327,0.1786376234251693,0.22531848670277826,0.18517102208155672,0.18041632786232725,0.3797094914826867
0.18890380726835077,0.4134377780469114,0.18180438793514558,0.21505987458562267,0.24979076836962996,0.22256480516057908,0.2236642605268521,0.33670852060716433
0.1985028345856445,0.4175740157900024,0.18192642959122562,0.21291964464955546,0.252864218310576,0.24627707660825693,0.2476122441682238,0.4197097016446637
0.1898181634455792,0.4509424323610557,0.1783111893952763,0.20052668509439675,0.26984590379966367,0.250991443250578,0.2611587587264339,0.6049311729426377
0.18366486222869896,0.45637505995551847,0.17467560864431866,0.19552846154372994,0.26610124002329805,0.2336969223599989,0.22607578934136097,0.762923107063202
0.20264252689579046,0.4788348911486008,0.19708828684601554,0.21520615855327344,0.3146612369792424,0.26849589542868907,0.29675578047915174,0.8587144859180729
0.2151812805386717,0.46492555557364784,0.2132594239796367,0.23734874781173199,0.3391377734837222,0.2985456346484466,0.3200618118290537,0.8478802636685907
0.21418962874822578,0.4887907175754703,0.20319098149208684,0.23315442581976648,0.31944685400043615,0.2845415690710746,0.31232133436914844,0.8147042931043859
0.19418445201142304,0.4734835488223956,0.18822438512906542,0.21048137027555958,0.29591122217624183,0.25382839044380157,0.2595702230862259,0.7256769377374687
0.20102613633509692,0.42915507677392495,0.19542392554838586,0.2130634768231513,0.2774867807105788,0.2453619194185836,0.2481501791147887,0.5718923924641494
0.2147645610088345,0.4438867085080328,0.21379135091421902,0.23682335229869766,0.29197164225743844,0.2632876158192205,0.26542607538287355,0.43986818049013426
0.20173326171792108,0.4354317548580049,0.20370254765705403,0.22479775653564743,0.2867179450532309,0.2409674165023981,0.23856034413670724,0.3753996935616109
0.19621360447432584,0.4174958115315561,0.19936360674899653,0.22341688283129177,0.26912286997678436,0.24381835861104748,0.24154169925284114,0.4560710177599135
0.18945240035639863,0.44611507799952504,0.18475455611008137,0.20539896701022897,0.28666683399922377,0.24620023806931424,0.2540725103034532,0.655385021550394
0.2292349084815837,0.49597663156840205,0.22671911018650592,0.24689810386633304,0.37288288518794366,0.30151790513117754,0.33611882095185924,0.8553364331330345
0.2346479196806603,0.5044125189414408,0.23747740590305166,0.2566322113669877,0.372566007048655,0.3033162031117163,0.33958909215377797,0.8942670249681902
0.22200726177351573,0.4804255750738443,0.21279613104945222,0.2512833434731341,0.35260316691261306,0.2928361211027137,0.3172265125285833,0.8991807784143837
0.2123030081363164,0.4680974656110067,0.1926578216695563,0.22779122041606417,0.31717515388812184,0.26381357777151176,0.2922701741574266,0.8161859047261005
0.1989143746007822,0.46182726118499196,0.19245669618053393,0.21162746961934634,0.28009233121520827,0.25079357707605665,0.25458525045932123,0.713338615165262
0.21514336791427408,0.4183595350783653,0.2192742153016909,0.22729253992747622,0.31252631408958625,0.251443684116151,0.28659355795423624,0.5689517505417941
0.21164101809645847,0.3995132244104813,0.20090330304694043,0.21664188208800117,0.27629493946945305,0.22023626298723673,0.24393200211173996,0.4204154267982126
0.18328145393195752,0.380646596442244,0.187825507256206,0.20693897319784874,0.25373859676580446,0.21231003417840127,0.21299788949632964,0.3834085382835159
0.16816584460068434,0.4017416127503444,0.1791901873939809,0.18610886536522525,0.24234797815764608,0.20325814902394168,0.19800899615780437,0.5353321670382738
0.18881565998799527,0.4416573436817559,0.18720078798962092,0.20528661705455536,0.29413440149051634,0.23343217271773728,0.25242326538803767,0.7081715221857573
0.20272825011917853,0.46545293818445627,0.20771740858228976,0.22340632719554987,0.3315232135501685,0.26891325657170345,0.29688066197140384,0.8011003788227624
0.19332576971288212,0.4502761668390737,0.18620608502166705,0.21666446950189633,0.34153196959418775,0.25252625104148957,0.2923135228277843,0.8452837415836032
0.18512744744095716,0.46833901905603237,0.18647776973629868,0.19453177561216922,0.29578051359403745,0.2368323105500556,0.2527242067588857,0.8787735948233213
0.17135552253645084,0.4664657891147821,0.17020285954672626,0.1889510600994237,0.28113407394315976,0.2186814430737581,0.2324808460478543,0.7707297529062799
0.20881964587992924,0.45648524701934545,0.2073853834891576,0.22495868806909236,0.30528182350688476,0.24368215007383917,0.26768177184368297,0.638347537449898
0.1913519246111058,0.43229865986922056,0.19209963039696634,0.20410516548039814,0.261696728637556,0.21272363040433406,0.2251694577237874,0.440765717439043
0.16945628091577722,0.4172060698564225,0.1717970995818027,0.18321883219806484,0.24929495660712267,0.17933586525096112,0.19452502383513937,0.35760439874947386
0.159857365037748,0.4371882234319943,0.16336616516747976,0.17450396749244204,0.20294137426300304,0.17384543260992436,0.1655197385378935,0.3771550436747318
0.1757511393273334,0.41909238710194013,0.18148573363733542,0.20682954802876669,0.2622772727574218,0.2153842569870558,0.21850254565782534,0.5901442976943638
0.1976199886010485,0.44960995491341016,0.19541767188387177,0.22238674506160883,0.30772708370854973,0.255715193567427,0.2571701258191874,0.7262227841017469
0.18961295809621706,0.47191079501911515,0.1907124975953603,0.2116421812180524,0.300881770838333,0.2549138762855834,0.2733827282821431,0.8598084006605452
0.1813532099331924,0.47525606841309576,0.17321235498283657,0.19451405025525936,0.2952987281560822,0.24259786666976013,0.2362512690741832,0.8919689964849482
0.17685508264980448,0.4509162208432301,0.16104473238891465,0.18294994288811145,0.270938744246094,0.21297188831273994,0.2108024931968927,0.8331389494258875
0.19543474244762798,0.4761235143372333,0.18973572385970844,0.21718913262724948,0.3048621543399541,0.2572817260843625,0.24715910148674208,0.768097469740707
0.1993517270374912,0.4426494515789216,0.17518273356760866,0.20707690713900884,0.26923684744285686,0.2374351614873209,0.22121685071042366,0.5770115276065565
0.18454993971046627,0.4197932400790986,0.17949269997748354,0.18902939579548578,0.2317525065723486,0.18709587379405504,0.18342735743125027,0.4496251731049728
0.16662775335300944,0.4055482781729696,0.1607723387714305,0.17258716701984683,0.20438172574058736,0.17916708419980937,0.14486614575848386,0.375355700217173
0.17238805528616236,0.4171418441231528,0.1615689847083568,0.17984125430169834,0.21990973667372124,0.1762203321449155,0.16383626626599146,0.45889252613388065
0.21154570200623254,0.4373621208927505,0.19410382942838184,0.21888556999358044,0.2814405184413818,0.2422677833009784,0.22966502852510254,0.6450794846872929
0.20489261375646836,0.49008969963972543,0.19529654392078893,0.2077135364043536,0.2969481980196027,0.2568595917215477,0.24747276376477195,0.8488778779169401
0.19808880672240647,0.4821133445490843,0.19016535509057866,0.20772345726691946,0.29966682309169984,0.24701922838651774,0.24367579990694502,0.8918013464194694
0.19452543637330624,0.4618313668418762,0.1794818960305416,0.1992052607399616,0.2648584061995759,0.21989546053936465,0.23304344195220633,0.8558071072932346
0.21905810909338846,0.5085656775719779,0.20272439357403654,0.22244961703587052,0.3007028781951761,0.25686119556961906,0.26189441189973994,0.8345182792665793
0.22013729119953984,0.48666878783581113,0.20184425247583543,0.23456681066961826,0.2733340355151346,0.24142409495924508,0.23398173899265193,0.7068117887700676
0.2158801306518309,0.4674580735587892,0.19332794435744105,0.21461945183084546,0.24441981146930086,0.22146748301300842,0.20381681591155548,0.517890346395611
0.20414697440066798,0.431918771176084,0.1897883547551391,0.2028530530850245,0.21734255130399566,0.18062623500213262,0.1668357201833234,0.39313520770634935
0.2116573662131262,0.43858153625632457,0.1965491487179133,0.21028801411312148,0.22967662032298064,0.18416415132395064,0.1992905494434306,0.46917133950689527
0.23877873550147116,0.45966147637285826,0.22283176467225874,0.24027537677969157,0.2942389196425838,0.25858751439349337,0.2557727071286237,0.587613578344207
0.23310330611866806,0.4885073501270372,0.21283275827453524,0.2454621688883934,0.3126728907879899,0.2660698266607726,0.27298572911829927,0.7819465599072845
0.22711635263241597,0.4872262324619199,0.2265578208108363,0.22252930809063243,0.3187318070945559,0.2741831625357739,0.2690155515964066,0.8724778852945037
0.21609502747647513,0.4733368090024304,0.20168749913197412,0.213690499914168,0.3028055170828252,0.2438264628514968,0.2559776492277134,0.9049881440379212
0.23647884160894334,0.4832548294873489,0.21761487954597286,0.24366258574406974,0.337145683265474,0.283941121122722,0.2910432115390792,0.8938286077734402
0.24733539219684525,0.48458374923712066,0.2231925079606018,0.2515312084567625,0.3093846931182823,0.29154553847660375,0.2805484065971367,0.7917494023402376
0.23875726423219812,0.47951790994557103,0.21803615146282626,0.24159536190521297,0.29437769857001445,0.24125917150817694,0.24437452149524266,0.5948287790498403
0.22655266538691443,0.45471323867884667,0.19763567010030814,0.21927600446648193,0.2480100688676186,0.20772851131679732,0.1976994371373981,0.4511690797837336
0.20488420908541993,0.4442732865682433,0.17763966442271212,0.19674577658941625,0.2198755060818661,0.18125130850714666,0.16123907853253175,0.457859727642992
0.22994242336705506,0.4477835805745808,0.2161283018583926,0.2414334901376594,0.29622205033848753,0.2485723192926205,0.2450870026019388,0.5300938433735639
0.23474120686508557,0.4654540856479121,0.21667793436238475,0.23982546494939339,0.31771628727561124,0.2706541571875468,0.263634612047855,0.7642944309594015
0.224093567918237,0.47762656342827076,0.2076253741341173,0.23248349872263357,0.32273171071155043,0.2787087253137486,0.2733242568097311,0.8212414388458833
0.20899283787318038,0.4863601905158492,0.19022378040515314,0.21572149521727946,0.30499238761185427,0.253975392977019,0.25485754919263426,0.882969657304634
0.2115599578196187,0.48353728962259307,0.19817751392360053,0.2016215102571157,0.29036839158944167,0.23747523292866304,0.24738292127051859,0.8535972985721112
0.2373989057665564,0.47737410662045276,0.21040787888092283,0.23705039233348216,0.33418746013304257,0.28792664649149613,0.29566750606652137,0.822841625361622
0.22688845572582633,0.4842345093628391,0.20759662325822076,0.23436946841742495,0.3133011363649049,0.26310716428825226,0.2732488326712572,0.7104308529559089
0.21365811628520803,0.4551558716238031,0.19483475163820418,0.21182292654235857,0.27221734532302344,0.23257158211667264,0.22490578924152765,0.5198984670102554
0.18791799867492562,0.43602056829341845,0.1687798272989143,0.19013704823525376,0.22265409616215573,0.19720010856833708,0.18001258909897103,0.4126233292455567
0.1932628757245332,0.42444685873309546,0.17631777837695,0.17400364397123705,0.2355192790137925,0.19790769630564825,0.19337372240841375,0.4114152289890849
0.2143921917707503,0.43886845205751546,0.20443548388398508,0.223013353834272,0.2945061987104238,0.2529835260955246,0.27181331018596333,0.6151560324479598
0.206819305826193,0.47137599145157366,0.2011271822597121,0.21832834205565232,0.32474571479401704,0.2696353436199245,0.2722404324229084,0.7886680965414271
0.19489781030341666,0.46696077906262934,0.18954784864533872,0.20108778187624599,0.308475287953526,0.2664381054122744,0.2732521935956772,0.900490183683692
0.192692263112695,0.4800789154753637,0.17265406394906724,0.1813415634680733,0.30764387514052016,0.23124490236005266,0.24766844719345352,0.8669177909838333
0.17418199341327698,0.48196177871712953,0.1635969187211433,0.17059031489818127,0.28048094631935605,0.22511280690871815,0.23163140964008902,0.8733741313692083
0.21259383876557894,0.469623454744925,0.19138367025391256,0.20521427067616532,0.31421611777802805,0.2525624867822165,0.2616074948523612,0.8007254258308811
0.20314273406913533,0.4409116261875263,0.18942953266725004,0.19910633774066333,0.2700801611212985,0.23423292168057314,0.22803791188458358,0.5907303646578318
0.18585814517054164,0.43797680370645586,0.16893652415406613,0.17615640158115878,0.234787567124877,0.2029851381278745,0.1973320136503541,0.4236405399291612
0.16717640104155693,0.42202455232644787,0.14753127365797078,0.16228373707616786,0.20348674155808597,0.16758688284078083,0.16063161334132597,0.3791586744524235
0.1590795962001993,0.42335690293917044,0.12414975450662072,0.14947939155851028,0.2016673570462369,0.16414989322603568,0.14823072170798945,0.43083576827771997
0.18206717861067526,0.4451914128402693,0.1676707777719675,0.18523328780382875,0.2613450235690585,0.22726286291725084,0.21778340158746362,0.6448008226236849
0.18420461402775495,0.48569197141664483,0.17012421172992973,0.17783589877791925,0.2937097820468672,0.23973630969636395,0.24849602781863042,0.8056666188948787
0.18061775532120447,0.46747047451756235,0.17382967018187623,0.17097149702316425,0.31059708510075196,0.23404637251774385,0.2597061924904153,0.8581461169375662
0.16763947548355765,0.47009799252487805,0.15384090436032805,0.1592564326465454,0.2927894893171875,0.22247200078864987,0.22719529206552008,0.8799277263222505
0.1652698059136153,0.44602799409118565,0.1410815608170082,0.14580159465436227,0.2616343123416625,0.1886721128342693,0.20311560037402193,0.8278475703263345
0.19379366342124257,0.46199837318059495,0.17312510168395656,0.17824269224791425,0.3014517987272294,0.22911170229377467,0.23876036874312964,0.7468739815500375
0.17817429022502354,0.4467365427531101,0.1751241893474605,0.18406679547190027,0.2608118756477742,0.21971155229833045,0.21708009681660143,0.56732934015426
0.17648869944813475,0.4118793031962548,0.1531370808660617,0.1565845164612735,0.242149199948429,0.1767032088934242,0.18087825270920757,0.4692583798031381
0.1601113365518333,0.4251731528143223,0.14017450516854968,0.14437802731150876,0.21517164841394323,0.15098876290067853,0.15177087908909342,0.433375198579576
0.16819974736121618,0.4199471979851381,0.15379884957050988,0.14881343378361786,0.2320264804253288,0.17371084095959424,0.16737116278452485,0.5612312206564875
0.19879495934508332,0.4720701484180344,0.18097466033873233,0.18688611938362254,0.2864228872907963,0.2342075557438199,0.25272898137596994,0.7464912333557004
0.19475421858786893,0.49700678375053764,0.18797821336536058,0.1860084529264317,0.3031700364796891,0.24393305108744975,0.2675525252773969,0.8748905846054899
0.2036890632493896,0.5067413875280691,0.18096527072782675,0.18554388842710498,0.310699943839698,0.22154279814147948,0.24515742558510895,0.8967271041017593
0.1835351084732675,0.46665918972724063,0.1640205370463861,0.16892302095907902,0.26879572518730827,0.20746169515632606,0.20543001874968,0.8595696452303778
0.1889299229427638,0.4772310106054356,0.16743630478888524,0.1675158623066622,0.24775235075217095,0.1847377850936944,0.19571881649033465,0.7465933042878106
0.20926117870301048,0.47361993713543465,0.20047707051348151,0.204215937692507,0.2846373426441084,0.23818786965659897,0.22149983915833799,0.666596914790191
0.20836755391085676,0.450135349769745,0.19108063719656215,0.2025212921359199,0.25219782576024463,0.20372593615535695,0.19547444570905603,0.4930352091637904
0.21064286279641461,0.3992659769076216,0.1926145455901106,0.20080189665064574,0.22069148917582276,0.169388530485321,0.1530198023527763,0.4162971801483833
0.19238796850268772,0.4386598981887889,0.18178375108456307,0.18267681572435274,0.21052541705200306,0.15941616108903348,0.15666394348776963,0.4697710068144547
0.19182561845413612,0.43762002409012496,0.17295239469936494,0.17072227892043038,0.21787394523357337,0.17036605001622485,0.1631087811874815,0.6707496914987325
0.22164366719035858,0.48884788831414305,0.19406781156486713,0.2084019869729355,0.2909817583525945,0.234341386341715,0.23499177415152417,0.8599724610259236
0.2262219311992264,0.48021758286938215,0.21112160233788313,0.21713397656031508,0.30989549945346795,0.24001795072952758,0.24962771097761044,0.9496114348826553
0.2222433230454518,0.46488907722279704,0.20478067184472773,0.21053434475241645,0.2883369880688477,0.2249605292277109,0.2311785026643153,0.8848760340758153
0.20388823906965323,0.46935610322245747,0.1868836613625709,0.1966001497335763,0.26926250188230316,0.20960897054466474,0.2044733959561292,0.8073913055695492
0.18549091412162197,0.46459338193768557,0.1794218449478974,0.1771447871737282,0.21461243378636363,0.17974340619949764,0.1619299143948316,0.6988434580169323
0.21605534637332935,0.4560897695483368,0.19895140215299995,0.213504457255195,0.2504645702787097,0.18901971567154752,0.18508932124259245,0.5299454545374249
0.21713468200805014,0.41407528527721094,0.20030828962857522,0.22144764377900267,0.21466379674694266,0.17695828088241775,0.17516395314433136,0.3592685243705118
0.21110710274244493,0.40630477442828844,0.1970260598298613,0.22165999847264656,0.22237368819941766,0.1847285833792319,0.1625161609690871,0.3991695078140007
0.20362644845038919,0.42989824971158913,0.18948117667658676,0.18533504535774625,0.21141981646619531,0.17175497838282125,0.15616955220335854,0.5507995950826696
0.20171828281338294,0.4542796065353928,0.18315797648684606,0.18920617852171395,0.24022539004732618,0.19580748979989662,0.19049400005063238,0.773560712400755
0.2165953306894841,0.49523349351078,0.21051427504599415,0.22883396212363022,0.2862589572303062,0.24799848805271113,0.2449855524605925,0.8900735216952012
0.22617488590242452,0.4824755626825255,0.2115134460001501,0.22352568394135863,0.28209705657308204,0.253297402819648,0.2571690392425392,0.8525029065873961
0.21140585173366733,0.4527112015311492,0.2107663050935941,0.20810829299635897,0.27292028502589494,0.2312163746841021,0.2275001960746801,0.8731910284082424
0.20292485041683672,0.4695696835568753,0.18676679928884224,0.1989514324232639,0.25042195732699674,0.20159838555867937,0.2056032589256086,0.7740204406662584
0.19128859045010027,0.4281460905842758,0.1744920732103383,0.19144321542340237,0.2248043011875257,0.1802755122090585,0.1776933921365815,0.5838425986799889
0.20749711396953824,0.4121595645993727,0.2026289954018255,0.21519651492716907,0.2286495464883977,0.19887266767661455,0.1958728087081465,0.4074842162055542
0.21070965453962687,0.4006415622404186,0.19793467633410164,0.2160985383728435,0.21699092847843288,0.1935690286270903,0.17851517956982735,0.3472404305705345
0.19892585142923905,0.41078748366008505,0.19268941049828145,0.21056726693620612,0.23048753421349794,0.2090335603793271,0.1888999653518453,0.5006387612912235
0.20019845616875337,0.4377587394101567,0.18825581673891056,0.1918169076713201,0.22471985685263124,0.2019052667794948,0.18906197420773257,0.7086426798957872
0.18037305003779303,0.44077851815634606,0.17577960894394562,0.1849673466276004,0.234013881167844,0.2043114410062837,0.19092263490460273,0.8352358027164261
0.20922806362011684,0.4457162317861717,0.2012224983182698,0.2157876515630033,0.2926403166647891,0.24233640205891194,0.26130820760703355,0.9029830439350596
0.20155758254241338,0.43922838734681285,0.19549605026007089,0.21640815629161433,0.2932745408818602,0.271451607351259,0.2754381076680964,0.9369230046042577
0.1991044651525297,0.4827082183212109,0.1894541871846339,0.2041926843909331,0.30232831220260686,0.24592071255820058,0.2569049139639671,0.9439586745696463
0.18111194136032993,0.4655750132687466,0.16668274814210854,0.1819953068820729,0.24633696360650661,0.21372885535526523,0.2174885043126677,0.8000658569320525
0.16814348125133813,0.42660989335918775,0.14296230657313505,0.1647584148900678,0.19787809343145338,0.15196727036082278,0.15222095030183433,0.5243393013029163
0.18125664291962787,0.3844637061566766,0.15873298882615575,0.1805490475851815,0.1871824427953078,0.17325077845067333,0.15209317441746628,0.37420636569101623
0.18244170489652256,0.39995744508926123,0.1740908191759715,0.19608283766210233,0.21400987375755084,0.2022940624127363,0.18823804551814283,0.4440356928141652
0.18063264514246616,0.41303693038688905,0.17540550956262566,0.19506084182520034,0.23578163127200602,0.19243274998419832,0.2139764213668964,0.5872411134002797
0.175641527526411,0.4680269134441742,0.16499687607022942,0.17771121323155353,0.23156978172183032,0.19911474043557037,0.20079622767174482,0.6964738651804584
0.17132158931183505,0.4766458916602852,0.16566446786471817,0.1526278821233802,0.2488583661630222,0.19141709719053004,0.18131884569140555,0.8140978044497118
0.19322360125628835,0.47390195701332927,0.1883050999680991,0.1663786821690339,0.2634351380817673,0.22344453564780253,0.2222785301350864,0.8398387769285918
0.19639257176318345,0.4907331402815552,0.20848308084184927,0.19095883222370919,0.2892991600531171,0.2531486942079356,0.2495515657396123,0.8871588377520812
0.1797428785965517,0.4788350695079332,0.18001231330733525,0.18443681539131068,0.2872919385163383,0.23800571276539617,0.23798866815792247,0.8294498560196161
0.18128345859536185,0.43494155999977463,0.16794401148875876,0.18226109439732527,0.23304454787133239,0.1984971051178917,0.20491937476792513,0.5797535909940619
0.16851891298343433,0.43487150152855514,0.15685540780650004,0.17548864770104375,0.20935342143639965,0.17870566927362366,0.15114507965737767,0.409286847589152
0.18479600747597721,0.469646245125603,0.17363005400281267,0.18746661054363695,0.22021878352947247,0.20294882656017424,0.19490297807897716,0.32340331910408937
0.18445647012090977,0.5002540978894214,0.1702170308737773,0.1780090389189088,0.21512104133117876,0.20361077347952541,0.18323775356585265,0.40665671983679713
0.18880035600349654,0.518673923959128,0.1811498982363497,0.18497688549136918,0.22742177545817932,0.18963008057184907,0.19135696590412074,0.6108081013921715
0.17306841954077923,0.5113056687038976,0.167877218003582,0.15727205855876808,0.23816190405650647,0.2085265912840605,0.20565928781502302,0.7394538890499063
0.19923587546531396,0.5373050500650691,0.18027206580807115,0.18899819273655843,0.2806952955122409,0.24140559970585265,0.24538827968432453,0.8442080908488396
0.20292096925910047,0.5458970640058057,0.19160343111842615,0.19989112843658632,0.2876298515551395,0.23779507070069747,0.2538428804038751,0.852163862381742
0.17872970018779766,0.5100844859815237,0.170167260234866,0.18326766324714455,0.26789843373758565,0.22024850933719978,0.2184305747149538,0.8121713588397654
0.17754433285954518,0.49398425430428083,0.16068539991050496,0.17459122715390962,0.24155248658368242,0.1979291681366351,0.18978336397160397,0.6929684251008729
0.15638658705728148,0.45419894634774177,0.14358641216692317,0.14461794231054273,0.201220647656362,0.1691928899469761,0.15362157290967046,0.5931309083391509
0.17980923213693187,0.45646479383516303,0.1538038433930872,0.18051992024827768,0.21676609831232022,0.19632664821009072,0.18652649194540172,0.5087337500888683
0.17161532498964624,0.42378081396512707,0.1491713026515163,0.16206336730371196,0.21825398091268491,0.18030791588580342,0.18535254923786493,0.5501281984939344
0.16453236660489787,0.45482400987471294,0.1485752742302794,0.16227452863195205,0.21953680072899784,0.18697069796255142,0.18628536809413251,0.642306959397467
0.158830226517383,0.4932832863294369,0.13093701598015522,0.14903228550012854,0.23346438198079816,0.18159839438475148,0.19887630394155528,0.8865707467746166
0.15039206071643035,0.47632890542580525,0.1223034861023077,0.13896496988021306,0.22383657060887507,0.17539763759721477,0.1747546641249143,0.87131861300839
0.17881665184623452,0.5064167566295149,0.153999169482051,0.17330827454965494,0.2724357717712949,0.22832482169794618,0.23169739341014597,0.8961541596062175
0.17022440421348345,0.4856538215939542,0.14398588623008757,0.16169633686237767,0.2523551096678371,0.20326608711659336,0.2079967955726882,0.7919955266357224
0.14939855751350165,0.47679669845419037,0.13011087692456313,0.14663316183197597,0.20892161074589896,0.17366280013734312,0.18117626315963145,0.747129380199469
0.12968120444019238,0.4579257890799887,0.11059463568146805,0.11894915554842159,0.17451557223369754,0.1355049793036278,0.1273866447046554,0.5694919491431754
0.15710424643879606,0.48850274650389974,0.13049888874644983,0.13612081699858078,0.16571412652522488,0.14668455049951387,0.13768487121592382,0.5110724362004608
0.16561244907547287,0.4842265265388093,0.13681998593963196,0.15155550889063102,0.17358368884655484,0.1554883960053187,0.1584776052801465,0.503239196865382
0.14273609347221802,0.46118253108656593,0.11409776516893197,0.1375147283218143,0.1901816966647526,0.16280877459582377,0.1571753719522891,0.6211774825593208
0.12912183771823604,0.45365168921378474,0.09794021020569915,0.11467512599011807,0.18392306726622382,0.15333810342639093,0.13764517999383738,0.7176705711451845
0.12467197347009448,0.45357701863338373,0.09186435432325496,0.10499969179214057,0.20444126106317811,0.152782558147359,0.15321720365817082,0.8029157158693456
0.14014313348858762,0.5098544831010136,0.11332013412055211,0.11583598058843546,0.1970590743943048,0.1628842303764868,0.1682176923273363,0.7991107028827359
0.1504164081265082,0.5204598662991531,0.10781941012397747,0.1069618034347674,0.19701998245433092,0.1499070508929023,0.15892760341385065,0.7702656265656621
0.13466910870439738,0.5036137804977158,0.10111516438689375,0.09799961365331356,0.16981637912084818,0.12209044298296265,0.12494214292361071,0.7411122864917448
0.12639336299930437,0.47432087233772924,0.08699729547444397,0.08641524763858625,0.1527200350218985,0.1204377611784904,0.11607377667711447,0.6743136180843541
0.1391996731630116,0.4751944573606056,0.12070971467720892,0.10777428611150446,0.16239524571136527,0.12473078875042741,0.10884907595149945,0.5346567441609006
0.12748501070930493,0.4174291039332223,0.10378887602695216,0.09961062342424709,0.12625937297047762,0.10977927004731665,0.09807503980715773,0.4283795783042142
0.10558274878095206,0.3788676145087575,0.06604987460915443,0.060260139030023245,0.10840220909681923,0.07972105301580668,0.0669948855196435,0.4612209057728257
0.0885560502307297,0.38014539019040905,0.05908332128900877,0.04856995966644693,0.11255196900420306,0.08749773371564991,0.06887888091072748,0.5959339373317377
0.11900721149265713,0.41690776845850985,0.09085412656996714,0.09108581040053079,0.186795077628073,0.14907369535257586,0.1695235652301117,0.7691805943057444
0.1103825142252326,0.4205202272043927,0.07030014408150323,0.08124993846505633,0.19057087832550038,0.1808336183678272,0.1703870966512538,0.8642539189544599
0.0859008078592958,0.41593313052568126,0.04612728010998622,0.051301185265496374,0.19329441126918562,0.16450836662275795,0.16133901009438753,0.9264691951133068
0.08708492591062107,0.4069939103119527,0.029312470873122703,0.03270388027966234,0.1727252939026286,0.12230946219721882,0.1269948828910082,0.8479627670952853
0.11431982648690667,0.44567072624300147,0.05621737565758737,0.05700366475405527,0.18921443144130068,0.16660589361087375,0.14866688733432362,0.8294504622636978
0.11875919568961374,0.4287006943017763,0.06544529557788238,0.08050933098930133,0.17924361989640203,0.15362401896423375,0.14752564802127827,0.682044322766038
0.11344009637483729,0.40725918109238146,0.0568872311226226,0.06285376851896746,0.1489559373316854,0.12559686086217545,0.11297475113822163,0.4607610704913451
0.10013648236473888,0.370157649857744,0.055041521322863454,0.06650559782487753,0.11464705736430722,0.09479837607617905,0.08818516687481272,0.37900616488059324
0.09548647841033853,0.3598861814833059,0.042539520702094144,0.050904851082726736,0.10124553573353913,0.07824778110798312,0.06712588630879855,0.43032452607466753
0.1247391392968038,0.4054508698703293,0.05616271274354606,0.04956715589638029,0.14275282391319746,0.096706905607434,0.09174611717314665,0.579755889872675
0.145557382586372,0.4773955953120941,0.10090106291562592,0.08848722881687096,0.21864548977500098,0.19221911495334118,0.17438868388972678,0.8029284204404052
0.15942315950014385,0.4886672137028579,0.10374844911620915,0.10820093871082895,0.22420638927831504,0.17926626675714485,0.19558786222420577,0.9187538365353292
0.16848344919166586,0.4685927102442027,0.09339061831383269,0.10519026895547189,0.21448167893329262,0.16854558040880865,0.1716443562902352,0.8693088197882932
0.14592751766254916,0.4853749510573525,0.09011715617853053,0.1017151192364044,0.1974053068691472,0.15794742009966412,0.13217324686048026,0.8539874147690397
0.13822853262487309,0.4687875964338616,0.07029284606012162,0.08087525319412003,0.16488124909548735,0.12949705285535346,0.10303584488567591,0.7839112684655261
0.15854406743760174,0.4424979337876264,0.09820567514293063,0.10195950067086237,0.17420267325786531,0.13428013589619042,0.128937020220697,0.7023650479613487
0.17040701908425337,0.43807812502745985,0.11856666738351616,0.12042971466440514,0.18735210344419323,0.1573518066640907,0.14207044790494214,0.5572012519094216
0.1716266632902236,0.41703220828354437,0.11245633818534963,0.12426204574100264,0.1779077041101824,0.15133901757082674,0.12197062876634154,0.525862097736862
0.17019895367689736,0.45879144904656927,0.11588538861282885,0.12553914911684116,0.17495594231092587,0.14369890743016211,0.1338330490034627,0.6525728315199941
0.16737439842896668,0.4777859166219138,0.11017001067776322,0.1142824993083907,0.17004478811489845,0.14406436905634792,0.12051586089997669,0.801472623501791
0.16352641093475312,0.4736027522230072,0.10293094095120404,0.10218997366307189,0.17880525242384993,0.13368100281917242,0.11989010040151389,0.8577185550143447
0.2034283130616959,0.5022658597145995,0.13812118259612957,0.151194905782561,0.22323440811094714,0.1959250995791588,0.1780951840860615,0.8984612534215548
0.20619805944126968,0.5225141342606645,0.14709240802921214,0.1527365725776104,0.22747183957182388,0.20097810407055813,0.18762277891182377,0.9000434687644772
0.2012810276171869,0.5137089851512542,0.14204275712766812,0.16112505719153944,0.22868549816847383,0.1999911606723361,0.17760240631987825,0.8935939691950465
0.1894871235072602,0.5161001309637551,0.1370094958678203,0.14188064662450547,0.18377676384032257,0.16514619284977788,0.14089650639719892,0.7630499840836693
0.17119399730893103,0.4668225541742529,0.1205212712511343,0.11621930973744243,0.13491417112030946,0.12359605666810243,0.09524254086876778,0.5805345460413472
0.1576715836190376,0.44400101227261474,0.0979768748101203,0.107962398404183,0.11111028756602545,0.0871821264339451,0.060170707069681015,0.4790331032813896
0.18744647891043503,0.4395759894787743,0.13081799149629217,0.14829544975889128,0.16584063442807093,0.14255894502530228,0.11862886683661086,0.49648524610460554
0.19893957342022647,0.49425574056765553,0.1614926571291481,0.17744108727069752,0.18792808633421185,0.1790294689234216,0.16634242251504144,0.6888250317353897
