0.0023706208528588703,-0.01409063308498323,-3.018502515168627E-4,0.0025665211054959774,0.010811094292277813,-2.4528558365908036E-4,0.014448052209204351,0.02155900751947598
0.008390626798792197,-0.0010605862279470105,0.004486806497723678,0.006625313688409028,0.004679980407780731,0.009631131240258987,-0.0056404355600507975,0.04439868099683501
0.0014548915217407195,0.003025951184798717,0.008613979292462132,0.007454770431231961,-0.0051480663679590215,0.00387324131790933,-0.005577156628793048,0.043408216374057305
0.002505132262729891,-0.006573007066362526,0.003325737500773868,0.0030875365118652968,-0.002713943559807816,1.1606112421434065E-4,-0.0017166270491540503,0.016758424781064814
0.00521675859249389,-3.5166286314577836E-4,0.011504164914181035,0.013076771948631754,0.006366662613360358,0.00707679978747506,0.011612160692332158,0.004307197633983778
0.007246066422413841,0.0017884148014937775,0.009689999412644349,0.01160932375023852,0.004902086531747533,0.016257703018149768,0.010298275125054726,0.032760267582007355
0.004808967177634944,0.010649677140491934,0.011171179301428674,0.011905483233059563,7.327054867446591E-4,0.01810950556575526,-7.519142792378802E-4,0.04340697908828079
-1.676445285850345E-5,0.003925897576993455,0.007411741023471938,0.0029574566413197185,-0.0019243100029194865,0.01842475025817653,0.010056268497119485,0.03744882495965849
0.001599731722234853,4.2692481106396476E-4,0.0069742491673028635,0.012823777621462187,0.004235192369334885,0.010879208983040942,0.01854390163424601,0.013458007034140894
0.0035650003265527857,-0.0015616956769153839,0.005339223777640224,0.013164492170359846,0.007981667230115026,0.02004063232705097,0.013234091430911482,0.03442849815093855
0.005844160190036896,-6.399755279002361E-4,0.009275529480706866,0.00689129215069358,0.0063847542889323835,0.01775191934060702,0.010914054198158883,0.06451093560507294
0.004249541274248018,0.007481584452156428,0.005940756319486247,0.0026611833720739694,0.007256915720049508,0.01373035715605725,0.033320064285290836,0.05808094773082278
0.004991329912670061,0.0015110113505326737,0.0027709931639113643,0.00609907063720876,-0.0016843328711781261,0.011146101769828722,0.006921013410555691,0.03328391674424687
0.010925120832225126,-0.018387672357282208,0.007213915800331309,0.009038484915138508,0.005810473889971615,0.02106185480162353,0.014939446197566162,0.02815186470491236
0.006997872236719896,-0.020813452191975043,0.0072317215082946616,0.015350444161888183,0.009922137965477341,0.02239569863822699,0.020256474123566914,0.006063644372320816
0.008685428335864996,-0.00810607179257212,0.006903114590716246,0.00843316681665279,0.007982462552012006,0.020056274067624245,0.021459297445381643,0.004607138565648599
0.004348989491092271,-0.008133887288024565,0.0059009166811407445,0.007221847583663013,-7.256926240211783E-4,0.021510350447568466,0.015304912250943029,0.002156308520407017
0.0016145613695397996,-0.013781394936803398,0.0027116162410227196,0.010103949979820477,0.0020128279387966997,0.007504032028010869,0.017676692499443647,-0.013110059082822091
0.0032229290759549292,-0.012652701868326012,0.009516933857500567,0.018873856885355693,0.015237569976696144,0.0236141777151254,0.022435676180237014,-0.0020775277357535744
2.5021312141331413E-4,4.7324914168025154E-4,0.008882812543676477,0.009148272660742996,0.006676000494460523,0.019070187885794967,0.02571367284493109,0.021401848200541397
0.0047713274841446164,-4.552620934611608E-4,0.007109369304518465,6.721087328467828E-4,0.004359733720227299,0.018365122921766654,0.025826474459253738,0.01704322004934721
-0.004104989197320032,-0.0021798857791649555,0.006464728449538181,0.011950086937679653,0.0035710216685929503,0.013845225162697785,0.01630375721692192,-0.002926294971788636
0.0026797835335194854,-0.00416113331172818,0.007442651391641969,0.01527832620264341,0.021009330339678098,0.015172599055576252,0.03778093881183206,-0.0077087018824087365
0.002800619291948702,0.010361359702845208,0.009854828192283631,0.014412531031482958,0.016963099235971092,0.020711406090450774,0.023577848035715037,-0.002118515717963309
-0.0011769111200533428,0.014402338752496252,0.011425638049971808,0.01762117012819354,0.0036936188494653887,0.018527128640557656,0.028707725736420706,-0.00616704127151386
0.0031790743007094023,-0.0013194072016021678,0.009321108837411598,0.005673465694139362,0.01528118031771774,0.016781248744559787,0.03211307323859727,-0.03793326478048806
-0.0018503795515879683,-0.0033133842895375107,0.008926323222618885,0.01690371146608224,0.01165141916970417,0.026428445594761152,0.035097195334062296,-0.055607990938998195
0.0072997723704373955,0.005271781567334365,0.008521252236557027,0.013825606131783519,0.018616717342987144,0.01974160983526151,0.024028126078303482,-0.018374792148199624
0.002319772680927811,0.007926740345758031,0.010988953638927336,0.0108715430318122,0.011303893526349775,0.02614550217453309,0.031329049617239514,-0.006616913762269224
0.0039378444117050765,2.877657086891097E-5,0.008287080005550956,0.014838873627822395,-0.0015687780868915945,0.018758727770785247,0.029540340034764655,-0.011817319052327292
-7.13252070325782E-4,-0.012029309454228906,0.008669751501079058,0.019059261225626213,0.007006344340279627,0.01670871039206601,0.029383446868903332,-0.036413517176833006
-0.0038681652777420162,-0.01835629275791352,0.011918325421381899,0.019355560789436226,0.006219936537437732,0.017058793472357614,0.03676637252863884,-0.04486234284089155
0.002677721143972685,-0.003541069851743493,0.012820254971795867,0.02021438709268534,0.008573599645347875,0.015584993593439959,0.03111771543008563,-0.05178306170944598
0.0021401171719729797,-0.009338131013877368,0.011608605982675732,0.017869147293479302,0.005859533012921237,0.016074844647143188,0.023650777208818075,-0.03582969541454072
1.5761474152300927E-4,-0.016725524723762708,0.008053882300547379,0.02175162962878544,0.004829060494140692,0.018608340264053502,0.04074536092854136,-0.06799406556385139
4.6728907166480215E-4,-0.029355014535872453,0.0076354991390510775,0.011397633344630839,0.005804881822115646,0.014679960080816276,0.04395904971697244,-0.07945558134635324
-6.213995560402894E-4,-0.020993556845778076,0.007375046659257036,0.014406376053521852,0.005457385214740835,0.018954308372512132,0.045807847395307626,-0.04422423398134757
7.408330576860035E-4,-0.01357936995652452,0.0034595434416033644,0.011281791779886433,0.013366842774209495,0.013111942488235105,0.031480606769924646,-0.026310651282479263
-0.005629028446885747,-0.020075659918537714,0.0010773129158616786,0.00805964658909909,0.0025494027179791853,0.02293126724440268,0.03637223205998329,-0.050473908863328025
-0.012473179262920757,-0.023032548227636795,-9.438310720506058E-5,0.007830668548626069,0.0048263308516363216,0.016138820940634804,0.027653783312394414,-0.045600812980007364
-0.004903040489392662,-0.008967653112653516,0.0030309495821020764,0.009022998537576151,0.01104287762591692,0.024809387463603418,0.03258900229943264,-0.06716665111212279
-0.0034217188111821434,-0.013645093904300118,0.004466835927417928,0.004167458224039086,0.008790021287522902,0.014762093618713272,0.04175133787770603,-0.04021287226251685
-0.002283849631464497,-0.010568179228444758,-5.434473030100685E-4,0.009503751260215692,0.006134801592243809,0.023914167500283228,0.03820992326693821,-0.041759154091526786
-0.007417280604804823,-0.02664471398002651,-0.0034725442340328852,0.009066728698724236,6.919191672250911E-4,0.020429338127317762,0.016599648723541482,-0.05445657767475004
-0.010227545556594263,-0.0299002049879911,-0.002788680396429956,-0.0013827516201163621,0.00353529265547706,0.009833289995204017,0.029286186869827868,-0.07312412972293413
-0.0038433333253796833,-0.01586386769454856,-0.0013209091761062668,0.003411978661840829,0.0029923699378990587,0.022400669139524987,0.028516468529602317,-0.042835239317820926
-0.009983102318129954,-0.019294606762863695,-6.973816244938757E-4,1.7108423917099023E-4,0.006116636251264381,0.01471287120515672,0.02977991857732907,-0.0403391062139032
-0.009095158428948159,-0.018174432527045602,-0.007430309519402722,-0.005010911819832662,-2.7542451527153185E-4,0.015320710954455002,0.02661782733211978,-0.07415337824622942
-0.017419283424482422,-0.022007124242787453,-0.0069662387619056285,-0.004073036590750286,-0.007351353023113915,0.005470709160023086,0.025565149116972184,-0.09211069988160143
-0.012739200975680489,-0.022066579690763432,-0.006669608291082699,-0.002035346864725275,-0.003703984873052623,0.009883796146984434,0.022299754727322832,-0.06750601578691806
-0.008873319012003014,-0.00926754240246135,-0.004284189998435015,-0.0036522045245950116,-0.0012854026078702367,0.014760241286195417,0.027397348454579102,-0.05278368593108694
-0.016115043825213324,-0.00831395118409106,-0.0035821465891127074,-0.006132086889726269,-0.0016014186936311626,0.012827441362450055,0.01942786773755217,-0.03465977368860491
-0.014344656223956103,-0.01842630331529076,-0.008226607202722324,-0.0035189006345022083,-0.0074117783311404275,0.009424347937042844,0.02408676245752004,-0.061338498663316574
-0.01411607437367535,-0.026379987141763612,-0.003803162192931587,0.004093154871994437,-0.009614499511370368,-0.003988871298368549,0.021871874222675416,-0.08293041250203219
-0.0069833094467914355,-0.019280228223902282,-0.0016110152002498763,0.005997162050820687,-0.0011438976890243396,0.007332970104628102,0.022261585619757863,-0.04523815707818168
-0.011344894264568826,-0.007506708722310145,-0.0015918521453997766,0.004004557913805188,-0.0066047702445786675,5.403264971224957E-4,0.014965617999438841,-0.0331723677405734
-0.014393291512320003,0.009060356461790804,-0.0031909017023278273,-0.014097037679999062,-0.010094398056894922,-0.0024601287271011343,0.010766694693447132,-0.014056664357674007
-0.01723504153954187,-0.006189849255440632,-0.004015360755053723,-0.012845196112123836,-0.007536871085618288,-0.003823033516050308,0.009602146068158502,-0.056380054099447595
-0.009436504375204323,-0.010030748826900153,0.0023697931359569217,0.004486129099402911,-0.004896947157706252,0.004774731824484269,0.014130672396515854,-0.03852906490806329
-0.00721976349162378,-0.018599421599445266,0.0011989636391537956,0.0012515968745042455,-0.004280950258160048,0.0038140092802220215,0.01845669165764809,-0.032352500318216265
-0.004249748003672259,-0.00665877349612171,0.005667047150351132,0.002722222605712786,-4.114911991148281E-4,0.008529586499240903,0.023666981316475322,-0.023705119068051124
-0.005371912616544032,-0.009916323063035224,0.0039545343117646965,0.002450192284772572,-0.0050563824525524485,-0.005410329097261814,-0.0047693423382676355,-0.03310320991170495
-0.003962530895182987,-0.00963485816660708,0.0053395068564180415,0.005464802507791186,-0.0057182091178678935,0.0011707375555447003,0.017982405420845872,-0.016585860166621478
-0.0038772335035542156,-2.80413493838736E-4,0.008931900696317737,0.006715089278276273,-0.0015480881645663005,-0.002149940369685227,0.0047821708946182455,0.006449365721573754
-0.0019170289973259624,0.0040919365681946086,0.013541648717037807,0.009528042945491741,-0.006306216630789277,-0.00606323263574913,-3.677085872270941E-4,0.0330816333619662
-0.0062195062598760995,-7.484260554108069E-4,0.013824856222037992,0.013620722487477071,-0.004329375334213107,0.0010150796749635674,0.0043466775692142115,-0.009782768097136935
-0.012147715230449396,0.034232564635841074,0.017228524141232826,0.0028010672162786013,-0.007789962601012604,0.0010292613862558934,-0.00923745386467826,0.014038974016902942
-0.013126886035947822,0.06582631654644963,0.01760550760196374,0.0013011119457984523,-0.004948557863638228,0.006217457468858294,-0.01009218708032858,0.08220762654800048
-0.007076478886088589,0.040676292291671357,0.012508244836383277,0.00893681509651448,-0.005934722958471583,0.002995009339841475,-0.0026112237028991106,0.05377331435498139
-0.004764597381958588,0.0030606443835922066,0.01237561323170403,0.01606366956276958,-0.005411602686414904,-0.0035620516392995748,-0.008433981496733172,0.027076704064163834
-0.003423348958075415,-0.003311398633948613,0.0106952671469757,0.012958652369286413,-0.012037981529868064,-0.005992623669569084,-0.01049471214522777,0.008793649856478122
-0.009272317881762478,0.0354833340435055,0.02184011281878819,0.01167194242662515,-0.001404841634085764,5.362047381435968E-4,0.005660098643330797,0.03877671388713309
-0.008409331042959817,0.05927536255481739,0.01875734360672042,0.001526345220646382,-0.005893806260877976,-9.64986867056829E-4,-0.0018841672742484106,0.05235261747851849
-0.002030558981572984,0.04222053898766932,0.015393291953606556,0.010084438806148881,7.979082521770541E-4,0.0032962419853239697,0.014302879903641784,-0.002405774696694154
-0.003529419267171713,-0.006053313010175033,0.010233233628258152,0.01483197526972532,-0.009158616488049302,-4.545114565519151E-4,-0.005990708074459555,-0.02803980120370233
-0.0044430952566331125,0.005133188666100391,0.015322327887928677,0.02257884324461006,-0.001000014438138249,8.306083438121456E-4,0.012121788792214231,0.045396609844192394
-0.00576063589447022,0.011353205048834076,0.015162049569123003,0.021502516175880823,-0.005987095360328166,-8.523165855561857E-4,0.002258423429618427,0.05900387291620878
0.0012103437855426305,0.0028225890942175274,0.017662655249479527,0.020607516984562882,0.0012646383896197165,0.01130817687467374,0.002529332564547868,0.022505654551104346
0.0018358181010399437,-0.020488482134068984,0.006568691929769701,0.017998794729328214,-0.0029853237156722474,0.010088730361449498,0.0052633584490080565,-0.029698717843924114
0.0031558226704298024,-0.012934108286712329,0.016321809019381097,0.02901587065722702,0.0027795319275244284,0.01629780464007894,0.011188692755280283,-0.01529210642028649
-0.002611859987153774,0.006313458465309686,0.01426586045284832,0.023680847556037974,0.005166776872133778,7.646443394943455E-4,-0.0032672589582677636,0.04984531201890441
0.002581156468326867,0.022116854152415176,0.013973386990334657,0.014841204868806591,0.006510325849218948,0.0066619340657086265,0.01202909711569194,0.057185897993824356
2.975526381476173E-4,0.016165753757986453,0.016079879276980857,0.013047942583876829,0.008528663115718687,0.005327455047174801,0.009079882962877667,-0.009845601057162257
-0.003950371221533901,0.015986725607236334,0.015461261107980724,0.01686292731364136,-2.75091822412731E-4,0.010332988702960967,0.007718217574269864,0.010521047336793292
4.364584682503079E-6,0.0197974957226522,0.015844833973439956,0.015742646266805858,0.009997682222015384,0.0055896818562671475,0.011155855036838521,0.0361765731855959
-6.133155656562814E-6,0.027333779479218077,0.01781939793916604,0.01434945891277638,-0.0010021505382663424,0.007449207191044088,0.012940598029506166,0.04038986035941359
-0.007784795385585629,0.019222765500567045,0.013239009910507454,0.006842600902432295,0.005298236125473817,-0.003268196680507052,3.129929824753061E-4,0.011042529041819911
0.0019295685969694812,-0.004047259052358334,0.015298813976451862,0.022373810379049192,0.002473739784419843,0.009675193657879892,0.014256603595062017,-0.0064395417090521625
0.00897385337240977,-0.024021079143057025,0.01108834863142786,0.024561266531066595,0.012921705565029766,0.007360693363638253,0.007790656403282566,-0.004558139275425864
0.0066349766278393195,-0.03749125380265765,0.016674123470561648,0.032029220350560154,0.008640453996096822,0.005157271308557791,0.018398460857827512,-0.03246563101773198
8.14112101381064E-4,-0.04221648805456206,0.010677322317167066,0.032881342402643475,0.00811049931474737,0.009207991288281472,0.01438768259282318,-0.04719651760403068
0.0019381560368277903,-0.04383975096966696,0.0122341052540698,0.02543420044840326,0.003520574183902359,0.00119381269620624,0.02086170936251548,-0.061236295682303564
0.00711336725450388,-0.02747821217511395,0.0139064791726976,0.02846754654508377,0.007064704520073358,0.024030205023821756,0.01585785258653754,-0.036566526920826146
0.0075059536457943235,-0.016197340630781765,0.016786707303419596,0.023342461666512628,0.0034113470244262305,0.005220935172899737,0.018113666035552034,-0.003978703395716127
0.005624868986837141,-0.0034059360578447407,0.015530364087729827,0.018803300733945878,0.005751295581563995,0.002933747061471437,0.013467812413209474,0.003935344630417253
-0.0011988618190701713,-0.0015863468380117847,0.016919193693854164,0.02322684354507558,-0.007382722662307031,0.006953127048249624,0.017416237578933007,-0.014534482286505276
0.0037986320916411067,0.006686204837883144,0.018434515943661998,0.023737826950645562,0.00557204955214955,0.008982964798977843,0.014145471885054583,-0.006579732963886024
0.0030184154240263036,0.0017695358282476593,0.015215678932814976,0.028667513281334416,0.004787005807045412,0.010333706842232636,0.01639998852427673,7.259406136396882E-4
-0.0012921550377732207,-0.0033198569151028662,0.015513598182260932,0.020701711926563268,0.009334795193873039,0.008678708023056968,0.007734030612251154,-0.0023665438444527994
-0.007667344437747984,0.015247806372524335,0.008064081181551469,0.0061121005576424995,0.006867383267901956,-0.0021936932632310533,3.1099400416286155E-4,0.023139343740058667
2.50155829904055E-4,0.0361820604023523,0.020821587238116706,0.009647180463694683,0.005895544153597053,0.008176981793595321,0.009338262610948108,0.06425310441100515
-0.005440741599360836,0.04618646047260358,0.01870966422679179,0.011023455610019989,0.0010100480991030475,-0.0044000629876140085,0.0015809725859549783,0.05966126826984658
-0.0032186309656454695,0.03534421238774202,0.020343683311844808,0.011084688808535201,0.004919044181284895,2.231290249979122E-4,-0.0019934480513626616,0.024834238692938663
-0.005884655147987499,0.01452757309659521,0.01464552823129443,0.016879698300201758,0.016106052649815256,0.0077468959021813845,0.005203396294032195,-0.022215856047837067
0.0010990628655109214,0.0014313145841594436,0.014635186616380897,0.024474063691411554,0.011119872245156207,0.013823843779534372,0.02442161264297795,-0.029484082067345176
0.007885637905375574,-0.021371601467681734,0.01634795431403821,0.022474170305922518,0.010824914856774245,0.013999192959366486,0.016088342292209352,-0.059895364700152824
0.006097895903327052,-0.02906369475651382,0.012414071555666505,0.028951966504281827,0.007210945754026,0.008969346296537837,0.016867016846125932,-0.06101467361432026
0.004062209598874354,-0.027238769558164788,0.012221834276289487,0.022811778891098356,0.013133566030711825,0.007444294076353608,0.01857707840225613,-0.05195566310900487
0.004587404103023594,-0.027542909420029713,0.015443562310441809,0.02940871287805285,0.010779501704284485,0.007008831797373861,0.025150725522863585,-0.034198582438759104
0.011985962897915104,-0.007890415455750565,0.01653620142287281,0.030436438948643334,0.013937685027729973,0.009744445059901345,0.02068384864903773,-0.041469726835161785
0.006990123872418778,-0.012106310146505777,0.018431215700723803,0.02901799723349292,0.009316276832783663,0.0053124989280650525,0.018826297298139196,-0.05351624671298268
0.015025761978505643,-0.018991022370924628,0.01748887051727846,0.028657530436950334,0.010654860320198658,0.0024986458945180736,0.013612333216632213,-0.05584176442173937
0.014361420878789048,-0.023813654396317527,0.015236514136729763,0.022705965067190925,0.006422923408671211,-0.001346666134993887,0.015415606214972738,-0.06091471672217364
0.010664595067366243,-0.010934620947684612,0.01805384757314424,0.03139812729762636,0.0059905609356905015,0.015890806833139804,0.008152403147959801,-0.02944795517052095
0.010270810318081015,-0.005506490544851516,0.017172951166900336,0.027286863315070447,0.009777378672404585,0.002599975732002932,0.012622221533709758,-0.0384620283683263
0.0064046578869002575,-0.018755177043243677,0.015799392241138112,0.022076087701525974,0.009363927111958466,0.010749370302034364,0.0055517063885828334,-0.0667470724158226
0.005190518323799799,-0.027762967283858672,0.013343606588463315,0.024674198739954353,0.006510953110662325,0.0014827516286511943,0.01621369223254259,-0.05779746662917691
0.005148994806783093,-0.021800871780454364,0.019631912227916815,0.036112409639963094,0.01172014102049216,0.015467274108991264,0.01739089678746966,-0.030329376008103676
0.007848628187453157,-0.01636234974087643,0.02311943043732204,0.0323431300747574,0.016291750869579725,0.0014027321265954115,0.016133886182918344,-0.0272971103665326
0.011411085848399985,-0.019399378858975875,0.020762902698385616,0.038448013190873216,-0.001280295838326412,0.0065941098126542814,0.016979443487541167,-0.01771339440911487
0.003522462651043085,-0.02723057779008946,0.018172231306274253,0.030107773714402757,-0.005343275837531134,0.003635948425224555,0.009097725934775617,-0.0378942601750016
0.005561255982256288,-0.02513640046238114,0.023600718348154946,0.037957525632611094,0.0069130087312649895,0.006611886146211616,0.007617929785356228,-0.0231424678512548
0.009737814670917767,-0.017098040948400887,0.019370164015195146,0.03718330064985587,0.009645917896860864,0.008744976361239611,-0.00330602663866043,-0.013693472636265247
0.013667898752375264,-0.02114976640674079,0.022265307176556243,0.03858337470062664,0.004552713874319786,0.00572951292601253,0.01089072560222544,-0.01448558419998342
0.0026617629202500717,-0.024607438082605553,0.021188343476677737,0.034156184274810604,0.001607531479778528,0.003331180253586827,0.002864056221882148,-0.03786243433698294
0.010925052386326075,-0.022292720413668997,0.02187037729706877,0.036102885270785576,-9.476655547171914E-4,0.0036331072671281534,0.01204568517888137,-0.03975665486121496
0.010546767524087826,-0.012874386272212483,0.025482327090222977,0.03712448322989306,0.010719601773140007,0.010641281697556407,0.014199999092576231,-0.045899698309575444
0.012120307263585279,-0.025870446980498403,0.025059369580933317,0.039792512794640314,0.005862382947260126,5.953143148774033E-4,0.014607505294898246,-0.05079382683910265
0.010992177681514899,-0.025646050392259662,0.025817524237187455,0.03855712447112086,1.2845427305898844E-4,-0.0048993049196724234,0.01946273739302277,-0.0390513606062073
0.009309723085456852,-0.03658558679628077,0.019951137205412677,0.03201501954275003,-0.004827749840084935,-0.003315946045018848,0.0111317415488946,-0.05701045511494045
0.00859111754712527,-0.020147854576917205,0.029538401685737622,0.03749824290924793,0.0011637704883945958,0.006494363769642741,0.015501424791307736,-0.019586364509347517
0.004159988404867712,-0.01710685400744904,0.02628204154650828,0.03323165975334659,0.0012494288523439976,-0.00314050332460286,0.010764920679281899,-0.03223462875151376
-1.182195208202734E-4,-0.017785708862470825,0.02147572474242385,0.03311308808030316,0.006381828092997226,6.007346324509842E-4,0.005368688937552588,-0.02756854910893196
0.0026698819239592024,-0.0272429413622342,0.02107607385671799,0.029977710095390787,-0.004513408433532534,0.00161989934582758,0.007286061127608109,-0.06466976879336252
0.0063007949728923615,-0.022061825891675792,0.023709682768889705,0.03884413566096172,0.011322118873006595,0.01295109321747978,0.025169818651520473,-0.057321043908007345
0.00873050718732046,-0.023865901301426216,0.0213415645183111,0.04658446552105689,9.57642936180836E-4,-6.35088477495957E-4,0.012269642351892705,-0.0650130410304545
0.006478185577802726,-0.03340937403498598,0.027853729142457703,0.044551106226133945,-0.00747652933586828,3.1069675704947677E-4,0.02229560649040903,-0.06510133591773855
0.010452147141806697,-0.028949091501053112,0.021886415414155362,0.03591739216939228,-0.005569503658365749,0.005665199925353927,0.019186586428532652,-0.06330281251049617
0.012896190657790546,-0.026041916335903758,0.029027714568105125,0.04263459848205182,0.006385100232821542,0.009576070292229443,0.02082054877953154,-0.06177548657814424
0.002757212371276908,-0.0234599700604485,0.027191283184402868,0.043304251744687876,0.0070963544205453885,0.008406547600264292,0.016889738940603156,-0.04015725488074365
0.01156575569126858,-0.0307380565913759,0.027661502029380343,0.04326649363342491,0.009800429760164486,9.791457929427718E-4,0.005155797663631612,-0.03752362393764497
0.009478394748020143,-0.02824284738648208,0.02650997639024223,0.03831940203975336,4.920410377270167E-4,-0.006617251462352422,0.01619523615399604,-0.036498930917222304
0.012746521308277334,-0.02126164397649931,0.031905978104015645,0.04304109701018858,2.8332036126042827E-5,0.007119898900984651,0.017928162735186198,-0.02668348912703813
0.01959980843229008,-0.01952494330368622,0.028923409663770355,0.04520489518857452,0.008451531352293389,0.006117230931076286,0.018645343466530195,-0.030749395164238767
0.017862888573701836,-0.022164730758862196,0.029833271381157093,0.04376837244771392,0.0061202586650420865,0.012214777329519219,0.023650950301737493,-0.042871865427877756
0.009748042550824586,-0.02118919890140437,0.029587445732689944,0.04315191682096655,0.0075797087133090526,0.01167319080487524,0.01864580224801495,-0.053273668081145656
0.01589320229612982,-0.019770787141784985,0.028996623148113743,0.042885349931228875,0.007370514184654778,0.010922910140306068,0.0258501108962994,-0.05529606075105624
0.021128364065230817,-0.01592453249715552,0.03342670329681756,0.05128563344429667,0.006907180700032852,0.01436056508897329,0.035027441423553796,-0.03623040263823518
0.015971160653424684,-0.016448312598823383,0.03275708569241731,0.049892391854979984,0.009982612694637627,0.01570469344258555,0.02233051856760531,-0.05048295723529996
0.014749416745520435,-0.016523510170409667,0.03296020726954498,0.04408117863225979,0.008494297391116887,0.018178864860513684,0.022670691846676066,-0.04338485529926592
0.01705248005010854,-0.018331758414770333,0.0319177896421802,0.04709061797641033,0.009122566949262214,0.012226211303759109,0.024770920785545436,-0.03987846336003524
0.018334729594137223,-0.0044854695829863915,0.03268829621785121,0.052158315658936034,0.016899559080605146,0.0249449002404076,0.02794397517958545,-0.03127619138682211
0.018863852169092404,-0.02064661805945853,0.03595636900001608,0.045050904185918415,0.011212784755857514,0.027052926475918667,0.028189501678672874,-0.054181208682555
0.02088904622744612,-0.012390407096112282,0.036617828071830796,0.05667231476223774,0.0164024995189257,0.020734762144327505,0.03428805634314024,-0.06474740664346754
0.016646226206174945,-0.022202245718777734,0.03783082708044093,0.05555694128551378,0.012836478013880841,0.01625907874463102,0.03007764827977782,-0.07029198835936987
0.017422754798245513,-0.021311620237020552,0.032212611182604156,0.05283040704702514,0.01332795740547763,0.021877633099784657,0.03454482810532025,-0.07621200056070895
0.021444786901919546,-0.009506740976012257,0.03764465697842354,0.05250387623448824,0.015605529430183023,0.021907339094822374,0.03969917589844258,-0.06369284234597582
0.019940914794634362,-0.00963428042559202,0.037999306539847996,0.05288711457023252,0.02419007437716075,0.021167407035929058,0.03764456730343106,-0.04463910453012772
0.02145375561433349,-0.011692359868465363,0.03812251668252465,0.05378128303806849,0.00761177669136388,0.018658848970919156,0.025486431618138957,-0.04790631945482927
0.012547888639559447,-0.024536718476497625,0.033168079730535274,0.04960659962941967,0.002416474708350658,0.016723526348684504,0.02473254618463979,-0.03324627791703916
0.023546540862513423,5.955287401212734E-4,0.0384101201843535,0.0532568096848699,0.015747372692533127,0.025824260141082623,0.032406845477607825,-0.014627129308574922
0.02268826190158144,-0.010962175508692865,0.035212729175432916,0.05555067755692908,0.016065714290144476,0.03248002990917974,0.039041501194791745,-0.016849982765748554
0.017925411725878443,-0.01226222739913243,0.03744527653797718,0.04880497230021558,0.014102920563287174,0.030652859826086842,0.04145609696957781,-0.02644895038430289
0.017364163577131643,-0.02392245264290621,0.030439950759825227,0.05059024159254372,0.007073978540786629,0.026023400167166522,0.025558680332648957,-0.032259369279943585
0.01732032601882303,-0.0104737142746112,0.03682375799344129,0.053995006686830264,0.015179777173280423,0.031734404880991135,0.04087780285464953,-0.02785149028691915
0.020257075203206874,-4.583235114786827E-4,0.03561941561843237,0.04877051756361355,0.013081309314462516,0.03192759148217639,0.04465780912739685,-0.015395054137506628
0.02132546688604046,-0.016733940995129475,0.03495068073434927,0.05442993783147801,0.013180298935334983,0.02651787289265868,0.03091961768740425,-0.024634507914900416
0.013419116441888779,-0.002640147726268135,0.030963990753924538,0.047652454566977386,0.011529581554079127,0.02787200451911432,0.023783862323766433,-0.003550983694640739
0.015269594782918056,-0.009689002972052316,0.03467777379815306,0.047678975957914815,0.009187390753735633,0.03166595768913197,0.03202204641521003,0.0029840257537901943
0.015963932736896624,-0.007638110286365931,0.03321068884153213,0.047869358459754215,0.015541660620819946,0.04215859274631266,0.0451028750151786,-0.0015297040398865103
0.016951789026714865,-0.007375598092420097,0.03278770702626936,0.04647528545176969,0.015207639388972424,0.03663040842105967,0.043257351239950045,0.0029019776202587784
0.013633419093663786,-0.01340977247066694,0.03049599557923511,0.050916353373774634,0.009237740300163664,0.03437386122945896,0.050339184099672876,-0.009980601033792598
0.011427654032497623,-0.021600545200125446,0.025082394714207736,0.04227887958560838,0.01335393246684865,0.03501421641406805,0.021302471949095705,-0.019045127119990315
0.013601319779882569,-0.009376285124576219,0.028183060300613086,0.04455287525433662,0.010692914650753706,0.030103459352706897,0.03543700986946868,-0.0034567086212191132
0.013087592904593872,-0.01939080493179385,0.025652504091550874,0.03700565464905627,0.00970114259901372,0.03175973875453316,0.03697516185777598,-0.0052648813731384385
0.005421393712571846,-0.008281041880441287,0.02719890468251892,0.03497967114434202,0.008586846793048048,0.032177945447050806,0.03739696255783888,-0.0023267819260828996
0.003777301749922142,-0.02210175701993707,0.021483559474321495,0.029379613746472272,0.01075544697283531,0.02165732767363351,0.04479932157833247,-0.007852922421290856
0.007811024299831157,-0.004925084973385561,0.01986828160345235,0.03858612719189231,0.008045298155403138,0.026402528595386998,0.025905900611608003,0.007977747991714513
0.003941258044566236,-0.011875112711327934,0.02192710850337281,0.028970087172682842,0.018646583788799662,0.030405779738298753,0.032596990441797084,-0.011963018027554728
0.00538782630348534,-0.010548211266750407,0.021396299030283103,0.030958741090255315,0.014146719513000578,0.024871420594481636,0.02898751178184393,-0.024141916659647135
-0.0037815548821881367,-0.013774366289442718,0.01479073952652678,0.025431010970052275,0.00944116791939722,0.019640671355107223,0.03439597693090993,-0.027208397006078813
0.0018448468166428337,-0.013205116753213751,0.016741609861361657,0.03513671458657391,0.020085570408744396,0.01779464514754663,0.030655298504958458,-0.02371571058468169
0.00716378593223711,-0.016516463795859925,0.014615295893162987,0.03236467493627508,0.01431216282039444,0.01423061365375859,0.02016965495018158,0.0040520615259166705
0.009270681544518709,-0.013228385388724648,0.016365574540179194,0.028112464433025917,0.009066429901339988,0.006691218236726435,0.031153118289672887,-0.04249757005880138
0.00646457035027064,-0.009862167877255384,0.01391814872758713,0.02463303257540656,0.0057598573671851444,0.01102266864561468,0.01964754124027401,-0.027564803388456065
0.004536517531726056,-0.010480123447798948,0.01505853843324031,0.029106559992910747,0.022421943546380035,0.027789219742840245,0.03684522903953493,-0.001601675427690498
0.008773430088787297,-0.0016364673526477502,0.021573043398105906,0.029628873375307556,0.02327588920809506,0.018684427561190844,0.03799070340086491,0.007983126484288262
0.005821457087493421,-0.013049899300801509,0.01607370574739964,0.02887587173643254,0.02647492951570737,0.02794181490797281,0.0384156708295036,0.007945601035111454
-0.0012971553582138342,-0.02434464690357667,0.009083877342680648,0.02703752161562998,0.016101451099981956,0.01923876678365552,0.021628411682646734,-0.014629036842525237
5.379205859674999E-4,-0.016968756782340836,0.00856753219406585,0.024712236580854932,0.021160907720823737,0.01838857938847523,0.01960580865823447,-0.002480452806758975
0.0056408607356620444,-0.014000274212407111,0.01858342389704747,0.025052166470321505,0.024075108424162123,0.02006723154763894,0.03166178580231126,0.011601519436247147
0.0038232257517402508,-0.016804129018490918,0.017537446729826826,0.020535951627987378,0.02337176167597445,0.012032505748545199,0.02005723962838874,0.011272959431532196
0.0035117101909647843,-0.013394590132762216,0.019750110593667436,0.02683954442715352,0.01901464855642044,0.016232144750374017,0.03408560500011507,-0.007273504049291058
0.00390636895409179,-0.01279695555782103,0.015252226280870041,0.027522249794717242,0.012237655170257596,0.014586830204121893,0.022554201707855135,-0.013286423572247052
0.00549211265109126,-0.00976694865149483,0.018910471951113846,0.02560884685970533,0.020989980859035466,0.02145807863148661,0.031224978911831992,0.025760444439106578
-8.789135121054393E-4,-0.015952581524927432,0.016620577104937535,0.027867574098640206,0.025661361108207416,0.025011112771863235,0.024089042168632082,0.011910947204791333
0.0011295522570379955,-0.009189146348846496,0.01595242280956033,0.02348812571707525,0.01921179925406131,0.017825410408164693,0.026580888906517608,0.01037463604041443
3.2837545971316765E-4,-0.018242094987556575,0.011422817805792728,0.02430300471519199,0.008045937173896685,0.009950933779910985,0.013088364451297916,0.006949887676141485
-0.008145749760128222,-0.018292006431336046,0.008750769855310704,0.015000277708345595,0.014605429982947636,0.01891062111251306,0.02126045580854615,-0.013052382622014674
-0.007055990457518984,-0.013007047610384875,0.01144348573970112,0.019200690387654106,0.0171991863329635,0.015123386381146348,0.02641241401394715,6.234457824210753E-4
-0.00395040347728521,-0.015814075091976378,0.013139816912894725,0.016022206573295474,0.008953967971011945,0.0093585679825472,0.01637545087901061,0.008217557536935882
-0.005193674817912381,-0.019375205195174886,0.007889681288071966,0.014495644506400493,0.008640341757559603,0.0029965882279640145,0.016570726202657725,-0.008354232418054807
-0.00872884598939437,-0.022804576219655443,0.007630042755742959,0.01737931177946292,0.005201385301488761,0.005814907703525284,0.007672567145822365,-0.03307777849064794
-1.7318842590475605E-4,-0.022632625383722408,0.00682300130885091,0.014741880235585116,0.012369879882605319,0.007902991665141272,0.015534367151337004,-0.014294424091867177
-0.005252027556955162,-0.019766562782962516,0.007263960916759966,0.010898809131396618,0.019258185390099186,0.0031875326119667697,0.0160862712169468,-0.007415793112943178
-0.008669476920883006,-0.0260207540967819,0.0014042071567868396,0.01201981362076372,0.010291301311969769,0.001007030148473719,0.010320041244513896,-0.026628742472847914
-0.009970060513856481,-0.020980268741341828,0.0017449928084998622,0.0064293481543408314,-0.0020051016577287664,-0.007699136167794033,0.0021795181072195658,-0.039086293517274336
-0.009859525811312166,-0.020862929114916412,0.0033546558446362084,0.012647586097012118,0.009988276613358304,0.002434206107606837,0.004863129098639684,-0.02231826590358216
-0.014775804322254447,-0.01926733937918537,-0.0015944047972828875,0.010532266779092254,0.00593505690207658,7.470246320943266E-4,6.584913729381613E-4,-0.02210064879985626
-0.009737768848341759,-0.01916561706243623,-0.0029374094911863253,0.007643026685704252,0.013459545315891245,-0.006120282871935915,0.01011910695538298,-0.03421583177784856
-0.016801023231242388,-0.02974530370677349,-0.003013585124369734,0.006216775963674315,7.416126658085623E-4,-0.005826980397367455,0.0012607639590318518,-0.05206659409390799
-0.023008737712163482,-0.034512843565051875,-0.004968385100473442,-0.003248891064463898,0.0034243653281769305,-0.00752785068785045,3.35004265200738E-5,-0.05225360803546233
-0.018434832973994193,-0.0197799948766632,-0.0059424055271475595,0.0033750133903273512,0.0075612154236360495,-0.0020531090292157817,0.002102579486870083,-0.04130386603651035
-0.014873735010210285,-0.025010521534022886,-0.004636252193078128,-0.0018013701500669338,0.0045535750106108904,-0.006716657541138692,9.452899346306857E-4,-0.03243671498844051
-0.02147741897358674,-0.028592915459998505,-0.004146070580728102,8.936660673974249E-4,0.005381072652708967,-0.010608944711132702,0.002463562416934908,-0.045736187122399075
-0.026749300348282382,-0.035579027296218556,-0.008102362473356741,-0.0010435669813350465,-0.0010907994810945944,-0.014739117026820915,-0.00777662835490258,-0.059753732754125946
-0.018030247998018525,-0.028409803213656125,-0.008859158805144391,0.0046610470338359165,-0.005764723881603468,-0.006498492185311609,-0.004529417569989725,-0.04010039239576517
-0.018024887700069502,-0.029268953997653547,-0.009010992484969418,0.004840703706374957,0.0023295245368532536,-0.0069048028558272734,-0.014022173464257841,-0.0367839975799448
-0.01467288100163982,-0.02356671421240861,-0.010830290643091019,0.003530898759908905,0.0024449873758144915,-0.006797915649907718,-0.0049624892752355146,-0.0272315348641625
-0.021645743258937693,-0.03328611271299452,-0.010481860008690285,0.00196901987904482,1.986160226816457E-5,-0.016341521770875327,-0.015040031366937538,-0.05037756473489475
-0.026104386275606493,-0.03560623014134911,-0.012574906663390274,0.005171554377598274,-0.006054505359816134,-0.013477477275116724,-0.004613545461230273,-0.05428583482961193
-0.014632491193514318,-0.030188610529567287,-0.010272403140472456,0.0038291257478170197,-0.0034667717949144394,-0.012987944155175832,-0.004400027020202723,-0.042492668040068425
-0.01806801296187083,-0.03455821543165555,-0.00702103043824121,2.737082851131003E-4,0.0021301963354826,-0.014081524889912551,-5.587704946033733E-4,-0.05456953907307082
-0.02029167904604141,-0.03235147886757839,-0.012877607290138444,-0.0010064473454630479,0.0021077576095899137,-0.012856959940128998,-0.013962364904999506,-0.06190140821711883
-0.024784713381347107,-0.057122572342967685,-0.0149329433994059,-0.0010039324141869815,7.727147240296539E-4,-0.01751206795032031,0.0013858138339831864,-0.08628298247533288
-0.01843649829090472,-0.03750912093308167,-0.011942846473472248,0.0045689145406980405,0.0019855513989517435,-0.0074138042045875305,0.0026913704365355198,-0.07092150362611147
-0.015400394960632717,-0.04153828745346177,-0.014110581854111187,0.006077551762259998,-3.359797647515297E-4,-0.0018375719577525163,-0.005653422664673203,-0.09270412762628324
-0.021958034448524576,-0.04439416929720916,-0.01115301253137964,0.0074197265914792004,0.00510464605097761,-0.008891183211796482,-9.775632790547453E-4,-0.08813895271348905
-0.020705677610257038,-0.05415271133516374,-0.01461694570418726,0.0058280322219053105,0.006370472655747697,-0.006653571136093358,0.0041998773809101735,-0.0862985336340492
-0.018914702380666806,-0.04071268178091556,-0.012166387213751864,0.007249839504032176,0.025594275953784718,0.0028244546142439423,0.026297915331471276,-0.02881372033188915
-0.021161692852963782,-0.049536168022613195,-0.013741251254398517,0.00415922534546632,0.00922106199260603,-0.0049693168361676435,0.008357703329395477,-0.05959816638306752
-0.01616303344815671,-0.04646306095343516,-0.009711556704319458,0.0037058645422534493,0.015140533460441488,-0.009307989506461042,5.562726486425935E-4,-0.051148143859465804
-0.0206319619635433,-0.03843326890334382,-0.013942314878152576,-1.554736008296416E-4,0.0030757625310480173,-0.013819273686011371,-0.0027204915890819367,-0.05934621572673131
-0.02083897879488408,-0.03672949672243403,-0.009223447894156436,-6.992039690171508E-4,0.00707802075764533,-0.007239451648660339,-0.015508180720421172,-0.06170694652800028
-0.015582126977010268,-0.03192915579848564,-0.0014850262289319805,0.00600942947680406,0.004000221173407763,-0.01223498063987947,-0.005244589473411065,-0.0652105109708356
-0.018202194031177316,-0.044941342595441004,-0.007820134455677741,0.008374553525655908,0.0049558198138306584,-0.007479198088086865,-6.37231044117612E-4,-0.07309618219333791
-0.017496908177218353,-0.03553121788836452,-0.009367723647359156,9.968935173245443E-4,-0.002889497060314745,-0.007915878022744025,-0.0012487977081054988,-0.09813985522999386
-0.015496610218888342,-0.03950660121839249,-0.009662416208532958,0.0068410565935827505,0.008093323420642689,-0.014153768781781904,-0.01201297971021446,-0.09723468923723148
-0.006996444910495777,-0.030383348156421377,-0.00991231023838084,0.007453611046669525,0.0033293968587115937,-0.005777975769297144,-0.006967039589237656,-0.07368093504573116
-0.014662942087765578,-0.031016668456466143,-0.00659854605998981,0.0057627748562971495,0.0015732508821492777,-0.01772631157868346,6.152138445229808E-5,-0.07690913877434649
-0.016980453538200026,-0.03816228599242102,-0.008820202555998363,0.008432838547496952,-7.430405009212175E-4,-0.020823248354330557,-0.014340301002600798,-0.07482137671442704
-0.020612274357543123,-0.0351800776646505,-0.0075897700097223054,4.56831352086156E-4,-0.005064937565285775,-0.0215343470609652,-0.014288453911459302,-0.057547508022115494
-0.014191729060021177,-0.023788189427641108,-0.007448762793236602,0.007324157749499742,-0.004532556154804116,-0.02287604404011588,-0.02280251592835269,-0.026729552263293047
-0.01875632208731718,-0.015579278919115747,-0.007182307090890566,0.005681930100381338,-0.0017884141756230598,-0.01931662385842465,-0.01846779222774538,-0.027500123649415776
-0.014391007745863155,-0.026395575906143044,-0.0058548373378529564,0.0036220940181276766,0.005218855658757615,-0.015551842913833451,-0.009406891289721858,-0.055793237704231884
-0.017697519427012944,-0.02468363278083585,-0.007364884197470988,0.008567540761959152,-2.772660745752388E-4,-0.012919953808486468,-0.006069889093478461,-0.04217009174648071
-0.017727819578363523,-0.035407606610763726,-0.009179864359594982,0.007279141100813941,0.0028392834410071893,-0.01312721126937311,-0.014167099045103373,-0.028909798031434484
-0.017536326226736947,-0.02649555881156238,-0.008368958985928546,0.002359359635497391,-0.0036919514312874447,-0.015419513953275987,-0.009532191715037544,-0.05267415037188367
-0.016856801983901396,-0.031729853436050344,-0.014349566991898372,7.670987155044811E-4,-0.01171450278199508,-0.021347052320355452,-0.017017905041429627,-0.05982455014100061
-0.01217101238347406,-0.03536430321109516,-0.009625358765798604,0.002122472717390754,1.2913475289039726E-4,-0.010446849133509174,-0.0025624545685502854,-0.056211996757162305
-0.008900354982859078,-0.031997872918229,-0.00856413071305951,0.0031923201484527863,-0.0018126345223718008,-0.015933720019479958,-0.010965943939250202,-0.028795929957458263
-0.011474837637009364,-0.037493468714053235,-0.007912277493294225,-3.3629257559846594E-4,9.481608164057738E-4,-0.017564883507276544,-0.012436227875117077,-0.0462238103081963
-0.011173395272645053,-0.026111338836127363,-0.014110765844546364,0.007287524113291839,-0.0043379220322547485,-0.021691139740384613,-0.027145219870372692,-0.049564351408420186
-0.015374518427337518,-0.03534743173849606,-0.012028646505557588,1.9750853695786028E-4,3.684317014319861E-5,-0.016871949720988096,-0.014887261376167719,-0.0410714502171608
-0.01163728791262297,-0.03600581997043889,-0.008796696150185421,0.007481605908262038,9.464772802577033E-4,-0.018295571592306645,-0.018089161566954476,-0.04453799318895001
-0.02309283078886341,-0.01993909058741248,-0.010082194072481654,-0.0011974524489557084,0.008264989241744361,-0.02143611554125148,-0.019280247829526413,-0.03785861847929296
-0.00836360942755656,-0.028120436899970423,-0.013191352418342897,8.171986258043631E-5,8.370754882032226E-4,-0.017260127807545357,-0.025818448146696982,-0.0536621766614243
-0.019209240461915786,-0.042319943145258145,-0.014726324014520481,-0.005883040226849504,0.0013871633218157035,-0.025220852222122603,-0.020374682330581702,-0.0758674813214743
-0.01091883371581061,-0.042877367066105836,-0.012128831913200603,7.424381591444801E-4,0.00482528285435942,-0.01188794340159155,0.006740219045180929,-0.06972680974023827
-0.012266508784304976,-0.03900762841448758,-0.01419010823904721,-0.004172089409131998,3.372064906563473E-4,-0.02083497427261471,-0.022193051334008083,-0.06899414608801589
-0.01484813504637721,-0.04409293389340092,-0.015187528342946337,-0.004880212107421788,4.8213998596491353E-4,-0.024385943200202043,-0.01264220167910065,-0.06704750274699758
-0.018050995573849316,-0.04478455558796033,-0.019126071148587977,-0.00952644562194959,-0.009695532308744492,-0.022348645783558593,-0.02374154742488655,-0.08172405504470552
-0.02055479941509923,-0.03692189801130041,-0.016175109576774014,-0.004941998052311361,0.01177113647008843,-0.030632491480516954,-0.02347316232336318,-0.0806850924561377
-0.01760756763587644,-0.04848330924285393,-0.012913895064735923,-0.007157736444050145,-0.007700111828039711,-0.03119829182292775,-0.023863794177791303,-0.060546395651039746
-0.020938859764691346,-0.03084880056600988,-0.014713711567020796,-0.009379418211305265,-0.004853843211363004,-0.030594178169872453,-0.030926978982777173,-0.03590930376339141
-0.017356189912709184,-0.04366209955284794,-0.020861734929359842,-0.012617124808099912,-0.009260671036200563,-0.03531478272536924,-0.03754904286269181,-0.06658280286758086
-0.018411276460759206,-0.045113191603234216,-0.019685891844049515,-0.01077059511297714,-0.005498600826546302,-0.02531508311423487,-0.027812642927942357,-0.06976639442961027
-0.019750791311560646,-0.053127469912988154,-0.026905205554172567,-0.014384489978819293,-0.008133665708204224,-0.03628311989581264,-0.036483568873741656,-0.09655111579128356
-0.022260399977387282,-0.05235344901196266,-0.023236405506331638,-0.013157158642409728,-0.01031775848364111,-0.03381571373754086,-0.021096293159034624,-0.10330330361874387
-0.025923652318711327,-0.04905111526960662,-0.024255753052182617,-0.01887080301483942,-0.010406224992125885,-0.035569015515155206,-0.03567696880607613,-0.11498069828333976
-0.023579375390965343,-0.0556714232491217,-0.021319246615670695,-0.01229886497766839,-0.015896223607759496,-0.03337890566342344,-0.03169992614507291,-0.09498721102569344
-0.019252749098353065,-0.051639966963982674,-0.023708097662934732,-0.013626367673576374,-0.004263731183741034,-0.03991843519939592,-0.025310387938583447,-0.11179828246397847
-0.02666789547180143,-0.054051922806180014,-0.02217058858316865,-0.012659897865369961,-0.008758224451768937,-0.03325276495691118,-0.034359588271219724,-0.09349109654287505
-0.022541788816548013,-0.053767007860267495,-0.0289588730546669,-0.015355522787901385,-0.02138931417760376,-0.0397810772074225,-0.038061477256335026,-0.08777269911056179
-0.02444913622313455,-0.044419788789300675,-0.02478263791392618,-0.023187177250183908,-0.0039514654655679795,-0.036674785446167014,-0.03545571424119245,-0.06479648001331799
-0.016646834514715908,-0.0453144737781435,-0.02435227454945706,-0.010218094266471826,-0.0012647092974393864,-0.04119560574503762,-0.032491917993824386,-0.06906771870331435
-0.0231538423073544,-0.04929777333634931,-0.026778342487784462,-0.015588140087080172,-0.002756783493965078,-0.03482079513957988,-0.029912072568951342,-0.08412987662320717
-0.02867581132282021,-0.05219080411633005,-0.02490493169877025,-0.018127054636853754,-0.012612607716681297,-0.0454889121431616,-0.04879695006946424,-0.07829354208498776
-0.024852768370978565,-0.04400342462208518,-0.024528109930348024,-0.0206611831691758,-0.0073439037916295385,-0.033789116415308094,-0.04108172191880034,-0.06065841417480844
-0.01994091170460169,-0.051103296024134784,-0.02556088301369381,-0.016118482503864766,-0.004531922921688094,-0.03197701665505864,-0.03678415984704019,-0.06430536819772657
-0.02421788369977373,-0.05616780819325527,-0.028331131501212543,-0.01706224815888553,-0.01520573504827695,-0.02728323176109492,-0.038323847896728505,-0.10003929777669462
-0.02451737908232541,-0.056890344827641035,-0.027090171352081194,-0.018609629776645664,0.0023684526642974747,-0.040990424695605654,-0.039648909301097865,-0.10764575354498163
-0.026587885443083662,-0.052281666658020955,-0.027888801884125056,-0.026361213120438483,-0.012206052547062602,-0.03621357607328852,-0.03836221852409643,-0.11036242568815877
-0.02323216762747748,-0.05075964292698171,-0.02708614092805401,-0.025274276426969222,-0.005754423574212845,-0.034368434098590826,-0.04576051346493372,-0.06426011708717616
-0.028469280384515464,-0.053051053058188406,-0.031049888382232105,-0.020850717919290003,-0.015134697496300017,-0.04077907745819046,-0.04353483055025301,-0.0810081836563993
-0.028560976307322933,-0.06526439938526032,-0.03214511469153377,-0.019481226568187633,-0.017695649475187522,-0.03396944573425505,-0.03596241582866391,-0.09824584930637131
-0.030939746301038205,-0.06013652145520631,-0.03230260094080378,-0.01986710064926808,-0.012250346054402964,-0.04389697091388535,-0.04278007796926956,-0.08358743241572672
-0.02691663190928225,-0.046275718335854865,-0.026649017774334913,-0.016772906569061698,-0.012515000650826178,-0.033402259457031895,-0.03687142683498163,-0.0810426557555024
-0.020083927462817633,-0.06369126538990086,-0.028838507455667753,-0.023307209357073016,-0.01086711928743975,-0.043639978673423695,-0.03902332320165121,-0.08643886298531266
-0.026348125511541618,-0.0687297803446522,-0.030387716775981205,-0.017639936374042313,-0.005290937376553341,-0.05048690102282967,-0.035198204891906684,-0.11472129382533892
-0.029483161523614132,-0.061809780564845575,-0.03160571150056648,-0.02475259672630845,-0.019831794478693456,-0.045760017987296654,-0.0389567846072879,-0.12575281164053384
-0.025866385718388476,-0.0576238269408462,-0.028473922343635633,-0.025467923431768635,-0.012984013391666428,-0.03696663695834435,-0.026997555857930365,-0.08086570712049533
-0.02340961346395322,-0.06217211592794834,-0.034048842195685894,-0.018914150694233398,-0.0041479539697554515,-0.04124248593921183,-0.039090696501596696,-0.09387951990870325
-0.025805327933737177,-0.056539799366124154,-0.03888555291632249,-0.021683399476533284,-0.006756559222036357,-0.034450485688516455,-0.04299968749346053,-0.0984245709997749
-0.03132738014262515,-0.060041235790731055,-0.03506049014181142,-0.03202008313968251,-0.012899776584523955,-0.042776954851841215,-0.04823489574773281,-0.08857811357920138
-0.026075511643533097,-0.05430483225810567,-0.03678842136413145,-0.02959605913046071,-0.008495279829758872,-0.03910032530783466,-0.0462138936212736,-0.08265258333980095
-0.031274653873310215,-0.050681380564714267,-0.036459385890279576,-0.028814082957155752,-0.012233799439354345,-0.04288204563515941,-0.03719045856621562,-0.07147627987298658
-0.026632468056216982,-0.06377937860831688,-0.03342550551055906,-0.02831336492976213,-0.011334855400736839,-0.04681441186825463,-0.043491130610380874,-0.08360436062804258
-0.025953570408018826,-0.06211337815979569,-0.03494039343536108,-0.03294767748449744,-0.00751388386223995,-0.039397737725156166,-0.03848110065096727,-0.0888860651054798
-0.03355720401934368,-0.062062910291843784,-0.04035222400312983,-0.03614533412953982,-0.018887710435493355,-0.05840155194050229,-0.05086267090331124,-0.09420520332687832
-0.03539205466922004,-0.06576778677587723,-0.044009510768844774,-0.03672651249723065,-0.022010639213255443,-0.05215125948594554,-0.05205820613195906,-0.12735954169955213
-0.03501909553000657,-0.06895162189338327,-0.04434122535533021,-0.03269036830131885,-0.010815601423694077,-0.04542887529965177,-0.047535233511130225,-0.11801293772319196
-0.03462563991623993,-0.06890116278400421,-0.04573064291297416,-0.041118691404801594,-0.019393289003243743,-0.04740286285475924,-0.048681476613235235,-0.12927985036400147
-0.040793341980857975,-0.07489780386334122,-0.046025297267613785,-0.03706244096213726,-0.013847141428069306,-0.05236226996050628,-0.052846117485003216,-0.1323764210515745
-0.03325312473784792,-0.0742368236180769,-0.05139673748339289,-0.04124751523968228,-0.023892543523519102,-0.055576411129136284,-0.05300829232541111,-0.13970503602334586
-0.03913461601423349,-0.07229910130759082,-0.050409807120296246,-0.04066711590848903,-0.0094502086152979,-0.05585523916927393,-0.039939163017658534,-0.14399755508699444
-0.03930762977668678,-0.07185467606868584,-0.05037683207033889,-0.04612782407270779,-0.020423032008773965,-0.0600833779483173,-0.05383148851658979,-0.12838150227839715
-0.04381217418361069,-0.07208480396910369,-0.05109909864573077,-0.041459104015113796,-0.016445432243971752,-0.053280895976596576,-0.05891101710932083,-0.13267834814020923
-0.04623394114689144,-0.08022638347219686,-0.05337092047277113,-0.051117353055323764,-0.02400115697610088,-0.059789181326634855,-0.05876054121968752,-0.14593335683776043
-0.050150118231194765,-0.08573683304697038,-0.06033261721259273,-0.051401899159340486,-0.016725253286752367,-0.054908632987079986,-0.0621417551362314,-0.16542180172348564
-0.03964264336755554,-0.0807312198161774,-0.055932860587668824,-0.047718366340792726,-0.01414788117536535,-0.05045940639426694,-0.049243713293748125,-0.155288122672034
-0.04694162245108969,-0.06964360738392855,-0.05425947304673266,-0.043107193844112025,-0.012361907164211712,-0.05690184963262361,-0.06032256117395564,-0.1423527056297997
-0.04741394648593035,-0.07514735432435976,-0.05690271712347648,-0.05051247991430275,-0.02866237899415995,-0.0564865270920932,-0.058107433737128664,-0.1401165865118021
-0.047647128453573925,-0.0702726418014404,-0.05892237570996374,-0.05559667137129927,-0.021526348597516964,-0.05650759547212147,-0.07002630931832993,-0.13727722492256547
-0.049132808710025025,-0.07714098612348959,-0.06029766134963683,-0.05804992676529249,-0.0243094947069777,-0.0656054431469542,-0.06317805540367788,-0.1553083313217199
-0.048096632186166534,-0.07045593862766472,-0.0563663942873563,-0.05037909087474027,-0.03336775543595802,-0.05814196269389278,-0.06166566698459535,-0.12440318599297727
-0.04736339830185866,-0.07279692788834796,-0.057603693930451734,-0.05210886943177542,-0.02856081150227125,-0.06082101572700587,-0.0605539441911418,-0.10770546216746259
-0.04611784357510924,-0.07757909004710167,-0.059573869767418706,-0.050289885845827276,-0.024189958807080005,-0.06080805424464451,-0.07487155014512814,-0.10981546308683043
-0.05133725000539588,-0.08719106936911701,-0.06037132991241964,-0.054480126139087884,-0.02835490479457473,-0.06428831856793879,-0.06961793730344092,-0.1517240035596647
-0.05458203456038875,-0.08932167384058648,-0.06380774572922811,-0.05636854601958133,-0.03325746258264043,-0.06655888137116295,-0.07038589842578322,-0.1687608340537174
-0.052866135432246,-0.08723685818388066,-0.06220910518809729,-0.04941765948468963,-0.018221617573929857,-0.053035784925891505,-0.0504985883217361,-0.14543995141143562
-0.047198519057502844,-0.08810320401067485,-0.06292016527857558,-0.054910746935250276,-0.026525628725715227,-0.0563653378807865,-0.06169177084514483,-0.14688446279890638
-0.05012533019557573,-0.09144529004934357,-0.0642226099114445,-0.05474238333282417,-0.02970077530673547,-0.06444640064578372,-0.07144634716687365,-0.15565825297501282
-0.05131231987796165,-0.10057892295286776,-0.06793445209568422,-0.05511433065058279,-0.03238414196918574,-0.06321756458448022,-0.07101269186957732,-0.18118886817767044
-0.05123469635186929,-0.09022620940879283,-0.06571732447828223,-0.05548772409210958,-0.0341332802470037,-0.06252841413185779,-0.05635847443687445,-0.1814533483953812
-0.05429690173921977,-0.08110140515136015,-0.06303812992554737,-0.06081773808994889,-0.023624682842355752,-0.0634964782684751,-0.06437470086504218,-0.13102394577615464
-0.05157401465655404,-0.0836499321880954,-0.06602044014164939,-0.05775172452748898,-0.03028979947426563,-0.06576822516199121,-0.0731394340788529,-0.1467286393585428
-0.05320989229732661,-0.08886737808474823,-0.0684819568366668,-0.0501720777239168,-0.03287439951543028,-0.060516751219809026,-0.06404349348784628,-0.15446075913339283
-0.05063883217209183,-0.10158978088875896,-0.06880049264387207,-0.05762956997350813,-0.03779945780781781,-0.07261335667673705,-0.06802521673614867,-0.1913352703795243
-0.04685556209085461,-0.08018215308137451,-0.06445721939653193,-0.05630834233756318,-0.023987408972523473,-0.06045041868579877,-0.05352458903860817,-0.1645473612036139
-0.052681863965705185,-0.07798552807809826,-0.06334247210152896,-0.04470934669524505,-0.027228615786880097,-0.0618342501896669,-0.062121387358211703,-0.17363599832375176
-0.05082436781578439,-0.08880822944400767,-0.06303798259295972,-0.058816710650870734,-0.02952196133990563,-0.06907837866073933,-0.05711910433732202,-0.15482925606736017
-0.051767886337054744,-0.09382969960351392,-0.06891976563422897,-0.054269949435333115,-0.03467508930240778,-0.06523035000059921,-0.06435495809900363,-0.15568715103524722
-0.054642338501209683,-0.08966912258063872,-0.06945830514354297,-0.057857002507035446,-0.038871006410563395,-0.07307470646277325,-0.07105285665325567,-0.16057539700937318
-0.046967010871583975,-0.07421273766656235,-0.06272192884228009,-0.05253015530858257,-0.030529280678792247,-0.06924076523283178,-0.060974777467185076,-0.12831635875005526
-0.05120354888293417,-0.08333477259655592,-0.06282926793838634,-0.053595737573714435,-0.03949894655745854,-0.0695952310795263,-0.05832497015073515,-0.12945285296227718
-0.04826171512533744,-0.08693869318210387,-0.06859867528623079,-0.04859036703652348,-0.030252797328329594,-0.06505109126255168,-0.06904395599837894,-0.13796542634652176
-0.053552576211035124,-0.0929800190037148,-0.06140635931978321,-0.05720914463765566,-0.03156896447951299,-0.07457872144325287,-0.0727585461966353,-0.17779892279394308
-0.05208326953218202,-0.08801001757932822,-0.0634780001787598,-0.056217720152627895,-0.03206192421988194,-0.06863774958567397,-0.07505448874539225,-0.1659645109283126
-0.04752992200673658,-0.079079739346,-0.06040905915020259,-0.05290046838103767,-0.025875377896197614,-0.06433059839564607,-0.06113053172937118,-0.15433308121499484
-0.046384128291659846,-0.08097929031785969,-0.0567053705888771,-0.05309912162263925,-0.02517488552847145,-0.06493868387894768,-0.062212074115333256,-0.1626160389198369
-0.04528282568605382,-0.08972745977929962,-0.056744553530959016,-0.048208259324057215,-0.027834694406822506,-0.056284482447566606,-0.06634485972337305,-0.18339328152408094
-0.051374858550206105,-0.08799863462350144,-0.058685061788052384,-0.05276039813419256,-0.03453554437963772,-0.07712063307260245,-0.06980239622742831,-0.15938189132566183
-0.04601655184459018,-0.0799019033899543,-0.059654321686282076,-0.05329754539553704,-0.0286685807245659,-0.06528497595325253,-0.06905596171114678,-0.14046682028076649
-0.04548145907636152,-0.07204977112974514,-0.0543677410520012,-0.04783291212345106,-0.02374583305529115,-0.06095829542049244,-0.06889798651165217,-0.14058747797617013
-0.04229183846967968,-0.08068645643664106,-0.054995771829579904,-0.04829000804257786,-0.027098693660120035,-0.06992551075230184,-0.08012268816189899,-0.13746714999745888
-0.042888727374449105,-0.08049890684242714,-0.05563872100125941,-0.048741808567559185,-0.03330991652864657,-0.05900441452818889,-0.07267967000906275,-0.1540430161691811
-0.05189887726366273,-0.08109421473790332,-0.0598391472995026,-0.053216947085651035,-0.032353935805214486,-0.07191278333765726,-0.06466950671152744,-0.1744906913954227
-0.04357368926033218,-0.07145784457633214,-0.05210091400897014,-0.04885933455787481,-0.03162318978407044,-0.06820389023544134,-0.06332282527976656,-0.15635322246884154
-0.045743694719539645,-0.07650406753073072,-0.056237444100465446,-0.04600792153745725,-0.020258831694888305,-0.06044787171437225,-0.06358929582420085,-0.15198470211026263
-0.041192333855967114,-0.07416465023865099,-0.05518253039246383,-0.04570176706689415,-0.014805331953322986,-0.061054850174026065,-0.06524649074524512,-0.16212544638173174
-0.0495569983855178,-0.07877350757466593,-0.05678233389202515,-0.05026862902943312,-0.025252079443603304,-0.060242263621545576,-0.07068215209989293,-0.16859136584724058
-0.04551159964880665,-0.0787752225205038,-0.05711564600333351,-0.059934848454820416,-0.032713441106730634,-0.078535154870601,-0.07714401107404592,-0.1431884783865402
-0.04051554176475054,-0.07042910206931739,-0.05489312679304305,-0.050981332153888184,-0.02299637275358979,-0.06512732149887024,-0.0747702484412386,-0.10888414203477305
-0.039789308013389105,-0.0654752384074762,-0.05891658204190554,-0.05078149992631079,-0.021908056014874194,-0.0660857596378283,-0.0624094357102927,-0.13490931670105938
-0.0407162267276276,-0.0614420358145504,-0.05984194039411629,-0.053339159119205934,-0.02246872545397511,-0.06515263082293254,-0.07715088931282796,-0.12831763531059948
-0.044188386423970986,-0.06168186618847906,-0.06341551645622258,-0.0636741913992898,-0.028728600284719092,-0.07420611238258783,-0.06715287225385215,-0.13804685941534253
-0.04851687558991895,-0.06955181640386505,-0.06379470090944481,-0.059617644897107656,-0.03792715658849786,-0.061836893735921446,-0.06679225713669376,-0.16069227169368425
-0.04202554626607787,-0.06830458273158833,-0.05721787463453819,-0.05515188690706692,-0.030058206844538485,-0.0734308509188204,-0.06408382847862822,-0.14256339552831976
-0.05234237817227733,-0.06876357101727085,-0.06598854630722945,-0.05217239295421936,-0.02843012646534457,-0.06885157481506227,-0.06629203254087554,-0.1472376771087858
-0.052012696660691214,-0.0678769438372639,-0.06438675694728219,-0.05716245390355845,-0.02542769720951147,-0.06377743368048214,-0.06623881743035984,-0.14582131115296007
-0.06011660154006759,-0.07723492524775237,-0.06928532581610164,-0.0675480058976041,-0.03161946522041639,-0.06982596867287458,-0.08149571048889036,-0.1554489465684546
-0.05065968019241698,-0.0672614648254359,-0.06742548628900961,-0.06571352064355507,-0.024969771180186676,-0.07034166187500125,-0.059906016049975745,-0.13035844971842483
-0.058074857550759036,-0.05987763718970374,-0.06687789221380522,-0.06670203298142757,-0.027202018110931068,-0.07064307863141263,-0.07372056374283345,-0.13285164567209176
-0.054403426203718144,-0.0669882673210559,-0.07058475698449211,-0.06639148849302175,-0.03047799306048524,-0.07249045264933825,-0.07842963056855129,-0.12281579562509379
-0.06185075863174898,-0.07070527862912007,-0.07015927226703428,-0.07649834152290853,-0.03174637990989768,-0.08038090089681675,-0.07762876838366024,-0.13961746248713833
-0.06002288677182396,-0.07703665061999088,-0.07445039100963781,-0.06797434274717754,-0.02893021105177572,-0.06976606147735193,-0.07743581665025454,-0.14160311032217626
-0.05224708449439942,-0.07218251724538013,-0.07518360186357144,-0.06851071726780437,-0.019649608475134753,-0.06396588365840689,-0.07348112828674762,-0.13830732649748267
-0.05478135409311324,-0.07267685608067807,-0.07149433053721671,-0.06993115673130533,-0.02855733610347115,-0.07902535501266066,-0.07099441670642134,-0.15780298459272268
-0.05616052265834411,-0.0747103906599434,-0.07563905441180897,-0.07527100448596286,-0.031168871687953282,-0.07389771918228084,-0.0821370546654681,-0.16253353494531214
-0.060453796961025805,-0.07209966485786541,-0.08017856852027355,-0.08312915696548813,-0.03473566578714171,-0.07897572915259929,-0.0810240048507543,-0.16517339485882998
-0.06225076065101592,-0.07854540993923112,-0.08133559484773004,-0.08444978189759844,-0.03855698101101128,-0.08073374205348183,-0.08863225518251351,-0.15263232532830523
-0.06069299808126159,-0.0727754092492891,-0.07947957976658086,-0.07720985848673007,-0.031475194853794485,-0.08454021781336468,-0.0805588299195217,-0.15181074995508773
-0.06673264143823111,-0.07245341065234713,-0.07777391524335753,-0.08130403904358943,-0.03241782197447561,-0.0825846272289693,-0.08245309464618499,-0.1464988815260201
-0.06899918961977097,-0.07683832466062591,-0.08360956853600063,-0.08946228426497606,-0.03621999627778451,-0.0771063400827633,-0.08953832414037334,-0.15036817310612363
-0.06685390203562594,-0.08421180187422127,-0.08041931746061352,-0.08907901583475021,-0.03619074019677692,-0.08686254858256538,-0.08345162142436223,-0.1604471211140088
-0.06340913143369861,-0.08518857343691565,-0.08421480122877759,-0.0820821762657069,-0.03232583541623562,-0.0847632894199196,-0.08153990611427166,-0.17219758012207131
-0.06583265135474653,-0.08385843804956207,-0.08171931896139165,-0.08180840188910717,-0.03645037711304229,-0.0810476209622284,-0.06686327386026288,-0.17780883122515884
-0.0620699748165484,-0.08015366272223516,-0.08566644817997435,-0.0861668377176223,-0.024852972893139428,-0.08063674167855267,-0.082749341926498,-0.16974197690219633
-0.06906457567860558,-0.08292562752962915,-0.08884066792793709,-0.08928153247953163,-0.03802662544771061,-0.08386721644111078,-0.08902881185430929,-0.16876445353240987
-0.06920619156991138,-0.08930609180040354,-0.09377665807493485,-0.09214348901565271,-0.03562607259595102,-0.08900313884800115,-0.08378529103138714,-0.19420883338288053
-0.0649219308007083,-0.07632655975364513,-0.08755695053606281,-0.09064917714555257,-0.03499489140365411,-0.0822890458552968,-0.07005128360939357,-0.17374222122626926
-0.062291138070224565,-0.07068896476097362,-0.08688162269880963,-0.09189720399326265,-0.027631138865664085,-0.0838833119182836,-0.07832531544973992,-0.16348838461241638
-0.06589051200118813,-0.08141907284867136,-0.08532542565449112,-0.08917416706667282,-0.033943257109852576,-0.08845279816452256,-0.08158941309375349,-0.18287000301772816
-0.07220350270938791,-0.08889273705208571,-0.09322987700097027,-0.09301243359740323,-0.03952903643397792,-0.09339607157225838,-0.08380438869832925,-0.17026957488774924
-0.07101972226646289,-0.08404984199484299,-0.09057037711544742,-0.08630352232373606,-0.04465358024175986,-0.09112269410342941,-0.07091056560187775,-0.17905503748269933
-0.0640151595288989,-0.07871147181438899,-0.08702692285159935,-0.09158860022129929,-0.03440153874283575,-0.08618972109077096,-0.0800054462240473,-0.1584898558207128
-0.0659419330767762,-0.08282646527649198,-0.08590334483461007,-0.08072681969726295,-0.03475783574507446,-0.08648242132076799,-0.0811708292460296,-0.14921024357005788
-0.06685139042567215,-0.08463795844076795,-0.083629461338312,-0.08828543882694645,-0.029942679965194896,-0.08253529666988801,-0.06875765702078604,-0.1744479214081643
-0.06986072634778985,-0.09022535813657553,-0.08674213565824332,-0.07772565252491367,-0.032207125236176255,-0.09032715957067017,-0.08550423581970877,-0.16822119479889694
-0.0697275465008097,-0.09310917408737017,-0.08676524090531414,-0.07933885788118653,-0.03720162034544284,-0.08117587971707398,-0.07928898645920245,-0.19731477752801505
-0.06364008753291833,-0.09012333530197986,-0.08050503643790521,-0.08269918363729524,-0.03377674842420862,-0.08313011265604389,-0.08600363842347436,-0.17575866282272884
-0.06302194662937273,-0.08616288481552413,-0.08082071948856136,-0.07926944844255544,-0.032409997716842734,-0.08196490571375356,-0.0860751714667886,-0.18938290053911935
-0.06803363778012635,-0.09647322804351553,-0.08220836169233149,-0.08696378609019907,-0.03237136967905639,-0.08709539936697167,-0.08280902666056916,-0.1800978960952154
-0.0684752618126281,-0.08573946186873863,-0.08529628064934103,-0.08405514677362166,-0.0340036695410662,-0.08947479306405896,-0.09240237939465128,-0.18586700661625555
-0.06169639269619971,-0.07943655588188572,-0.08107712031379424,-0.0845138576762165,-0.03589490268355687,-0.08968062093073598,-0.0809289226576366,-0.16003175250258775
-0.06352999047383752,-0.06943835804160005,-0.07848390029080402,-0.08844894096282449,-0.03417059161004195,-0.08157380563438617,-0.08917953291506049,-0.14870852886039623
-0.06322265830701788,-0.07321641860901429,-0.07830850391991863,-0.08344845290196333,-0.028999839333153057,-0.07820032753674473,-0.08132979288194578,-0.16657061298166817
-0.06404156856485671,-0.08018345097605124,-0.08152068340174755,-0.07827199629890261,-0.033765165502520705,-0.08259645643309259,-0.08487947142070565,-0.1666115206755164
-0.06558954889717221,-0.08263626545274988,-0.08226094334138878,-0.07596650763016648,-0.03224156544707075,-0.0782695532695131,-0.07859966007767438,-0.1885817913075057
-0.05766630644469472,-0.08611100826397294,-0.07671274496758042,-0.06752138978301055,-0.02243061082880339,-0.07613607775823825,-0.06477496701934517,-0.17726863960605727
-0.054955116089637754,-0.08242878062554541,-0.07712545947115106,-0.07364538613518957,-0.0274984846291341,-0.07418837491814984,-0.07393212469352378,-0.1785835859105967
-0.05853173605565713,-0.0805292663879355,-0.07471866246759462,-0.07731642057976645,-0.03482959777406753,-0.07543403753117779,-0.0710119564849047,-0.1973384266849249
-0.059715170955389384,-0.09199600864200908,-0.07828875973330819,-0.07875739512156694,-0.03121790037398131,-0.08599473614539964,-0.08088892706948947,-0.20504469872763537
-0.05486046069440544,-0.08078519951919377,-0.07418264776410066,-0.06973558196011322,-0.025406792548208615,-0.07828443349020549,-0.07518656828961828,-0.21266944366007995
-0.05370400054325843,-0.08056449802281411,-0.07124583577966268,-0.0633559688721963,-0.03252558855813885,-0.0768825505174948,-0.07600164235449652,-0.16910821433476983
-0.053230081034775466,-0.07479241141135165,-0.06942018542267844,-0.06729536283351502,-0.027344323398487212,-0.07046449388471489,-0.07057870855451519,-0.17216527260582407
-0.05612002633341321,-0.08121906597918822,-0.06768707670893664,-0.06379080546184925,-0.02788165954536536,-0.07838903988130391,-0.06619225478583647,-0.2085670860523898
-0.058499399559870074,-0.08476302046109256,-0.07346927283899297,-0.06059147884488855,-0.031249076077697866,-0.07568671790662025,-0.07020421118608723,-0.20764438527634252
-0.05578397412972193,-0.08205444722474141,-0.0665136900480396,-0.05280838458296393,-0.03161082805544258,-0.07280953315016132,-0.06688522961723771,-0.2115365397164822
-0.04839822623164669,-0.07162805601019716,-0.059311243367542135,-0.05445986761357538,-0.02806974428621122,-0.08112984817047307,-0.06056619862847562,-0.18266511288426807
-0.05229467307983098,-0.0585915904515656,-0.056446967049974914,-0.05311544392319379,-0.023169738563242764,-0.06470113735315265,-0.06687937890536794,-0.19202998462872134
-0.0569690766499815,-0.06710350551829634,-0.05960189916596691,-0.04973335376866678,-0.017806156288402233,-0.0719406632942296,-0.06557616047829339,-0.17616464195520615
-0.05886979383531589,-0.0783019084238861,-0.06110647886129413,-0.056678729314290154,-0.026650273401772867,-0.07596640908443662,-0.07502526723381776,-0.17216557587682857
-0.05139220024087643,-0.07189187048213691,-0.061032339053648625,-0.05127267895211877,-0.026117826008603174,-0.06582130390406736,-0.057283883392179026,-0.1794796088102418
-0.052137987987218345,-0.07330742370075267,-0.05791745189679438,-0.048703738662780334,-0.01778799901378789,-0.06689299228034286,-0.06398468224245359,-0.16724457679842106
-0.04320456612701756,-0.0683006306362433,-0.05244432917209179,-0.05019774223483099,-0.02175648709808843,-0.06728097232214829,-0.06239697096918151,-0.19517140900790753
-0.05127465939209023,-0.08202255609888601,-0.05685003257581776,-0.03673979936966886,-0.02809754021200181,-0.06713594429445953,-0.05708376534110398,-0.2039039798516439
-0.054674011947262506,-0.08625832165053728,-0.05856246566890918,-0.04036765937201565,-0.025057545732814976,-0.0660444794951662,-0.047000641679297,-0.21935228827953623
-0.04644376974127107,-0.07648056613762305,-0.05439158128771505,-0.03735562207280054,-0.009470207593069335,-0.06134937826540153,-0.04960131165004289,-0.19772398818919756
-0.04731699159387151,-0.08421905247501585,-0.05218367707237565,-0.037217618592605646,-0.017523657803478605,-0.059818626919453555,-0.04897813868688954,-0.19677438823412194
-0.04692732680766539,-0.07651614864313265,-0.05203220261856617,-0.037980466044851696,-0.02582026890457601,-0.06808282526503254,-0.05185528573073182,-0.17573461169382262
-0.04873623909530808,-0.0788663870103003,-0.050182077956407244,-0.03796784207076174,-0.021008793533382895,-0.06377368381692083,-0.060801674272181055,-0.1791463842438789
-0.051669778330303416,-0.07882772354593483,-0.05050615733588269,-0.03753914437674277,-0.020015294661995135,-0.06453585144331343,-0.05548294927119839,-0.18275409018380237
-0.04943947550838039,-0.06366154136920078,-0.04376106225095311,-0.03948673934722896,-0.017651681931406194,-0.05947756316313955,-0.05123460593838381,-0.15621893128574874
-0.04184012639052882,-0.06499783136846662,-0.048456386385204706,-0.03841704966423541,-0.015608857749299944,-0.06264321601240028,-0.06107458724681963,-0.16617656521320265
-0.05209762907819006,-0.07040798867855759,-0.04907892247717808,-0.04013747417092931,-0.019223519492928203,-0.056742283667525456,-0.05128642085092231,-0.1751238762207611
-0.049585953996413475,-0.07601632012688533,-0.05082541147145288,-0.03827184845959115,-0.01873256494886223,-0.053922086805892396,-0.05036360292052201,-0.198228044596162
-0.05176173486859017,-0.07915141541309868,-0.05663152079213956,-0.0368600725923249,-0.0265681588052903,-0.07181341587306038,-0.05503568176865192,-0.1953810830458343
-0.04405080212927173,-0.06830364206836226,-0.048859219211444,-0.03685859430499406,-0.0191582561508315,-0.048240577603773996,-0.040441519839877274,-0.16150025754693076
-0.04656542040386433,-0.07382616232887054,-0.05185960774684286,-0.03674808260833047,-0.018672699100399856,-0.05796185931826755,-0.05023763266073353,-0.16441209018097003
-0.047654870120553736,-0.06868413646440234,-0.055231950946352415,-0.03977193455124958,-0.02151170011241333,-0.059233617868386684,-0.052145435502795066,-0.14211509428020552
-0.04551175738440125,-0.0756862582727523,-0.05551967769996141,-0.04586715359588892,-0.023386553124089826,-0.06600279263469845,-0.056340939600930444,-0.16223292107317358
-0.04630008533444276,-0.08214859347982328,-0.056864324009986256,-0.04731572187882083,-0.01903014015460333,-0.06723604760971073,-0.05496012413166266,-0.16963275343274262
-0.0416361168149277,-0.07647622692852915,-0.052281974123054006,-0.042742216139166525,-0.021879072848282576,-0.05904695801933521,-0.047415525699571213,-0.1726604163778244
-0.04548614666446798,-0.084234608578834,-0.05091859055520299,-0.030140348119618403,-0.0265671464916542,-0.05188471485744562,-0.04656620870350202,-0.17685033616460524
-0.04300642830337463,-0.08015251456666263,-0.05085159775757456,-0.03302881303327794,-0.01334078999734926,-0.06216367847389266,-0.03809698689459431,-0.19513773441882562
-0.04360594208426388,-0.08294301734184108,-0.05489187814289963,-0.041730707188152305,-0.02427512211702132,-0.059977717002547455,-0.04782032712296274,-0.20806061190498187
-0.049974057626414256,-0.09120706015208939,-0.058130920653845196,-0.03968553945354723,-0.03165198546788844,-0.0627097778529027,-0.05411556525173047,-0.2155138332619215
-0.04344532067007408,-0.07881456363112196,-0.05193040141327678,-0.04080069405371382,-0.018993257842997963,-0.05311285464535584,-0.044649803971962214,-0.17998151803826912
-0.04157510047503864,-0.0750485899203545,-0.05497494350227355,-0.038221096978244086,-0.02128322973054287,-0.06368386850075426,-0.04618657880392485,-0.162607021336547
-0.04517520018220926,-0.06323573543413946,-0.057534960643904,-0.04164734544049593,-0.024355495616205806,-0.057201624491125876,-0.05450916097507792,-0.14398519971907475
-0.052451234238915914,-0.07511339809499296,-0.05805414665389671,-0.05322334784111485,-0.02524184458125748,-0.05970314928984416,-0.06406632915990725,-0.17357884043616822
-0.04703571707585148,-0.06901713805422745,-0.05801915986962576,-0.04880904974856916,-0.02628660948504591,-0.06142430208413728,-0.06484705877565435,-0.17080560155396504
-0.04805399040854548,-0.05861227484373665,-0.05257158848627958,-0.044393520176845086,-0.00857200012154608,-0.05234381546432647,-0.05310180298183298,-0.15473475533877168
-0.04535930214779032,-0.061149286155349675,-0.051478367937716776,-0.045769974467626214,-0.02701208464969878,-0.06635920926873708,-0.04271591233718675,-0.150598778463316
-0.046399838407963793,-0.06709595153487989,-0.05190310596179587,-0.043051206414470335,-0.023477412492212104,-0.05768947386098111,-0.04574046471000358,-0.1665483827006654
-0.04054313655849459,-0.0841231678589714,-0.05577246781961883,-0.047017305665122695,-0.02392440773850861,-0.05881045801927727,-0.04892226632945608,-0.19285692134004045
-0.04442544477020475,-0.07311262839423842,-0.05000530886196625,-0.03521264883088379,-0.01596791791412122,-0.05567412382889788,-0.047073681738792776,-0.17785070319196145
-0.03532747715196589,-0.05381780654928261,-0.04628247852019649,-0.03542051188964808,-0.0228019876051847,-0.04754177503201375,-0.06001188021131572,-0.1547993280408289
-0.04254829475768804,-0.061590759636549246,-0.04929111758125502,-0.040945854769366435,-0.018156771541756517,-0.05984446546767297,-0.0457965583876635,-0.15249249217197675
-0.044801729562117046,-0.07645527952268971,-0.04741098986846338,-0.042150876793755676,-0.021220029301454692,-0.051658979798356916,-0.04354288564511682,-0.15714484887727284
-0.04467126097811265,-0.07556264330914327,-0.05202461879676455,-0.040806241831170736,-0.019238095444665246,-0.06346304868694583,-0.057734852194225375,-0.1687513432467717
-0.0430138260349263,-0.06815052075007272,-0.04762794417596517,-0.04135800569610964,-0.016623631950181388,-0.059347315571826396,-0.03693896000587521,-0.16757317864254068
-0.03866193860265111,-0.06218035497956872,-0.04460487760476186,-0.03492256400220666,-0.016641729776029394,-0.055186573917294784,-0.0448372294178999,-0.14682496546149382
-0.0370326729045908,-0.060199229532538166,-0.04489304576989429,-0.03718164251523519,-0.010171450863737318,-0.05355645509404427,-0.040647055933047814,-0.1637048982815229
-0.0344786010656001,-0.06909589606926757,-0.04844908166052156,-0.039423298063442386,-0.019591616551544132,-0.060943834916065885,-0.05508116528685723,-0.18966158739049233
-0.0421371410764131,-0.06597281090848882,-0.04952091474322446,-0.037322266980118916,-0.0237531682087392,-0.061187509487972844,-0.061855179781797894,-0.1997970756762807
-0.037343322924580535,-0.05961090019272631,-0.04341896517034907,-0.04052731503024037,-0.019223420166249745,-0.053813368475969,-0.04423224979305578,-0.1744936392412419
-0.04105366109801435,-0.05252373009586936,-0.04367445229156824,-0.03467288518851028,-0.016903817369609782,-0.05144765809270516,-0.04536355646416872,-0.1631143799772136
-0.035505762815862915,-0.05211660528946623,-0.043315310240252876,-0.039884411094543146,-0.006343778109571605,-0.05450321294027525,-0.05221356999727218,-0.14295204738942957
-0.04240729274723121,-0.05549882030224488,-0.04578687874534106,-0.03532422192547062,-0.019893578649763148,-0.05739257824799677,-0.059631847949568516,-0.16297251233749915
-0.04125698483120622,-0.05766855923645242,-0.046543291480555575,-0.04386228948586832,-0.020950769595891462,-0.052572891308170104,-0.050986716530216115,-0.1523482422521957
-0.03790744661618944,-0.0552542120738175,-0.04202158825284942,-0.03888542635123841,-0.011841018046142866,-0.058632258210917755,-0.04514716099489877,-0.13926584808826625
-0.04366636401083287,-0.05879723139415636,-0.0441066100040287,-0.03940863319774356,-0.010591480105792871,-0.045851901239130896,-0.054199386516231345,-0.14988069720742106
-0.03870246670716309,-0.06131875925789137,-0.04717802719995249,-0.03414574060187723,-0.01566713607585763,-0.055171207419821865,-0.04306308496179829,-0.17389752486743085
-0.04080543967745366,-0.06110253178910211,-0.04842624281203889,-0.042427591487525944,-0.014791136548457045,-0.05833876022114705,-0.045889302221231325,-0.1771289502775363
-0.04157575343038671,-0.06978251903818995,-0.04876396299120485,-0.04348076141663812,-0.020630844829611767,-0.047519543676613665,-0.04928975189506294,-0.18132539115363594
-0.03739144414827103,-0.06345022642853315,-0.04732349324780764,-0.04426637309776344,-0.0049029680380614825,-0.052209494918568994,-0.04985131873044833,-0.1589502151732161
-0.0384202567958703,-0.061261280948268604,-0.049056740572973954,-0.04458715670978542,-0.015269578166051847,-0.051700523806212734,-0.051135973966309776,-0.14785447085829362
-0.03661422797720566,-0.06712721258017844,-0.04669619104428552,-0.0424004464697877,-0.008916495272198378,-0.05836701104676877,-0.060066746814840435,-0.1652562542693659
-0.03895051987414803,-0.06289248417559794,-0.051900806590826666,-0.04274227346202331,-0.027326444569086786,-0.05483542544616467,-0.0638492552514063,-0.15271025108872055
-0.040141320402087684,-0.06330346854586717,-0.05166733062248596,-0.04348626239988956,-0.01737262489322301,-0.05637173336036606,-0.05111301481076254,-0.1480673917661261
-0.03672389396292905,-0.04746576267416543,-0.050775069001997866,-0.04599857485422262,-0.017908192722140285,-0.05112931692484155,-0.05782173867482382,-0.1337251393873667
-0.029789543131379007,-0.05239011875792362,-0.051319837223478805,-0.04226159402657682,-0.020796889284864697,-0.05196534994827139,-0.05822894283781022,-0.1407789714287664
-0.036858024196627974,-0.057837540901099264,-0.050803942156450184,-0.040460458090887816,-0.022167273333261267,-0.05929950766850909,-0.05750374284407174,-0.14108463058059728
-0.04142969162604329,-0.05519886729590617,-0.05239858305481449,-0.05113719076403114,-0.021796716503750303,-0.057237419760873286,-0.06985989484320494,-0.15318521415115147
-0.03938718358829231,-0.04849247438059767,-0.04926389107542853,-0.04662135536290788,-0.016512438333195496,-0.058313577292348574,-0.06419646108624777,-0.1564515279805429
-0.03325888302342409,-0.05599902772200679,-0.052399632120768924,-0.04710587738550984,-0.023920269620989167,-0.05562245293301635,-0.054301380904195715,-0.1425312337046578
-0.03788303082060806,-0.05563703661971297,-0.04873687469664329,-0.04766313594679947,-0.021176908027903972,-0.061583966861204036,-0.06796841630897357,-0.1518116057717981
-0.036589405314365143,-0.05882712926331749,-0.05147655798176711,-0.04890323627205185,-0.02121369736372882,-0.05814621603835872,-0.06577826235180438,-0.16243475499553447
-0.03991556617725636,-0.07154268400666239,-0.05625069727723656,-0.0539852193518373,-0.024496145609108767,-0.0633577141579976,-0.06440189792722587,-0.15606688968010712
-0.03465324839768698,-0.06205224184805003,-0.047890730536659695,-0.045129187340119115,-0.015282643276232117,-0.04981651107295622,-0.04840425612752737,-0.1516924261389778
-0.0348806411276303,-0.06707771884151759,-0.05005811511894609,-0.04801949744400286,-0.015448224840794745,-0.05509389987313341,-0.050187101592200814,-0.14764029220137523
-0.03554088898615191,-0.060420424428473,-0.05310076010716799,-0.04374297919595302,-0.020589001784026326,-0.061465651583285666,-0.055572119692632836,-0.14504402334114816
-0.03656952317314197,-0.06195806626356425,-0.05181241485474232,-0.05035898648074901,-0.015149796443828373,-0.06657675839602474,-0.05909594968132549,-0.1766851848047789
-0.043556295824339473,-0.0681735304432565,-0.058145914652620784,-0.0549246726435765,-0.01646072693862936,-0.06034786646980032,-0.06376639769556361,-0.157783889722668
-0.035448940625576124,-0.06374486259008834,-0.05159894164867296,-0.04411650740843638,-0.008351921116613979,-0.05856897756026596,-0.05475267038119055,-0.15308137850781425
-0.03439633277253651,-0.06235660089807792,-0.04938374446617692,-0.04407320467292293,-0.012709611650850989,-0.05755030132304443,-0.06067656511305961,-0.1469920466650661
-0.037825599793022774,-0.05751274675493333,-0.050795348919953576,-0.054991993304347134,-0.014854559617544607,-0.05958315153110471,-0.06826982796530702,-0.12817079220201133
-0.04161341145734819,-0.05553799359819622,-0.054073046992451565,-0.055483894513804054,-0.0181224360923466,-0.06316243208944913,-0.07233077232730073,-0.14908993720382321
-0.042472944307300316,-0.06416665940555052,-0.05376924303113367,-0.052958255418832104,-0.015438058569457689,-0.07102205780647594,-0.07977262368530548,-0.16477833329452404
-0.03589321627277291,-0.05628457174973194,-0.05563470072427714,-0.05286292335232656,-0.00978560038617674,-0.05914714513548591,-0.060117729827173345,-0.14153445685440674
-0.03675519382933573,-0.06518975919757387,-0.05532107018684056,-0.050290769487499484,-0.006985825907899626,-0.05781000089455536,-0.07188526815938834,-0.14959952397867018
-0.04079124687719419,-0.05765833726006915,-0.05233219286990719,-0.057851972558437166,-0.010889432925784967,-0.06472145504058274,-0.06827868798159124,-0.15928067548364827
-0.040983426521781635,-0.0642901307873012,-0.059795409542091386,-0.05163937546799514,-0.012393416593598886,-0.06817466948196148,-0.06967545521611443,-0.16814776017881358
-0.0371210232427809,-0.06638576414416206,-0.058495703936212236,-0.05415966950832733,-0.013160143168048404,-0.05912564003435119,-0.06818145355612845,-0.1692394831773688
-0.037124713770014243,-0.06042294289427079,-0.05026646011498519,-0.04820814031490175,-0.0051940310452783115,-0.06070735326179011,-0.06424194529295499,-0.15298091041600315
-0.03478209644678401,-0.059458127652583764,-0.053635029219798964,-0.04251292036693218,-0.010746094598946168,-0.05766205985674205,-0.06821004926914757,-0.14603500510311176
-0.04025388145439108,-0.05822624971176973,-0.055428042381785315,-0.048140176672632276,-0.006872255409311791,-0.06527697326980014,-0.07961295109306311,-0.13834075367461016
-0.041369402820939205,-0.06716937185697656,-0.05957664980251094,-0.05107503983446112,-0.0064422054153123005,-0.06376563747345347,-0.06303157598966651,-0.16270398623476254
-0.041682368731836894,-0.065836541458355,-0.056523079515558294,-0.04858351239176069,-0.01420579900807189,-0.06699028661437426,-0.06828825206386452,-0.15365201980704918
-0.036058208819299796,-0.05239816027573335,-0.05309456926688353,-0.0415974805303573,-0.01225403643353735,-0.0700493721710934,-0.06865372449227085,-0.14926882866876795
-0.03713309611413712,-0.05823951283024353,-0.053142556044846634,-0.05141867672569014,-0.0071013069431993285,-0.0639917382456481,-0.06205516329044507,-0.1491885364073052
-0.044238379625438425,-0.05435051980382994,-0.055801622943150976,-0.0518158992494209,-0.014766278063686107,-0.06444643853659353,-0.07973015596822176,-0.15691440225146114
-0.046164498230775064,-0.05558000931819806,-0.06071426864844416,-0.05287656630991237,-0.013510788304263874,-0.0689031980147695,-0.07540351365577784,-0.155072177964952
-0.0478848555071125,-0.05793689919115653,-0.06126582894051626,-0.061070311993138254,-0.026568096756422195,-0.07597318818912653,-0.07979910182755484,-0.15806814235448288
-0.04095856654762121,-0.05234296944106103,-0.056279587471220485,-0.055788397076821254,-0.012163190956660005,-0.06602676567312239,-0.0790472942616052,-0.10212638355768637
-0.04148296929857966,-0.03629902553922365,-0.05813275872926578,-0.061494329666940566,-0.01524954811246555,-0.0760606254628385,-0.08361686310434248,-0.09337241875199453
-0.04132005759705501,-0.03431036094875531,-0.05882826128907047,-0.06884149818030721,-0.012316686412297141,-0.07521443703067211,-0.0819974607976965,-0.09805599647088127
-0.046974242593201106,-0.045418385652400375,-0.06337799233267502,-0.06804105801868277,-0.015157700772520034,-0.06869874059469261,-0.07846813481523274,-0.1171321298256505
-0.04786384741275351,-0.056387521108805704,-0.06324606493771091,-0.07164745444775991,-0.01856865957440606,-0.07740480055811509,-0.07997183506648523,-0.12559754271905083
-0.04486275832887158,-0.04737973281614416,-0.058313026192735186,-0.06256382852535998,-0.01704386039294879,-0.07053663081238812,-0.06805114722693273,-0.11205562427351823
-0.03834231823586061,-0.04279941924631913,-0.060539933216015904,-0.060888696433029216,-0.017071898499664777,-0.06777740282010777,-0.07690350528551247,-0.1177070830568656
-0.04030388357752158,-0.05154595289899556,-0.062405944817368615,-0.06281427691061199,-0.02277975198871483,-0.07404233108774139,-0.07415547891284792,-0.11103304333837889
-0.046306816247738934,-0.058769890520245616,-0.06356631540165028,-0.06505834041022274,-0.022495675094067847,-0.07344512202479787,-0.07997374051161121,-0.13126566217675692
-0.04073740295237165,-0.061680497233820526,-0.061763069887834844,-0.0606769165796567,-0.023575461096113533,-0.07309550460582871,-0.07591118930320795,-0.14798172150492972
-0.0341456296273868,-0.05400817479546241,-0.05930043093546628,-0.056622158383019636,-0.012594119890654535,-0.06676522851180258,-0.08022773095807102,-0.12489456571926007
-0.040463521053290645,-0.03931005670782164,-0.06539833717422575,-0.06676671267640699,-0.017527999384245086,-0.07520042101930052,-0.07247865828622198,-0.10718599166748978
-0.04271184500736888,-0.04963306531829773,-0.06257145129080734,-0.06661174535726472,-0.02656166176192413,-0.0739717004637374,-0.07999845446835434,-0.10745539132727269
-0.04648775174165142,-0.054510055621672375,-0.06820942350394123,-0.0675167690687495,-0.028000583426896927,-0.08062918007623486,-0.08530561231743576,-0.10965162369984638
-0.03992056705028673,-0.03685973578620447,-0.061207619984069574,-0.06746336848217463,-0.01948534589648068,-0.06967229003840779,-0.07785604974946772,-0.09864340501235928
-0.04239187349545999,-0.026610758243449432,-0.05155782689854215,-0.06388763422302324,-0.020580404460194997,-0.0750785861595098,-0.07719347009772146,-0.09395486941850029
-0.04487803125881835,-0.02379544885092524,-0.06237292314687529,-0.06410692244313988,-0.01769797008341161,-0.07596604755050684,-0.07692101042230873,-0.0891120224405561
-0.04616797983790566,-0.04137122003183591,-0.06676256228913853,-0.07092415543249857,-0.027123959379723627,-0.06990427785522337,-0.08440922466036113,-0.11663139114781147
-0.044913668665874595,-0.040408963622398285,-0.060564542255536306,-0.06039578358738204,-0.01901889946508963,-0.07936253968397444,-0.09014116533813704,-0.1038274162429309
-0.04009540686885937,-0.036868714685332794,-0.05741541966942862,-0.06827513871983133,-0.015972630046646844,-0.07236151240110672,-0.08274474844601064,-0.10932243608359342
-0.04025210772280679,-0.04336080423776248,-0.06049705835093748,-0.062690729579685,-0.012840103124457262,-0.07098979581639252,-0.07305164534531033,-0.11833202135712927
-0.04630017642281633,-0.04741968020537223,-0.06386006656854393,-0.06982929262586543,-0.01964300159560915,-0.08038757805575432,-0.08440219541501913,-0.12758746232758392
-0.04764334465861425,-0.04881300211661269,-0.06419740718083257,-0.06930721820345755,-0.0203335518833407,-0.0801664431137165,-0.08230744433834701,-0.1245252112113314
-0.03480062226932705,-0.03303772570078538,-0.05433233643659093,-0.061682864106459116,-0.011127640603286517,-0.06900804144779603,-0.0595097106397096,-0.10718989794899506
-0.03931173074840407,-0.03476015977433693,-0.05418608034689082,-0.061896711020387164,-0.011633608667922839,-0.0688158978067678,-0.05995879439502413,-0.09299870870371114
-0.04405994381108806,-0.02972410390604047,-0.05249800576669099,-0.05281677661368046,-0.01140068868519635,-0.06950695814993273,-0.06178656786173107,-0.07784192338089241
-0.0450800314762982,-0.03611060703818377,-0.058212268136345786,-0.06294105082678342,-0.01750815359179348,-0.07119758702754295,-0.07844654363157604,-0.07007886975527299
-0.045221914593504414,-0.0296562642072583,-0.052741508456882594,-0.06191534297177272,-0.015058255114328008,-0.06666931591622888,-0.06701375088742378,-0.07743942369590438
-0.03467051027655197,-0.02824200965197967,-0.04997487529253512,-0.055588599201820785,-0.01026850259580594,-0.06859225030371041,-0.0652928323670277,-0.05583178860252999
-0.03395200588107743,-0.026094578200717623,-0.052556665912145785,-0.05754007146256852,-0.010630775236732481,-0.07268570290823649,-0.07231960390140464,-0.044735246173593535
-0.035129612786950454,-0.022473699825467323,-0.052215868434293954,-0.06153451742422249,-0.01573197446338675,-0.07554571191836565,-0.07312262991507809,-0.04276815232970542
-0.04160113785662006,-0.024851783110089183,-0.046850851277886574,-0.057644181968424635,-0.018810734485029602,-0.0790914482507184,-0.08271783049204974,-0.045386620561864884
-0.0425999143059619,-0.010506160784187986,-0.043223361706672264,-0.05805041548026794,-0.01028394176443237,-0.06816346390352243,-0.07159580601892016,-0.034006713035603785
-0.042354200023796605,-0.017899163639775027,-0.04623759712428624,-0.05607090821247096,-0.01884186617781391,-0.06329384071925043,-0.07796906060334631,-0.03602606414935907
-0.0365544240321839,-0.022057735904033704,-0.049084288902281475,-0.06009437435892168,-0.010366071770399821,-0.06971684658824492,-0.07682089069587991,-0.03700207966150964
-0.033081756362733604,-0.033070673422386364,-0.05273388896276013,-0.05339066514332429,-0.012424172072535492,-0.07369756892215877,-0.08094581205939747,-0.07758379895920876
-0.039868648811390614,-0.032906804660467234,-0.0499506911409984,-0.05237608638676695,-0.018842396780809345,-0.07650568775909325,-0.07027973809557442,-0.09594453090739197
-0.03618179513791693,-0.030244132424023486,-0.04757161857510715,-0.04994431225678485,-0.010296203303178717,-0.06485178350414723,-0.06001855884934602,-0.09856804128084411
-0.03210928199192777,-0.026374173354463393,-0.04503023234198335,-0.04960837380437796,-0.0243870978505748,-0.07439262976895003,-0.06837074113627369,-0.10445750241681667
-0.03847512655721757,-0.021607740486200584,-0.042931693330776254,-0.05326018284659443,-0.01675690610748354,-0.0797634685664286,-0.07231464215068004,-0.083541715257924
-0.04270220703199004,-0.026465608348466115,-0.04974068485286994,-0.055863795700040846,-0.025031463288046205,-0.07139678277452008,-0.06863701013070858,-0.1126709772476786
-0.038222946322505405,-0.02605770863261832,-0.04557686726404868,-0.0462527985189238,-0.01953041837527609,-0.07264410571759401,-0.05539241836843312,-0.09974288462869609
-0.03586478122908403,-0.0319440582934402,-0.04207964368270884,-0.040862142072033994,-0.01569198327907697,-0.06958468541702827,-0.07034770910615736,-0.05872705739443846
-0.040201956865636906,-0.014930273966831942,-0.0510815989835753,-0.054577589209578004,-0.027381947412134653,-0.07454965981647882,-0.07934584947686338,-0.05182398138865266
-0.042016812841357006,-0.03266861668833634,-0.051376706305110945,-0.05220358709784546,-0.021904154423740396,-0.08684363711254896,-0.08051818694694717,-0.09564300620894575
-0.045274513236081,-0.029748947906489506,-0.05288172558557955,-0.05486647470726396,-0.023765123923912893,-0.07694122077891732,-0.07629618604131232,-0.08637255770429951
-0.03914739611025875,-0.02124052351788644,-0.04859764071099798,-0.05579438353034561,-0.02010527110171613,-0.075717270082528,-0.06903029284867154,-0.09111314649143326
-0.04238894870349755,-0.023523157314962836,-0.05311999656986841,-0.05068730300759584,-0.022424400258376775,-0.08008242647796032,-0.07295597225927229,-0.09546661027072675
-0.04526171660873633,-0.027698186766695776,-0.054996391976041184,-0.05672198598365032,-0.019453895875267736,-0.08262386396172368,-0.07535752848204479,-0.10235168582427416
-0.05076787288573684,-0.02877029612723649,-0.055065554904547176,-0.05519848850554381,-0.0327420843327384,-0.07834230999362911,-0.08871485117598127,-0.11148164462865123
-0.0472773300919899,-0.0245085395135164,-0.053700188217641796,-0.05972081348233303,-0.029015771230519682,-0.08266070615953434,-0.07355779546939131,-0.08983217850931552
-0.048596988111412574,-0.02796948899311137,-0.051827100587118036,-0.055665098055617784,-0.025443685314580296,-0.07859755849472458,-0.08609422847362562,-0.052176288237606505
-0.04374316528432184,-0.021472225227124917,-0.054065930594600284,-0.05938859206009325,-0.02612475295608797,-0.08418300606866048,-0.0945083713124962,-0.08562887224410173
-0.05206064720426066,-0.033551998942237336,-0.05630086844465754,-0.05375163252292941,-0.02892698933468924,-0.08155493320928894,-0.09359563416144069,-0.08567829023680837
-0.05616036637632384,-0.0386718518821823,-0.057527408446545344,-0.05609062207867027,-0.02560968432740032,-0.07909236327983127,-0.08809539020746868,-0.10567552724017618
-0.05270880102854374,-0.04934922723459155,-0.059886670166621685,-0.06345751103915202,-0.029631241645492166,-0.09307172719373488,-0.09301582851932726,-0.09524338957288407
-0.04644310224767974,-0.041512704238844754,-0.056370747002111005,-0.05206677541362994,-0.02199773813909711,-0.07690726012804106,-0.07887343512420529,-0.08861069586370243
-0.052361024365789384,-0.044864689266481225,-0.05515034184015459,-0.05600571195238895,-0.030130475133278257,-0.07930420859573187,-0.0829143065942914,-0.0861038444133402
-0.05264971964770018,-0.04104749627035912,-0.05381371466584806,-0.06091536376502335,-0.021028564840546406,-0.07470981062706038,-0.08243009846019846,-0.08649991056755393
-0.04809820953609637,-0.041402897737961006,-0.05640505817130786,-0.061471199086373544,-0.027408334051787806,-0.07831656714796457,-0.08910678732344783,-0.09495030534329248
-0.0514279904327993,-0.04583176192250399,-0.06265588834572186,-0.05856426886049786,-0.02540232191889754,-0.08305881872559076,-0.07833197600960974,-0.10699826597597122
-0.049983758942325,-0.045702121609315145,-0.05631571472566821,-0.05802734290216909,-0.027911492265562114,-0.0711061852761802,-0.07547718139757491,-0.11988273470105067
-0.05091836867900874,-0.03503613811052508,-0.05973196808985997,-0.06507493270487874,-0.02980136042421145,-0.07434733412837358,-0.07666806351721929,-0.10177624016620457
-0.05157685842261947,-0.03502075071802094,-0.0543769056686527,-0.06389054841499972,-0.020001785705776477,-0.07922272061907355,-0.05411463612750182,-0.11349511313465648
-0.059382477360828176,-0.04022819596414148,-0.058172631423449576,-0.06707023200170019,-0.023751483965725517,-0.0724187168745641,-0.07569993781408449,-0.11738209752237658
-0.054041106323990735,-0.05325776972641745,-0.06434296773020678,-0.06696020329991084,-0.029207023678105553,-0.07496323316208318,-0.07053622569820456,-0.13031862441043807
-0.05079471291761485,-0.04026415274455691,-0.062362812663650485,-0.07023727290671572,-0.034983012214996605,-0.07178662911280977,-0.07738143097986262,-0.11109485257337405
-0.04271237650860933,-0.03675231993513909,-0.06092904806119796,-0.06531884864597447,-0.027404301290163337,-0.06954864973520482,-0.06457583463594195,-0.0984786895165137
-0.052209600192779745,-0.04071479684366423,-0.06311952548139638,-0.06740727395294838,-0.02412966030278149,-0.06920606757607209,-0.08779579230384306,-0.10800339083013244
-0.04997806420633831,-0.04664860809354781,-0.06157638607289208,-0.06742652167912393,-0.02336983548625504,-0.06624421583082842,-0.07406751271910382,-0.11240201204755265
-0.051678641853288715,-0.04471261544358651,-0.0654985691883559,-0.07020934161517219,-0.025881983101443868,-0.07288875128325513,-0.07786285269845485,-0.12321294099466339
-0.050641206299426166,-0.043046256743478666,-0.06267947866688849,-0.06490042782468734,-0.01906271067870605,-0.0701088290304129,-0.0806463043926006,-0.13404685195322183
-0.04811473463522956,-0.045963393643714795,-0.0604411428608854,-0.060874349341799264,-0.020663152152359997,-0.06412066877077022,-0.06884065909010141,-0.10158533214179913
-0.04836447665573466,-0.03931028836521686,-0.05682049334365108,-0.06741464792134891,-0.01794402588463435,-0.07372348698663986,-0.07193142633661104,-0.11651733163871918
-0.04351449598001884,-0.04288373262754261,-0.059647306442720475,-0.06800736304898217,-0.022784015213687378,-0.07602292455540322,-0.07342110659605336,-0.12504040279040782
-0.05123744364169438,-0.041425244444101006,-0.06240497893562478,-0.06914271640054549,-0.024496514606368716,-0.07236393334867335,-0.07529453384345866,-0.11412549872028693
-0.05260980531538856,-0.04894775418181761,-0.06281175967454557,-0.0694368437183771,-0.02590038959765764,-0.06616181045713895,-0.062049238006256065,-0.1258905150378559
-0.04208805623779158,-0.03607749174513281,-0.05980091045241969,-0.06287211720999845,-0.015496794453865089,-0.069451749361897,-0.06456027508971945,-0.12115403953652847
-0.043863672905964796,-0.03567841060003274,-0.060914870084659824,-0.06943260773530119,-0.025035216514942192,-0.06792977062387533,-0.06620968474101319,-0.11127329322995676
-0.042750832620649104,-0.034144299184337853,-0.06457857526359462,-0.07176589371961785,-0.023254624291675137,-0.07623438125440514,-0.06672878294177699,-0.09460082863509439
-0.046194840209158886,-0.028116840212116797,-0.061172443682330574,-0.07241932084569434,-0.02911083370506485,-0.07614938781315288,-0.08114994054010582,-0.10127866803430143
-0.05144444479954545,-0.02592916824971632,-0.06599000343680028,-0.07534466709216912,-0.02505663432614717,-0.08127193932778544,-0.08884531452080861,-0.1119327132499999
-0.037195621954820735,-0.023678156815256507,-0.05759164002990655,-0.07511657920910152,-0.019925063128053117,-0.07340901133691212,-0.07588488400895424,-0.10328043909063568
-0.03758655175578765,-0.024584324426816066,-0.05674807534806733,-0.07117303570966055,-0.019381813706569672,-0.07363526784928133,-0.07345730419563656,-0.103324285348408
-0.03825057670414528,-0.02867184727647393,-0.05994878359382885,-0.0764081184412608,-0.020712352282525902,-0.08030460208832417,-0.07760793807743137,-0.11221489443510478
-0.03930104681565586,-0.031480928213404896,-0.06078063712230592,-0.0694414613146832,-0.02160426290863545,-0.08042377194866798,-0.08428910666815533,-0.11659424962907448
-0.03892346775288474,-0.03766649302157674,-0.06627140909772126,-0.08001374085721102,-0.021645308786298365,-0.07151102032088219,-0.08696978874100555,-0.11787208458752745
-0.04161743336611904,-0.036881572263878754,-0.06277059939589662,-0.08408364519879845,-0.02504839301195329,-0.07225311743132981,-0.06685087924447272,-0.10949941898362196
-0.0313366016847206,-0.0239355836308973,-0.058175977552326764,-0.07294980193828461,-0.02069985385479484,-0.07724802162953136,-0.07512026115773335,-0.08478656885572303
-0.04177131154691882,-0.025476988980746042,-0.061830759030445645,-0.07872119971010019,-0.019908419328383893,-0.07115144224820752,-0.07587494737505492,-0.09785687523020412
-0.03617770252111354,-0.025001110527889454,-0.06105633336833937,-0.07842601160597357,-0.017734897264078342,-0.07760931723860294,-0.08557677936324284,-0.09895700910338777
-0.03816418741499704,-0.03421815114590363,-0.06409002522933042,-0.0824386141340908,-0.02009207883870061,-0.07862946811363185,-0.08828780685599028,-0.09368581181127135
-0.04561296606629635,-0.032022639431002475,-0.06583643489602772,-0.07865686190819018,-0.01691946328782988,-0.08210900789239615,-0.0796824602483524,-0.09390843456933853
-0.035914784729406964,-0.0289198667595962,-0.06200485749410338,-0.07692689054537549,-0.014596147919441,-0.08163767950998164,-0.07724449472572588,-0.09929281069039046
-0.037166551148112834,-0.024749866532084355,-0.06314040339803406,-0.08294949805340437,-0.018177057727947893,-0.06964790792419172,-0.07948969516414627,-0.08242133704909471
-0.04146056876842416,-0.027304208150989717,-0.05984890465956852,-0.08208665841130501,-0.021983233876388068,-0.08228794568374324,-0.07796074640108211,-0.06754740387953778
-0.041001061081177986,-0.023689872957657968,-0.06283820993366279,-0.08435234517333126,-0.023001597194954034,-0.08309000880814693,-0.09066594123952319,-0.07664491867211987
-0.04158796671203021,-0.03187957519385199,-0.06665133537788463,-0.08310647985417437,-0.02092620740463096,-0.08110928206800615,-0.07852046746554481,-0.08921257396661815
-0.04023326611347641,-0.03245071313074608,-0.059091343613410084,-0.0791439690900725,-0.008203125666701259,-0.07558732393846317,-0.08354208577093995,-0.07080435076624994
-0.03635022376374689,-0.029492415245231884,-0.061645449994813056,-0.08318338130847344,-0.0062782235980251315,-0.07462368189967714,-0.077620293267458,-0.06896222799313584
-0.03857007552271895,-0.025767533094831704,-0.0612051954055747,-0.07945889054855862,-0.013593244760521945,-0.07491805548384621,-0.07596455049320236,-0.0788578171234375
-0.04242157981294245,-0.03314313492951873,-0.0632821706322554,-0.08193856860235857,-0.012794208138532846,-0.07724303737773237,-0.07812689723864366,-0.1167665946867825
-0.03887315424330749,-0.04260591374940876,-0.07009137286069585,-0.07842396098655538,-0.015902725094739185,-0.07842036047431569,-0.07921824351927352,-0.1188421631861299
-0.03777738693401917,-0.03616219810654697,-0.06280419460719695,-0.07501978270773961,-0.01638153563438296,-0.07113026510958372,-0.07153926408372473,-0.10669497047201823
-0.037263740508879505,-0.028886126205932797,-0.06372883560681454,-0.07994654580545368,-0.007684909692149975,-0.07434913560224868,-0.07618776694858685,-0.07129155056602783
-0.03836334577533464,-0.017671044339834078,-0.06459128259335857,-0.0813465715914885,-0.009597161843061109,-0.0716740080414082,-0.0753651810352721,-0.06518913840764028
-0.03698470880248564,-0.027515245426572337,-0.06707929928529442,-0.08100550649547136,-0.007912440842506344,-0.07510513635932883,-0.0859841987843262,-0.09405006733130235
-0.04000985855228748,-0.03524311414437221,-0.06906191891356561,-0.07980192474683132,-0.020107229515942578,-0.07576713012255631,-0.0941363796149348,-0.10287567884951603
-0.03306620321894211,-0.027954835875519966,-0.0647918825143444,-0.07652947733374978,-0.015295307556356686,-0.07882991130936547,-0.07649052711139463,-0.08533237145554926
-0.03550184067002165,-0.019410529681162237,-0.06707355863776802,-0.08033972503544994,-0.018896761269808694,-0.06969590629825209,-0.0832263904701435,-0.05455182475389849
-0.03985734508447753,-0.019279796688869595,-0.06548768579501618,-0.08158677373493343,-0.015661764813593732,-0.08087904754234203,-0.08366295530461208,-0.06482719665896065
-0.02990518073135261,-0.029004674133959584,-0.06296044066218463,-0.08358649451714899,-0.0203980737251995,-0.0800928798427016,-0.08903197367968199,-0.07572391415641849
-0.03566274841940884,-0.03274252827862506,-0.0714321297471447,-0.08727266252963016,-0.020877219670060204,-0.08151235000496823,-0.08700471228215516,-0.08532000577919505
-0.03606810590034973,-0.026782431668117557,-0.06579445517142347,-0.08681755486595713,-0.020671577634244317,-0.07851488808185661,-0.09435135206446431,-0.0663727555074451
-0.03413074617569676,-0.02079694727908442,-0.06974642324262288,-0.09076287355497453,-0.006124329851419858,-0.07983308023958699,-0.08682056485913069,-0.054815086512918186
-0.03491155759514108,-0.015779347782776915,-0.06747301654070169,-0.08672310487319004,-0.019213568290029834,-0.08433663145643493,-0.09096250766168494,-0.04893322961265388
-0.037528321735261584,-0.013456958886851611,-0.07232498970528574,-0.08668528408909912,-0.01406857452523618,-0.08152910899127168,-0.09955006350544401,-0.05372408516521448
-0.038561279419616595,-0.028573314101725367,-0.06805841319095574,-0.09079045184359989,-0.018124244797482588,-0.08952909536466432,-0.09223623891488943,-0.05431089398677501
-0.03986862412111668,-0.027051042542593814,-0.06939664674173208,-0.09209595198431314,-0.02020534683759465,-0.08344352093249915,-0.10065437383234083,-0.06939615198226065
-0.03463163138135454,-0.013291504055935797,-0.06921599236251744,-0.08517609284008931,-0.01223065150374249,-0.08378897158015812,-0.08497022953437663,-0.05092697247785924
-0.03273134537471474,-0.018710509511082215,-0.06796527610519734,-0.08423566368963432,-0.018035087033764902,-0.08334708739046325,-0.0969373334122154,-0.05611902957617632
-0.0367151462625196,-0.028899145782172366,-0.06779102848763624,-0.09010637362830412,-0.027794730004732714,-0.0826588205158329,-0.09638667564621771,-0.07597111260558588
-0.0377155728199325,-0.024820391035440672,-0.0705303042382954,-0.08531807428046437,-0.03180407196628544,-0.08893529017792648,-0.08883118417395894,-0.0809398343159946
-0.043196371181512566,-0.0318554704024877,-0.07151091292786707,-0.09140572232207039,-0.021575176123109576,-0.07106526673583119,-0.08636018826069465,-0.03314109067312139
-0.036363816282419505,-0.020664442941780298,-0.06883853630483117,-0.08459626314545737,-0.015425386704088053,-0.081857885998133,-0.08309508024739932,-0.02716841917872854
-0.03266425469911117,-0.020513204222927864,-0.06966647599142968,-0.08690500750956953,-0.021948570800712625,-0.07462338753438909,-0.09123558850374441,-0.04333019015899446
-0.039093194894497064,-0.02406318826602848,-0.06933814709830681,-0.08498996170320967,-0.027981203285228493,-0.08842584193005311,-0.08779537468193703,-0.061424626703097514
-0.043307596834167204,-0.02707398673013171,-0.06320932786843238,-0.08294648845391185,-0.04000245218571535,-0.09539797663774699,-0.09771157188456363,-0.10738321192476706
-0.03912080645293369,-0.029038891381319105,-0.07092218955587928,-0.07841820189189803,-0.04546185223262958,-0.09308378036504146,-0.08827603800464912,-0.11249944053200493
-0.035463437829524214,-0.03254863744838037,-0.07497184577008953,-0.08753720314690631,-0.030273040135550076,-0.08848996294706651,-0.0930426739797816,-0.11278564049518529
-0.03335703627301141,-0.03434895657294753,-0.07554762799898788,-0.08695566148481779,-0.04524730754679943,-0.09465462518270483,-0.09694572786017457,-0.12538258661688007
-0.03198170094011255,-0.039589153813806476,-0.07983466503848466,-0.09294416618915433,-0.038498970228509406,-0.08929211662355342,-0.09011899183495084,-0.10295469613796686
-0.04073225349274082,-0.04676462074743516,-0.08244015127822632,-0.09443062144353571,-0.036498464628374735,-0.09867397324343188,-0.10339604036374751,-0.09733546706531908
-0.0398311071121831,-0.03316139761341865,-0.07943913475339416,-0.08630363648993877,-0.03954364346418083,-0.09286563544617656,-0.10398290962359512,-0.10356641898901303
-0.0344989004814902,-0.04943113728287893,-0.07808014663705223,-0.09253155727138196,-0.035798060266631036,-0.09593798140332786,-0.09876493282648355,-0.10964420321704627
-0.039689541478795144,-0.04099166809361819,-0.07746938456621322,-0.09111509186520515,-0.04302319402474241,-0.09790667985248931,-0.1020189836993649,-0.09590302580476458
-0.040817136543050095,-0.045022779556552206,-0.07892989169212213,-0.09644224829401642,-0.044366014845101755,-0.09471001155163385,-0.11313424352503296,-0.11381311879796137
-0.03885624148444981,-0.04600732775666432,-0.07920130410987578,-0.09621694334577234,-0.04237488554715663,-0.1007949887097657,-0.09821986135764878,-0.10915436507183031
-0.03829210736569928,-0.03781260426061636,-0.07725215367470147,-0.08581641442925642,-0.03918732490706712,-0.09477242275569456,-0.09381808010551401,-0.11742639295209231
-0.04074598205030296,-0.04089121088811026,-0.07667639909942583,-0.09188359142287564,-0.041685129048214004,-0.09675300315587901,-0.09375250776571646,-0.11406290085101121
-0.047542937849575195,-0.03871044860470671,-0.07733660240616555,-0.09823508303789137,-0.04200560576826289,-0.10095677578851067,-0.10968475653947608,-0.11387645677984767
-0.032536125348846555,-0.029040348759867236,-0.07201366996039393,-0.09296430885711068,-0.03598925062650307,-0.10008780263988407,-0.10761843220986271,-0.09162398013617667
-0.03430229485379147,-0.029264662842872394,-0.07113118209549958,-0.0940906025920196,-0.032843532301948086,-0.0925195329155282,-0.10234963406824336,-0.11028358211519383
-0.03267636518274476,-0.029812412335192058,-0.0688233175255062,-0.09133859905714871,-0.03037588149797768,-0.09384850174922303,-0.0863227849211912,-0.10962865842206856
-0.036306177836615106,-0.028964913965317668,-0.07040148683264731,-0.09437673679661757,-0.02879513217627345,-0.09545061227461397,-0.09322342694731782,-0.10237118722473679
-0.03335409803694946,-0.03410769963478727,-0.06831769520771001,-0.09136892063715278,-0.03527607429444729,-0.08774003672144258,-0.1060775410521194,-0.11152211616453876
-0.03356178687824153,-0.02806184969533662,-0.06877311287679753,-0.0861636529697018,-0.028450258777567242,-0.09069416447716985,-0.09358889223984626,-0.0986630625839611
-0.031132416982785474,-0.033365449314238224,-0.0638378366577001,-0.08361679430809182,-0.025309866201886834,-0.08541808946908112,-0.0919616343791795,-0.09142540529242968
-0.03321075514710586,-0.031167694688060542,-0.06364881612795101,-0.08831421342903358,-0.029481466391370763,-0.08645343493892291,-0.09083142054848863,-0.11247990408146358
-0.03557611405521493,-0.028631472823887165,-0.07001291852969654,-0.08804121500607516,-0.025795316837188668,-0.08865414077330434,-0.09178210833549674,-0.09995818079503312
-0.027599145837939956,-0.026777780469356267,-0.06701947306985835,-0.08580168564970707,-0.02804085639005388,-0.07746736108729838,-0.08334412074630602,-0.09102727299080782
-0.025921907279181696,-0.020916423425707098,-0.06441820210763476,-0.08437039540637047,-0.021101814768230923,-0.07218365312741198,-0.08792421085023831,-0.07978053728845073
-0.02678209016319729,-0.021643451148891244,-0.06318698882996247,-0.08251092847248047,-0.020813544394568263,-0.08417481023437508,-0.08421263176588262,-0.09391611979739799
-0.03302468828208229,-0.02752636326598078,-0.06841371542937308,-0.08665609872392635,-0.02649906988988518,-0.08233535502548532,-0.08675724969132975,-0.09135290423757957
-0.030378121509466397,-0.02800526437113838,-0.06995071024344252,-0.08996873225959011,-0.02008737458690655,-0.08405778372854668,-0.09721429224937692,-0.09806124470580191
-0.03215672519669256,-0.024718157998606546,-0.06767931838514521,-0.07863701158493629,-0.026092292447827074,-0.0759316031818217,-0.07995439093695589,-0.09751815101811682
-0.03251144136974984,-0.025520020364088195,-0.06556983428593356,-0.08381268031458697,-0.015790950701638565,-0.07552794550803144,-0.07208510958202517,-0.09354114026684832
-0.032594321370281225,-0.029250296958943846,-0.06787280713848373,-0.09146817440302801,-0.024815406060992317,-0.07261578455065892,-0.08437024063746397,-0.10297653609739163
-0.03290715165655051,-0.032155843730777074,-0.07235952037289685,-0.09045222791059922,-0.019299987540212643,-0.08050204472055122,-0.08296837181789606,-0.1143581350736455
-0.0361196875470198,-0.03267560783147645,-0.07511278091881524,-0.09546035343767013,-0.022953685875924147,-0.08701147852541188,-0.09237850094213938,-0.12928568704423063
-0.04169001890702274,-0.04103650044307208,-0.07670191589546434,-0.09003275082128659,-0.03137341977288837,-0.08244974974100434,-0.09042018752613708,-0.13608163856938474
-0.03268926471247791,-0.0357014914075888,-0.07076451858940637,-0.09040560918772217,-0.02108980375104902,-0.07467735060662323,-0.0810916707931604,-0.11815067868975623
-0.035745732391133676,-0.033752903512865605,-0.07051863605252089,-0.09254632423625929,-0.02562701373995491,-0.07402393326145539,-0.09014279415068008,-0.10007945364850676
-0.036117188123939506,-0.02980589973241749,-0.07091783064718614,-0.08865949535625518,-0.0209689414199513,-0.07818122822105748,-0.08565916099606667,-0.09079064990382495
-0.04250840275057458,-0.03510886047451774,-0.07959614179661083,-0.09249114428405181,-0.03141173249471241,-0.08943030603173367,-0.09083816536399689,-0.10012097147996149
-0.04409377205153069,-0.03945166232973485,-0.07746008065250345,-0.09539048078406023,-0.027312318858686773,-0.08338529583113058,-0.09323772773278469,-0.12092116425118443
-0.04342809301759413,-0.04796588160905381,-0.07969971520037554,-0.0922779440277751,-0.02959465222890451,-0.07539378241479436,-0.08664143122946524,-0.13377766525898596
-0.04004173670570126,-0.0439206233878485,-0.07810844448153208,-0.08961721380766452,-0.020466582883048274,-0.08213627556832484,-0.08040307686979245,-0.13870128634673037
-0.038877044437451574,-0.04341274915820407,-0.07434941303929943,-0.08726749111010816,-0.02623037103493326,-0.07497062148677151,-0.09004510506838528,-0.133874364307277
-0.04207312241542242,-0.044271275262000094,-0.0794804351194386,-0.0882746768269934,-0.03195819894371659,-0.07795824295604559,-0.0893744301765136,-0.14699138230450287
-0.04626828910718112,-0.051664946012591556,-0.08321386248761546,-0.10027599994305772,-0.030055008715974104,-0.08444107222922671,-0.10229763328841404,-0.13274986363051736
-0.050594525260771385,-0.060444244569937064,-0.0831944740259172,-0.09839864281870266,-0.03512808660538797,-0.09610654600042011,-0.0952357710021968,-0.14437876089669027
-0.04757017008103797,-0.0551216377412847,-0.08220070457416954,-0.09326671046198601,-0.02601842121326071,-0.08789046733571775,-0.09511339413172284,-0.12991654126514818
-0.04788116940965521,-0.05377368207356036,-0.08428064246955337,-0.10234422095442422,-0.039335356996746375,-0.09064496704626195,-0.10006372814354139,-0.13485364698810953
-0.05146242738815763,-0.049543585858652116,-0.08289297131645704,-0.09786381377556813,-0.03270724241000159,-0.08986269131234771,-0.09829156996987569,-0.11721787078466776
-0.05231760980587462,-0.053530773286806964,-0.08478901258604539,-0.09739585111590372,-0.04389170868048685,-0.0951800974805273,-0.09499696628961034,-0.12162466993992962
-0.048341459684319084,-0.058458611655198514,-0.08154881882092,-0.09029145110327307,-0.039991744352810665,-0.08898770790415317,-0.0905609629444362,-0.14353230459721897
-0.04901972456255107,-0.053354478565774674,-0.08546697469427446,-0.09068321126751248,-0.039960560714065015,-0.0869969353774523,-0.08731733321881095,-0.13301157517659126
-0.04833810804775157,-0.06387251152213987,-0.08703372414621435,-0.09399172990537778,-0.03640875172665326,-0.09140878204650571,-0.10045926607501952,-0.14872308817848914
-0.04788959224166807,-0.05774452624710101,-0.0857336659399298,-0.09719514516497209,-0.04030004503834312,-0.09441030049971759,-0.09542441776735834,-0.14696128745921094
-0.051397258152528144,-0.06043566863094925,-0.08214609375459903,-0.08960010146613462,-0.04316875448913773,-0.08321116051868112,-0.07827184937081305,-0.16120520707927935
-0.04749852308065791,-0.05688616479163489,-0.07825549733070254,-0.08760438335981849,-0.03865941412951613,-0.07896371815766966,-0.08151490864497761,-0.1480013694713557
-0.04849108700473951,-0.056451389503389744,-0.07775544841507341,-0.09091760749923992,-0.03397657959802439,-0.0877470489068743,-0.08149186452010461,-0.14778899504036128
-0.04875845064759802,-0.056397926699179715,-0.0787192088622204,-0.08701005681313859,-0.032347504960858545,-0.08163260266309844,-0.0917776304421654,-0.14494161457978455
-0.04874132287081912,-0.05805934658856172,-0.07788060361560446,-0.08872440207760618,-0.03397743167540872,-0.08473384277051853,-0.09033460450731702,-0.15609468897620815
-0.046507754315068636,-0.04833711724851833,-0.07798742986745871,-0.08400124046152141,-0.03931068831204532,-0.08394741909808022,-0.09225800438640928,-0.12688216664572705
-0.04203015211758454,-0.04895270256900275,-0.06917798307555809,-0.07873255411406048,-0.02589762569235684,-0.08479305967655489,-0.08953425364958228,-0.1475457528567309
-0.037838022397823835,-0.052862204726162265,-0.07013351353277732,-0.07845912164616331,-0.031030498607658243,-0.08552128178600205,-0.07739172235064558,-0.16417583942998598
-0.03538297166666566,-0.058400306751932925,-0.06938874474395385,-0.07609047020861937,-0.03086456954763295,-0.07967083079366942,-0.09262426333402286,-0.16317835562899902
-0.040035640156271694,-0.059500951818399116,-0.07395729247912226,-0.08066723816106539,-0.028704725801138406,-0.07934069254625972,-0.08695309058953804,-0.15619357683042773
-0.03223720070633809,-0.05360336731508501,-0.06426951123963641,-0.07305984266576818,-0.026142278046240117,-0.07133315747752594,-0.08757497384755256,-0.15164381711613548
-0.030864392984495545,-0.04253913567281974,-0.06322635474328954,-0.07424061215640995,-0.026052579322455013,-0.07527341963378749,-0.08148564989814279,-0.14781298141976193
-0.03431472494374685,-0.04823627732531492,-0.06576556693747046,-0.07803996602210636,-0.021015745658289585,-0.07793216979636333,-0.08719738249730873,-0.13349202376437402
-0.03827532977653321,-0.04535825651506743,-0.06595709734935602,-0.07796420719787475,-0.03047030586710697,-0.07858765394279006,-0.08189472393314876,-0.14949951575808962
-0.03497470113319625,-0.04766040254054635,-0.06699710808008255,-0.07432453272547192,-0.028624607124716168,-0.07798479179584593,-0.08363889342495731,-0.1613269681586174
-0.032321903243165216,-0.03907922076775966,-0.06250252301215042,-0.07672997519502393,-0.022512354855387565,-0.07839255343897393,-0.07474173371431014,-0.15598739484514426
-0.027233595096096384,-0.04336960503716237,-0.06239978057268972,-0.07583510587597057,-0.016887666863455955,-0.08080495577675052,-0.07398652897046328,-0.14740043236633774
-0.026386856061098075,-0.044065395864497356,-0.06250680271962343,-0.07194100968683535,-0.019243865028267786,-0.06324740436784548,-0.07335105296146706,-0.1407495390710373
-0.027026972168061412,-0.037130114692948565,-0.05967368810754698,-0.07889587153737092,-0.031519924817967074,-0.07496846947390064,-0.08804071009338131,-0.1596595677706448
-0.025239792825554153,-0.03773537390959456,-0.06030816848880974,-0.0697270293466707,-0.01557351534957452,-0.06371839590356247,-0.07403327370202277,-0.14364127628839599
-0.030991821250402837,-0.04112291800234192,-0.059259466744437814,-0.07150471261829992,-0.018362547745727684,-0.07328601654889236,-0.07904092091987179,-0.13695501368739493
-0.028090322683154312,-0.03210642126758662,-0.06132868876868401,-0.0754614960942991,-0.018578050370325856,-0.0673637565543947,-0.08085858012298724,-0.13405105008437318
