0.04726359555905326,0.112367313744062,0.054699043179271635,0.060935684967485006,0.06251857407336228,0.09320225489060385,0.10576069981888829,0.06914687987252875
0.028028310395548223,0.059901952637601674,0.030984530011150733,0.04575625815364669,0.041436545789885426,0.03548418558497546,0.05328941792956114,-0.0712455818803281
0.02764920960106263,0.03891213203922556,0.019558392999192382,0.02225348445441297,0.03576286662524697,0.015749598776139184,0.02649378092224081,-0.10092446267055089
-0.005359342372538539,0.0017612684001860014,-0.017346591369015816,-0.016696788071116957,-0.03398566729928783,-0.04752693481336157,-0.06331307112919743,-0.0754506875438279
0.015673861568375542,0.0664817532990262,0.013557501645477135,0.025571999410923925,0.021596043755800196,0.04294189512915018,0.053331880511614874,0.09299800499687996
0.033918776322967636,0.07101707580047537,0.04668768771791076,0.07149525208188792,0.06473313464070032,0.08146078012898647,0.09613126596318355,0.06318056659670618
0.030329317625778375,0.01607991332575085,0.024668931846091716,0.04608917342809264,0.04861806079256462,0.05761963356046095,0.0654721564330913,0.007718846376666588
9.800713658333774E-4,-0.022342251201450856,-0.011501908111199707,-0.008266904814370923,-1.8859306139777676E-4,-0.003311532491238049,-0.008323856816390522,0.006251486738098239
-0.009093174169664398,0.018222267267377548,-0.021874216090587473,-0.014869653479513916,-0.003045764442868557,-9.896265210966992E-4,-0.010438305867128798,0.09116683686057472
0.05235158038129117,0.09951636248741913,0.058513937756043605,0.08851959059241275,0.10427549239655472,0.14606276315611974,0.1747993734344011,0.1567288931032868
0.04857985711760786,0.0866889208086687,0.038987079235426846,0.057436823138567655,0.08499050352102473,0.12654189375559532,0.12911242080433577,0.0421461339778092
0.02692340259138578,0.017997818511104775,0.03565835977999359,0.04488179702655853,0.061413874530551096,0.08688788083811627,0.06814372103742303,-0.0061362354564779495
-0.004761074564262917,-0.0032159148438046245,-0.022624148307056592,-0.014457132415032815,-0.008590979756657983,-0.006308411470995019,-0.005541114655587077,-0.027871828485812607
0.03983966515131683,0.12943365382603714,0.042237975356737116,0.057630896524547635,0.05880358793371782,0.09787415077878958,0.10782024995066536,0.13213304221653502
0.07296381003666703,0.20209575206948938,0.07087999378703663,0.09837967511059188,0.13364604046261377,0.15936263742549092,0.18811026506005613,0.3081693006207055
0.0534176701623314,0.12435307837554295,0.06302188744100426,0.06971873850800965,0.11186102813600658,0.12767477594105764,0.1360888940208136,0.24777488260616912
0.022669120429479234,0.06297298197005706,0.02348271681280699,0.026635581739515225,0.0629946693859929,0.06875307479042084,0.06895234057446326,0.1929616832000404
-0.005104840979389612,0.06523618748135916,-0.014218929594043243,-0.0173685345808489,-5.523004471341009E-4,0.013216171638669248,-0.009474383921365907,0.1647141151818759
0.06026451103261126,0.13713369502246012,0.05684644109673735,0.06876530401493644,0.12234584157422018,0.15256531461031367,0.19144427548765727,0.27575871297768606
0.05103442683937924,0.07946883777934055,0.04584876970497025,0.05844908017873047,0.11742401476625487,0.1351527712357231,0.15068171569240552,0.1889827695941738
0.03212251196790686,0.0518104023752285,0.028102023829505787,0.04527009508832115,0.09768932197665563,0.11080415163858176,0.1107064951182387,0.13958851267402084
0.009617034737040933,0.028668235005307685,-0.013857592369273024,-0.013894483413086854,0.017904320236546575,0.02962881401837918,0.018994634495694555,0.131398267893431
0.03847820073820011,0.05787517224299813,0.03613668181671152,0.048019363576945154,0.09765184317324546,0.10652614164978028,0.1127194156299231,0.26475104948350703
0.04141959960156065,0.051237087148538654,0.055413179839689276,0.07695679082127083,0.13099230682341442,0.16369290364843192,0.16623333632290113,0.2941339244475751
0.047334403698256006,0.015742257967155598,0.04634978296323606,0.035026737288239546,0.1183596927782731,0.133221790287748,0.1522330327884151,0.25276819742934914
0.004412291477332945,0.03393065445432507,-3.2214898461517885E-4,2.0046457575163476E-4,0.05616305200726733,0.06127222234553539,0.08544261587684446,0.32343396877306396
-0.006767120767401677,0.03951407691337013,-0.022657471074685836,-0.023319705808803163,0.018960574045521632,0.027703696729752383,0.03088972906066234,0.33832526562208054
0.05466650127202245,0.05931221828580402,0.05906216000470958,0.07752486652341153,0.1518376676706043,0.17751968923021494,0.21918960588066777,0.36656271765530063
0.042152886022630065,0.058969695637417135,0.05008822623808524,0.05923314799204611,0.13021565933025125,0.14669450367624792,0.17163779523476286,0.2701853122484578
0.029435829885500798,0.07682286249059427,0.02870297619271188,0.03786003215317269,0.10090352293616396,0.10586171166720874,0.12311155343531105,0.22661709831400964
-0.0021822181338790143,0.08445430826189834,-0.010051873416356829,-0.021965864153275075,0.023498564010818596,0.02566544885503742,0.017577268977233156,0.21698695493992692
0.007803658605448632,0.113884122208892,0.0031259407774130946,-0.003327470082422339,0.052456433295214294,0.05342772369862969,0.06543152339518882,0.28878831645534575
0.03390244771564901,0.09218017602213649,0.051712632064277654,0.06335089360109226,0.1292454328905219,0.15510717505582164,0.20000836699586835,0.3881343050911516
0.027609261111408163,0.0993199154137106,0.02788401024696336,0.043221385371854396,0.11377793383667895,0.13539314099941127,0.1666074429381929,0.3301495197129983
0.011892778496523666,0.10014945906220661,0.007914065011741167,0.012695240702124112,0.07673434759490452,0.09100447937522421,0.10913599195099839,0.4083310026202271
-0.00524669335797484,0.11997613139996142,-0.025607653200269694,-0.03705352972820364,0.022781906781030842,0.020066019902935064,0.023996303846837208,0.3676497645634578
0.04070055087184243,0.12181492247366696,0.03238327433458013,0.04283730597378664,0.1295896095356701,0.15798123512239057,0.21095594126435688,0.4431028149972528
0.01577936414641179,0.08741487647251442,0.013844791328618643,0.01484511852941744,0.10034115917779358,0.12451009692212693,0.16382902712653752,0.3103745171677507
0.008829538882950433,0.09451306328906761,0.0011597764282617552,-0.008519872003514532,0.0834813540480161,0.08603638150962861,0.10592231169193506,0.3431358398017028
-0.029504008467132463,0.03299316565660554,-0.05692733724170569,-0.07659481556385479,0.0030404061804988306,0.007720192762512174,0.009837709287809814,0.26724723623070246
-0.010387801111934464,0.043013587010283315,-0.01848533847229087,-0.007092346634540735,0.08182134112333145,0.0934539446980998,0.14277677639590575,0.45441615251300477
0.013632332838554344,0.07333491058204362,-0.0025055604358992303,0.017386826295278966,0.1188085073640018,0.15559292419420917,0.18113707937342266,0.39115743123608804
4.0388441612626254E-4,0.040402881566239564,-0.0031571599348727414,-0.010666895530400953,0.10811732109025665,0.12311660339208916,0.168642666376629,0.3699558764959161
-0.028838851942317487,0.0479264965290441,-0.042993577373514114,-0.06081456946650974,0.03527176835333385,0.052553705976975104,0.06089411326231221,0.35407378908831
-0.05311424108439956,0.03125533672040305,-0.08714908477283154,-0.10213394209711965,-0.002608470642951614,-0.01572358822218544,0.006829215451231618,0.33083106408871193
-0.002351807204668336,0.05358931691671166,-0.0026431929611409493,0.002740989625605731,0.11282546178166188,0.1408532490594946,0.1869420549400359,0.39687088836352724
-0.012793198497289769,0.04683087317265271,-0.02837941491040918,-0.023961647021127252,0.10065502569606101,0.11196706356931019,0.16535028555605386,0.3790572246781411
-0.02414955346566347,0.02821170335074513,-0.04073419110694344,-0.0598769794609874,0.07113788652564955,0.07554886489978604,0.12528941792996356,0.4495500545623556
-0.054772246280294506,-0.009479022703266293,-0.10112014982976156,-0.1176813860288364,-7.986163227826151E-4,-0.011737121968529326,0.012410980469651707,0.4257315237474834
-0.06115833377530628,-0.012852750441247939,-0.10502248195963122,-0.12609908244304022,1.905016954006659E-4,-0.0050872773637047515,0.01793843711284669,0.3826131001099769
-0.03548222351393294,-0.017794047721368222,-0.05036629455169362,-0.06278910252653207,0.08747611267417255,0.09740460569852538,0.14172586322563702,0.39457811914415925
-0.03532148665210698,-0.04626633306447614,-0.07121775665384389,-0.08614829704966928,0.05539863833903111,0.061376104971695516,0.0918124133930619,0.31048638469820794
-0.0535247843673734,-0.012598051018944123,-0.07471677866754484,-0.10584277716204582,0.013741486998274401,0.012020519270944031,0.02643470591740948,0.3262417663716342
-0.07222132440325334,0.003195074750664474,-0.11418950844823458,-0.14650702727900616,-0.022001601954995995,-0.026361639585586988,-0.04641338276956125,0.3467726609389861
-0.015049891996165752,0.06467025992175691,-0.03345060986365111,-0.05226607719548522,0.07794112263413792,0.08987876477571248,0.13332432579586417,0.36669296309200383
-0.043185823960805704,-0.04144454611558793,-0.05866990027853401,-0.08516115470436982,0.0377512996060924,0.03533115259555744,0.06901230574967708,0.21629194770226162
-0.06099896987363742,-0.14525959669299052,-0.09001020508716905,-0.12260149467524221,0.003369351602200638,0.013017577977504306,0.010443399135286077,0.08019043511366145
-0.09171208503247275,-0.1375136258969921,-0.14203361044323395,-0.1822627941796889,-0.0782786089989141,-0.08729060127856055,-0.10045813203655428,0.16335497243064315
-0.04190234311798143,0.0026029877121277797,-0.08270037180307875,-0.10473623945124205,0.014042927917126774,0.01811286954535603,0.02923140250119428,0.21318431021249473
-0.00827006109700487,0.05693856554601738,-0.03970043520081294,-0.05931522362600524,0.0617563104015986,0.061550836710995614,0.0889486420768022,0.220902991571816
-0.01757910923298369,-2.814683190886279E-4,-0.06046695967400574,-0.08059779658909282,0.03446603566246693,0.02430447602809934,0.031838284072880044,0.16289218963260352
-0.05244919691965872,-0.026394949067400923,-0.08852069207788664,-0.11597392540569244,-0.01572485096409809,-0.05058677366701922,-0.04192407949617499,0.09505881268277694
-0.07595978241168307,-0.046259136386510975,-0.11041571107716586,-0.1575838353438527,-0.06033635416884852,-0.08441514329800555,-0.11274909727174315,-0.009085073189088796
-0.004692089254819362,0.013193374518363356,-0.02980243516673141,-0.03665192162591287,0.052233054152916195,0.050203094092925,0.07186222171797219,0.008375637373302509
-0.02892549503857614,-0.009802029793993841,-0.04926000375627358,-0.060620544246016386,0.01953206860621269,0.00637541920271124,0.016151194168742496,-0.13688536220571912
-0.028402276699021938,-0.012646111846451166,-0.05867006783331109,-0.0816625742846465,0.012197074268969642,-0.006941310339297729,0.009473295976107885,0.033434667727230326
-0.07087611603143427,-0.23065122490113127,-0.12451942093571075,-0.14683035637707448,-0.04030422475419966,-0.07135352456631423,-0.0779390573319671,-0.17242515743262546
-0.04061255387713067,-0.3109209905433713,-0.06500337294915488,-0.06486876269071316,0.040963622033261475,0.045125565781022704,0.06674395871008156,-0.3019448120836218
-0.024352815376482935,-0.1809551705003399,-0.05167356475103634,-0.07077220724989254,0.016172358482901227,0.015163081217512957,0.010339742350012317,-0.2294060080983688
-0.00749707101960124,0.013223806892246346,-0.044244794038978706,-0.061246351370387864,0.007371526462344215,-0.009905954168011714,-0.015575949219269889,-0.12065664459709331
-0.050433299002579174,-0.0226607126047593,-0.08286922273303317,-0.11037781629898329,-0.04225270723799563,-0.05766815479380811,-0.08618144040797723,-0.09756830445120952
-7.005674006892587E-4,-0.13613860461816218,-0.0328524467457111,-0.02840884397405493,0.07392927902053278,0.0873304933761868,0.10301773363789214,-0.07186655816618881
-0.019740319965941715,-0.2487109604342028,-0.04550280682854524,-0.04785260480697472,0.07338806399814905,0.051298208519062555,0.08537801481819114,-0.13645376302274176
-0.01193190111784468,-0.1192020747289028,-0.033949956358520994,-0.029159087347668738,0.07624551304712458,0.06434586980016012,0.06778430167893047,0.09196167857195857
-0.017130406060647974,0.0031200106137670583,-0.05946540919545107,-0.0715057436172476,-0.0049642385955738005,-0.019085650649497934,-0.028369604166951536,0.07875871961388475
0.026016033165376706,0.03767584885179385,-0.008459004875642566,0.0010943084072246173,0.08253580890885485,0.097000631633168,0.0926423737723863,-0.05228792445429859
0.013789919650086989,-0.0064085012861170975,0.004305726813620493,0.01929184214564094,0.08858686373413835,0.08776294593518966,0.10022554307638554,-0.12915319772967224
0.01804813495619045,0.06213899949190222,-0.005409882504920627,0.006228432273582558,0.08847173062655021,0.0698014722299498,0.08664910768760416,0.04558516415487207
0.003887435752962403,0.12253108326347412,-0.01190018010121165,-0.032794240197428166,0.03072434699932746,0.026293816454784118,0.0239903760611508,0.18673949422164687
0.013102291435604856,0.14281884355228563,-0.008422558631336795,-0.019200074588325896,0.05854027462790294,0.051266385245700034,0.0767597451708177,0.2066534083163894
0.02183896394594084,0.04489787530139845,0.015256163956557874,0.006916878140142635,0.10241768758902209,0.11609884574961159,0.1542791522237796,0.003003750297307102
0.010047727205247242,-0.041033114958374035,-0.017296508170332493,-0.013298656255139261,0.07331704211500921,0.0875106356626741,0.09644886879685366,-0.08385702884147518
-0.017300638497766196,-0.03722983206997664,-0.05331461141331639,-0.053192277582067404,0.03905698036261336,0.037138509441392596,0.041785948536253975,0.12823329899014788
-0.0050223375150518215,-0.04263781775365798,-0.04041033845073231,-0.04592080126484717,0.05513794141799728,0.058053554389363396,0.0607188040092496,0.07753961380085188
0.009431048377148574,-0.03977579308594465,-0.014261449189055645,-0.0013049083910230096,0.0962555437808175,0.12341086682869155,0.1531130881695888,0.0338354909818265
-0.009198050630961506,-0.07351431510373432,-0.036231119370702475,-0.027888789852268038,0.08071140608629472,0.07904554184556875,0.11156561500204268,-0.016631979876531894
-0.023699146306086237,-0.08254832751535851,-0.06103265112910711,-0.06455057170929654,0.031016934160661043,0.034832044329768726,0.04285003517547304,0.0328673921146931
-0.024773244383583838,0.0023398312364062623,-0.06898716738951949,-0.0803169725950784,0.018268240090350506,0.0022337607163804033,0.0141165968919362,0.13117761359957528
0.037371798919041035,0.1770593405135361,0.029096197209016364,0.02698709339868981,0.14808832584558201,0.16928262123100202,0.20950614954223282,0.2930488534540438
0.03815731118576668,0.2423297927569985,0.003844559607442455,0.009071840229286813,0.12183903610535421,0.12912533761783626,0.15771967812182117,0.337225042023432
0.03382984731370706,0.24935598699203082,4.553750283156667E-4,-0.02003391721533416,0.09309626525285353,0.0938169459098726,0.11430044607486595,0.35577941669979063
-0.008390025775528926,0.19391364089291493,-0.049719989483930145,-0.07677101033214628,0.01966946011728861,-0.002053424152135194,0.017176622197536125,0.2884580229900936
0.02546560459748194,0.19178457495690818,0.002533089134798879,5.522411304361464E-4,0.12707900837941724,0.1209127079271986,0.1735761159040543,0.3712521491704463
0.013988296977327647,0.12203245976144919,-0.010710537377348353,-0.009673748004532867,0.10885797867142716,0.11578112450132988,0.14204899669652732,0.20057346043799718
0.005156501019325361,0.05133766330658579,-0.028308349462094713,-0.03463158658105207,0.09300513120514733,0.0813695887780879,0.10048783151569214,0.10980038390916015
-0.03499063032148276,0.009397840627771239,-0.08154096771255506,-0.09625440159325889,0.023853159013275598,0.0011404922684965964,-0.004024942799111548,0.12198360676119874
-0.012675512916839882,0.01381757797561876,-0.04708762170285595,-0.04104306751185782,0.07036288753092709,0.07896036984723613,0.08940689673146317,0.15446177954375928
0.003645807536084788,0.04477363573227522,-0.024861889207703845,-0.040919954916513956,0.10818612525958496,0.09517361572863944,0.1294031134869393,0.19057450952534902
-0.004486204818495833,0.041839682010886774,-0.03994654558419487,-0.0465553722630621,0.07576973872614015,0.07373081088064407,0.09028855089058464,0.13883922379652502
-0.050993897895721695,-0.10208274879925656,-0.08731835823992488,-0.1142369772417127,0.0030698616325189683,-0.018039679707650913,-0.01327518058032607,-0.03606274931293263
-0.048205334912084646,-0.18533468101643322,-0.08129419497863434,-0.08807822344575511,0.04075280773351739,0.04003207763521511,0.06723769898573206,-0.14644633333086918
-0.04309101512693441,-0.21567005732064373,-0.06538638530298697,-0.0716809314649695,0.0971731850923044,0.11090578858852145,0.11002931505584616,-0.1081987732797498
-0.03791386530542464,-0.16815126724332877,-0.07357736023453218,-0.06823824571792651,0.06792291196976319,0.06605382020226046,0.0900910301153431,0.0010750604332200528
-0.04822618906795472,-0.1133120230905982,-0.09969820599158391,-0.11777863931706825,0.013997984335568214,0.018173120848265747,0.020493413963937522,0.13142827922013567
-0.019486695045500765,-0.0028656828780506544,-0.06876731177821996,-0.08987158284753925,0.07605037872926006,0.05003206520214753,0.08862895126974873,0.2911093072262573
0.016705949820437188,0.1525197892787649,-0.011114108087164922,-0.00956418487695155,0.16625202131655956,0.1564146665717692,0.21335371530853542,0.48878841268029855
0.01503459825736067,0.2062423820352593,-0.020759359736254583,-0.022438995218351215,0.1288610831741158,0.12410793234793185,0.1538388446675815,0.4758179536035014
-0.0073057864017976445,0.17205567241430417,-0.050991781959724654,-0.06559263007475166,0.06343405383837551,0.06183659039142581,0.07080311707965534,0.346318369073445
-0.040154729364753165,0.09944386061424909,-0.0881991250746259,-0.11865984835026974,0.0048345392005306135,-0.006007872929835433,0.0010964924492706772,0.20186960592202302
0.01753105322852489,0.1282133194219309,-0.021121303034434113,-0.027610791803313453,0.13664697435810283,0.14507276558299181,0.1966582450668955,0.4178538093366678
0.0035608140911732333,0.12000807497315623,-0.038401623104075355,-0.04814378548372446,0.11058114757132971,0.1120795272317458,0.12400406251084688,0.4120412534000495
-0.007883536260942174,0.12475933245060145,-0.05167457076371598,-0.0642657807733787,0.0758166263184724,0.06016797846114492,0.08884126957075564,0.3550986930654546
-0.03489572396580093,0.10899664792560032,-0.08072546757532902,-0.11139312847707132,0.011476061288304919,-0.009177059546205039,1.2318386949489515E-4,0.3181980971557646
0.012100065010831641,0.1438889046089096,-0.025479133287526226,-0.03430911243967622,0.12590327318298522,0.12560472959015437,0.14307192056292573,0.30513911827640167
0.0015612698061446655,0.09806452437266454,-0.03853661928103544,-0.061524229692502055,0.07329878958482336,0.07669352183471757,0.1152806812275258,0.3208207172786328
-0.014818365775087721,0.11233296033766746,-0.056951573181742036,-0.0875586093733017,0.047065477526224815,0.043171413052969704,0.07726152255561594,0.38117954469006465
-0.05076215891969353,0.12422317295325865,-0.09237979336981217,-0.14147327457775016,-0.02801884914811053,-0.030682934224947615,-0.03253669940073202,0.27612590739767245
0.0038625096364606195,0.19335720937535517,-0.016346218350590493,-0.044878200255438566,0.10273553443416841,0.10378484538274045,0.1442483365789889,0.31847554374699105
0.008738787698606627,0.1739029890199527,-0.03249180256236141,-0.0682611784390261,0.06318466555143798,0.06900259250559107,0.08727497927099045,0.2245110114499188
-0.0038552405066947723,0.1477887916050876,-0.04425649621462535,-0.09531942099016166,0.057325532745754,0.03553454803260347,0.04724091313556897,0.13234750118323566
-0.03867689924807327,0.14251329464404583,-0.09480043987875317,-0.13304310645272668,-0.02438745610227386,-0.04218616306668268,-0.06975628822987619,0.12731675033976078
0.009114704185697107,0.19911624797198688,-0.03799631548094552,-0.049949364241506755,0.04923622215323145,0.06026453094510907,0.08551835245008878,0.21443242141767094
0.007719199471367537,0.16987378343765122,-0.023140550648072543,-0.038331338558070104,0.0775179578799633,0.0713359040582075,0.11876627212000992,0.15043540690277202
0.0038320474061268196,0.15464018635688515,-0.04363581607820535,-0.07476486145162412,0.047411018843634634,0.04833233797317758,0.06992379995473495,0.14066450031101113
-0.031147761163755745,0.15228945763461973,-0.08555960520837753,-0.1264012687677333,-0.009946178348018357,-0.040006156019552826,-0.019262439827053706,0.15955104352153443
-0.041948818142028325,0.13239572226749255,-0.0852018440158947,-0.12563581798837864,-0.02098146761824449,-0.03609106872130098,-0.04462217170641397,0.181023345638344
0.016442712234509785,0.18237644294441385,-0.014193493807094535,-0.035507595762422725,0.08291360177419053,0.07974984393284325,0.12694925360732745,0.3482847490663587
-0.0024207147490069025,0.1779862716313064,-0.0517855542550197,-0.07484205253926428,0.05205716316033144,0.03784053632683231,0.04730581013985765,0.294439763084781
-0.018430209311475414,0.1618545436593306,-0.07473965903666514,-0.10413307300956931,0.011033413764718265,-0.002713577425003519,-0.021022961788986574,0.19584571342168888
-0.06079472562372287,0.15369508036547774,-0.12334721806402148,-0.1723425798492289,-0.0734946269882144,-0.08382270261240692,-0.11466592906212866,0.14161111659661296
0.003763153248727457,0.16022213203970215,-0.046037056008591495,-0.06950105823188629,0.02904058624009334,0.02612254723502331,0.033466546172463314,0.17732014153884817
-0.01272666949198489,0.14710560275340548,-0.06089767080619332,-0.08322661916528858,0.03269317080903463,0.01767932832879106,0.028680238151837487,0.18315011846364926
-0.016090683111288476,0.12893925970044642,-0.06574406291076024,-0.09425115699956274,0.01180437575628258,0.006150020080889496,0.0058143451150555105,0.14244808507004897
-0.0443189339505575,0.14510299927804343,-0.11317476809164516,-0.1565872828323717,-0.039014843266865815,-0.08318700616290402,-0.08824723940150546,0.2037128608497294
0.0039410441905813,0.18651066534986394,-0.04792853583274822,-0.07963928800317664,0.013683188513101045,0.027472022239209422,0.04220307194379949,0.316828082477074
0.015419368883082922,0.19962644005789373,-0.04515162035435118,-0.07970798244262192,0.03679325069595988,0.019553752296527054,0.047793369117559124,0.33009409695971537
-0.005457855101392743,0.2011469603113745,-0.0715504325983207,-0.09998420064724778,0.017985533270992695,0.005737881899383531,0.003746882195188813,0.2930460508493242
-0.038854726318019325,0.13808850263288253,-0.10874563050241731,-0.1515597137272675,-0.04436076530046411,-0.08872216122925533,-0.09079717452056141,0.23299899649262312
-0.00782529497100137,0.1950986291027371,-0.056718244028291065,-0.08826149871845251,0.01086258083597238,0.03032145401678401,0.02314247901414458,0.3112845104628752
0.016307691830574702,0.21373200893221644,-0.02523751641840796,-0.05778743854214818,0.06458494708842626,0.057366138261079024,0.0707566910248755,0.25903538522810754
0.006381979372733424,0.21764486997404897,-0.04748548398654342,-0.07591663447989787,0.03982031721850228,0.029093477523792,0.05047719911969599,0.2612174201555755
-0.021920348159311185,0.17041289521443365,-0.0839586486675446,-0.11203792084730566,-0.03529697755584095,-0.036151105601815434,-0.04989405986133613,0.17300398616808094
-0.013103644851099484,0.1662168775364819,-0.07789987280677618,-0.09996359312285141,-0.005800188073687177,-0.0258857675778037,-0.009306577650118518,0.12903063427905137
0.026314196866291995,0.22267332940130988,-0.008736159499671034,-0.027505725628021664,0.09300713255941974,0.08785716172858021,0.12287796347398026,0.28644238445153597
0.011718464406084674,0.22338083095350728,-0.008507881014298578,-0.03580632743630602,0.07013814165583343,0.07047607293172234,0.08255155254769769,0.3153258928867088
0.009555204909012318,0.1905014544943929,-0.04338065723698739,-0.07616238111575091,0.02709220215736731,0.018363052514250494,0.0197182965641021,0.29990735960596265
-0.02391990932611873,0.14788428952422566,-0.08958169307297568,-0.12031647872101621,-0.05048159517350687,-0.0764809991829023,-0.06579220279809359,0.24320341220159003
0.02916674480047029,0.22062658757389214,-0.01680638603786435,-0.028948392665805976,0.09007590572406449,0.08274418812270673,0.11704286747895655,0.34037883983367473
0.039498346905140494,0.23185543685441518,-0.017326066482247902,-0.0339684932074355,0.10349487822943164,0.052629363822123104,0.12854939622968578,0.3956497820940016
0.033861346668888875,0.21559015720639096,-0.020022486079358116,-0.037260836214232894,0.0690570216288906,0.06101050421138244,0.08178332619615009,0.35007839856209333
-0.0027484308157977658,0.17661984336611344,-0.05334208363445367,-0.10003657113038823,0.01579791197633232,-0.002214974833107758,-0.011207627969223602,0.2535297206813174
0.023942776311841496,0.17820298381897215,-0.024203940292277244,-0.041375220708878745,0.0578288634727558,0.03925764851743463,0.08090258064004799,0.29085512086322185
0.04493041628025843,0.24093205186695285,-0.009846879834803549,-0.019898273630395223,0.10613736167419574,0.09382418761680125,0.1351465399725867,0.4368422782225299
0.04693633511178469,0.23992902973592234,-0.012922529298819548,-0.03792814623048501,0.0941651480634782,0.07822855998521532,0.1028869634646449,0.46798303313959977
0.022380419452164676,0.22912066867321915,-0.042887384817223775,-0.07252270347018139,0.0306042106954742,0.016747178703575612,0.0441991806124778,0.4179099879012955
0.018391648797460813,0.23314816983580067,-0.03737025497438459,-0.07519712720935662,0.05312641796693118,0.008270334222198736,0.043988093522197326,0.46797966004018254
0.07862766476267206,0.25903096054418784,0.01908916746048026,0.0018798583392986151,0.14367048715517947,0.13848712078849393,0.19281184670568408,0.5150279962987563
0.07064962877990608,0.24870990814142488,0.020236451931514035,-0.006894832435144327,0.11471140843208609,0.1201636264940239,0.14571643541839052,0.45522174193018883
0.046983414467162685,0.21688888172312243,-0.011238593753451216,-0.03121602921210137,0.08339969335337723,0.06450155615862421,0.07950041308815625,0.4001667155162135
0.023243349612957508,0.21070088334649617,-0.048588000208959856,-0.07915460126458641,-0.004896037144368535,-0.03556351083023415,-0.020989783159270685,0.2593092384212925
0.06450367974624965,0.20813295551689143,0.01964116913379501,0.012119994037467711,0.10988423661483093,0.10962888659636037,0.15855558943335157,0.3395555542778159
0.08557717725011446,0.2517491251448859,0.04032139584409761,0.01862935107934563,0.1343204625499716,0.1358947149203789,0.17895678280663324,0.35574203269147253
0.07763696942728832,0.25708260950160117,0.023720397732622987,0.007649632043309942,0.13846347162509887,0.1350638682063349,0.14387012505588212,0.4066441681105188
0.0486584919450192,0.2406555006193462,-0.011417264176919007,-0.03445220739865641,0.04647263585738057,0.03573338205002952,0.0627481985776531,0.3433170582032523
0.05646349136080107,0.20788118510834633,-0.012319819658786778,-0.03081523768619649,0.06301198110561408,0.0573294470079439,0.0944554859315225,0.3490298105174568
0.09570334116380202,0.2345232164801671,0.03915866375389496,0.040998581917041754,0.16893581174950095,0.1730171948992032,0.21547669972373024,0.44963733814741613
0.08736476963289964,0.2674788150778622,0.040130060503326945,0.02321260625278819,0.13883678622545859,0.1443349635299145,0.17812593092782358,0.4157361214551897
0.07014187092562121,0.2104182308367285,0.024288827049527634,-0.008450503844642764,0.06773684291282245,0.07348992193212336,0.08727030857593257,0.2442184701615615
0.03124687430009935,0.18622181976078206,-0.04283377898726295,-0.0662079438839825,-0.017907351789266408,-0.019111825024046722,-0.019747568922180485,0.2027272680739362
0.08200724499778218,0.22881780055495746,0.032345511029260775,0.012395765567427892,0.11172236612080777,0.11546994590106507,0.16168325995627975,0.38817666189918065
0.08332042830299227,0.22667888639385184,0.038684968829017244,0.023649839459344648,0.11783900758327162,0.14046893018286996,0.14248339896492432,0.3792065751079108
0.06950990341171225,0.23124733999624922,0.02679465481267729,0.007237801184973573,0.11217188929179496,0.10831538576877231,0.14691210565642443,0.37922556463818363
0.04161226560496693,0.21030974016503517,-0.01964984071509552,-0.04437742642958497,0.02380571851589431,0.017797444306080868,0.04643124977037894,0.35814488970727126
0.06227594513368989,0.2062380635112609,0.010201301807395525,-0.013633731952713349,0.07983347895889212,0.08421178865687437,0.11574238496590544,0.353986424400713
0.07620584326522992,0.23497948339355057,0.040539545203905084,0.019293183363897338,0.1304807530258745,0.12319888574775448,0.1447018685351255,0.38532485284506424
0.07315025290536008,0.21508591247614647,0.01721492367739242,0.01116414434301273,0.10342055258396277,0.0955704043597369,0.12056835718377085,0.32827219698769133
0.05465232523470835,0.17613281954175677,-0.019672558371892617,-0.04659483788475649,0.04065262995566033,0.024324971090590806,0.04700676342487083,0.2290916532465439
0.07978280101084273,0.16977823539945142,0.02261342524911563,0.01072338520509851,0.10481500971235247,0.10248820628626419,0.1392759469682089,0.26174585325201377
0.0787370065025367,0.2264504752134381,0.050972461965863,0.017771165323178215,0.13204059552450081,0.13224581212513864,0.1644827359552756,0.36975698037500593
0.07350238766885744,0.1980417687533559,0.035087129541519636,0.013791409389512867,0.13142978666081256,0.11082670613094037,0.13647311557678665,0.374378004117149
0.05561697593588744,0.18492277944594412,0.0034595303789752146,-0.025336939125963947,0.0662382553681583,0.03874190714865214,0.05071551673741892,0.3098798359748637
0.08482172103401987,0.1901768416620474,0.04806666499824394,0.024475458433889104,0.14074747308106017,0.14661260227657416,0.16088377080662356,0.39197312815736657
0.10649945113492172,0.23292630800645941,0.0691444028435273,0.06029912240152974,0.17390685339160158,0.17590597151422424,0.2039351544886546,0.29485695989431854
0.0933462905656109,0.19978518071576734,0.0576732107255765,0.043739944863363314,0.15446624773306777,0.1559737786586723,0.17872368309906433,0.4491263770571943
0.07333773073301433,0.17565629304062866,0.02758861108851867,-0.004083624655071814,0.09555595795499063,0.08711409748409639,0.09487470216522975,0.296654162584328
0.10589355567974532,0.21229614459112808,0.06761979087757,0.06802049294218185,0.16779227513260622,0.1657254269446207,0.22592510342604719,0.3385342468443531
0.12050650983139463,0.21224829016356536,0.07583456039422774,0.08427375858508626,0.24185151807722097,0.26140520786304655,0.29100208970930674,0.4007476175963522
0.12218723220008204,0.2266066538768486,0.07895434062245629,0.0722047467819446,0.25677235235874496,0.2498401176539744,0.28141129185216424,0.3886362959956465
0.09561067051687483,0.22419040266705148,0.05267808354691514,0.02821031239391575,0.1740982296063656,0.15460759218395373,0.16591275915362455,0.336715355337463
0.0885601486519402,0.19348751380177606,0.049922151035351706,0.029880567515718878,0.13371952037465754,0.1313160256891164,0.15748357936692461,0.2957406185170768
0.1354464061284314,0.25790543101174906,0.10572541503993746,0.10345296989001838,0.25903814230363653,0.27363882993481603,0.33593335780394656,0.3922343332146246
0.14107644762391033,0.2617864345483533,0.10884778084999008,0.10938151836245671,0.2302843185678095,0.25882133057760587,0.30431543180654214,0.38910597236140687
0.1191182534933563,0.2506146637365603,0.08753375619186872,0.08253086710630073,0.19262189296603613,0.2175886317513975,0.24840686000495707,0.38610309972854434
0.09596004180740295,0.20697299719285725,0.05797926299037671,0.030966429442513852,0.14112491390674017,0.13692702275221685,0.1518913806759204,0.35432340939211476
0.12280606472091322,0.2289241840417945,0.09067942771328208,0.08921141137087797,0.2119536591437603,0.21773768465559254,0.27186974351308557,0.31758024306833915
0.13239175227283842,0.2646478131668352,0.1079452260312051,0.10795964352143417,0.27533869507948183,0.2738869066048525,0.33856453740303244,0.43963334897555206
0.12508046186301336,0.2426910223660485,0.09651439652880348,0.09706845724890689,0.24123903555435278,0.2558164542015248,0.2899638960180084,0.389664613287228
0.10257291011973471,0.20499535985695505,0.05891745946611838,0.04975859898402847,0.17537961457951678,0.17539130156137206,0.20172216936636628,0.28872576741185135
0.08246742369504208,0.17902711288843678,0.035581765318195485,0.014499861929033901,0.12203814572313493,0.11390074889204545,0.1309772741955191,0.3027066691991983
0.13308554251885216,0.22367992427099112,0.09320928331314286,0.08258313246541335,0.24565865969086056,0.26623849874310856,0.30812844414526325,0.3982026277353759
0.125119932213494,0.22133434973644683,0.07266265075406077,0.07539062213937257,0.2247449334081641,0.2376099805702279,0.2621098230608698,0.3253714645399522
0.10045705160204321,0.19496284526778174,0.0647587003390416,0.05382819640090526,0.1921242138291397,0.1984382647008115,0.22844719419106194,0.33643207988011403
0.07907387704355862,0.16286756659430776,0.01875414791802887,0.007935575897296012,0.11416553226494874,0.0958250332750527,0.12628532980297755,0.3228636606233143
0.11798599964050824,0.21740411750486152,0.07767403637588668,0.0788700488490705,0.24134777183695422,0.24590403614583697,0.2902988287177656,0.36919094711410877
0.10959716310594755,0.21275032063926624,0.07371412081991804,0.07376892900959536,0.21397028643197483,0.22467719011075926,0.26529414558428016,0.35502060875212044
0.09960799353829272,0.2195787012480581,0.05819064436506997,0.049840566029700085,0.20073521058774643,0.19324907518280457,0.23278551893375055,0.3769483588204081
0.07546643944754383,0.14685759348596888,0.007610474405687154,-2.69297950919325E-4,0.1360107406029562,0.11010107533310852,0.12198159613676376,0.3165775424946162
0.08729178384174993,0.18371484614119513,0.05041470953915122,0.05270609512557899,0.18197438471300617,0.19043417962639936,0.2208324255206206,0.35706372572784034
0.11970371780512909,0.21133406156927323,0.07114103763546163,0.06902317884017795,0.23697605481306572,0.2293954370738502,0.2786372474233878,0.39962079515392795
0.09961899715387323,0.18117395778299403,0.06852713420409472,0.05966033450840118,0.19497335545775998,0.2101752903337134,0.25377896789136906,0.395625693958284
0.07783126639538353,0.1784800609244015,0.03165601887623077,0.011528549316768815,0.13793300604622027,0.14791206314105912,0.18504431275581024,0.3893303584438432
0.06759986432563282,0.19291813188846058,0.008302044732345002,-0.003401360092310761,0.09758345002716304,0.10326014157008903,0.12065658465036289,0.3188298630043131
0.10902900873209222,0.19331846705833042,0.078168173307393,0.07544880126778097,0.2446440732294673,0.25259372122619583,0.29176556290539357,0.46261983980992616
0.1084442083775831,0.20400330999412059,0.059416068438235464,0.06492029388523796,0.20885923067462536,0.22617526143719338,0.2696241793179275,0.4078212894745745
0.09778066545099431,0.196051097200315,0.04323747961460731,0.0386495669616828,0.1870567766782455,0.18409423774962777,0.21953500780452173,0.41814867072522943
0.06169284963355236,0.16779937105449583,-0.010035443770614275,-0.02023856620314511,0.09898025441182469,0.09656689984320774,0.10533669760543363,0.33669440698834185
0.07117150028218075,0.1570239511897791,0.019637883016327372,-0.0023405840317182224,0.13292177428547589,0.1375057463301888,0.14566159818014734,0.3140667687394329
0.09213251432087807,0.18521565787558186,0.06054891989459518,0.041653885039026756,0.20212105816868417,0.21413665872667317,0.2621685926345274,0.3789520542235295
0.08679070144284014,0.16675418867276173,0.042570663516285676,0.019883535913538728,0.16636760639987103,0.17931850749788733,0.2138479256162114,0.2977068686549577
0.05673166669079068,0.16128155269157113,0.009669382060868667,-0.012147098187881844,0.10961261381617148,0.10721180822246218,0.1403879519482445,0.3212693203951402
0.051331247371728866,0.14748420071896515,-0.003809528538460392,-0.041263795411237814,0.08148868846426947,0.07705833645666794,0.08486203863929606,0.2886876798532418
0.09382557070412631,0.19061944457360666,0.06706070359174979,0.03670693253963869,0.1939262201263575,0.2062917472913418,0.2446091904644873,0.391836840750462
0.07532917574571976,0.19743612930269447,0.026423772091776015,0.029382397513566076,0.17792383873884943,0.15881538027462228,0.18077443106715999,0.36805085023130146
0.05806217157692155,0.170909078390424,0.0212156985009545,-0.0038233563620725898,0.1291767305880615,0.1335001509719679,0.15038597607077997,0.379462998669499
0.034624036994949654,0.19040533305688656,-0.031988785215089216,-0.062164882250462676,0.06432749143036792,0.03694993280757697,0.04505414113628461,0.34917812542425286
0.08624036530951529,0.2265596697866583,0.04282084679742572,0.024392092006904266,0.18243404052068357,0.17958522272017274,0.22160193222845456,0.5007174498413389
0.08458298146089063,0.23975816833295122,0.04732140313456197,0.021557905043713882,0.19965870499646957,0.18874972660301162,0.2288033835007574,0.5643129962058309
0.08719036042896522,0.24722764769280683,0.03670419048159771,0.014201153288960794,0.18712180489458735,0.1634294633918384,0.20400830714642385,0.5207282119231774
0.055666487619270545,0.23291627331689746,0.0033070151754601602,-0.04022469958439058,0.1475323133331573,0.13733736572652805,0.1600301816699887,0.48639048761841025
0.06557480324005044,0.22068040125975932,0.02012589150248404,-0.007303329743473811,0.26173305532908253,0.2609698356512582,0.2843165712126017,0.462551074616246
0.0981991684111194,0.2589588498008576,0.05821164784402417,0.05249840823091641,0.29195939211055955,0.28075871192550833,0.3174343455929155,0.5607320148649758
0.0885084342452864,0.24130281046617807,0.04415481932817593,0.026051654608641853,0.22011022332851649,0.21404492820837012,0.2343038291028068,0.40882908190748946
0.07147649173117691,0.20752052838267754,0.02706328332168284,-0.012526126626414164,0.1432314551508083,0.09978225705893108,0.14093617816695314,0.34928839559727115
0.05026525928762324,0.1645401896586816,-0.004097699204275721,-0.03168434747848732,0.0940137136215957,0.08142969066081142,0.10408389420905258,0.2976348870303311
0.11215581595269693,0.2246780411247632,0.054581849218155634,0.0582282916152168,0.24266927215435255,0.25576832654597326,0.30192654533194224,0.5103070568655204
0.09811737769261303,0.26164708535406134,0.0660587901647682,0.045002282774514984,0.2283319410799621,0.2182564923543017,0.2718842962807891,0.5153514231114138
0.10165464754679195,0.2447374435042213,0.049243842289025834,0.03289778126256411,0.20256332620092923,0.18250716686099877,0.2026483033436829,0.5713493135087215
0.07027788089189695,0.23056721651949447,0.015828656041570476,0.0068452277248277175,0.10945729067234901,0.09055700020996499,0.14228425247264945,0.47080718014176953
0.11806624788736794,0.251291894080449,0.08739755476367694,0.0678038079680698,0.23150007859326865,0.21973634265950792,0.27427589059221086,0.5062371249826133
0.11083435257456128,0.22658031101489648,0.06042399393373012,0.03939609653197416,0.18179366578785539,0.18131964980233922,0.21662348967665385,0.45194546934324464
0.08989550190373735,0.22010546931874134,0.038402225646231095,0.008109875156775036,0.119027230736988,0.11917643901964431,0.14613733882594365,0.34390789307277847
0.06670777308035718,0.16068663746852233,0.014086038024486922,-0.005021527944741396,0.08660108630650476,0.053282374206851474,0.0749928959064442,0.2449649480314876
0.10025597516032064,0.19100457777713678,0.06958972632484671,0.05396191019947278,0.19240633266709814,0.1992801931354592,0.22491789061775688,0.24953104369715323
0.10613364972686123,0.1660268553307633,0.06361494932004187,0.053771893706369936,0.1571631608867703,0.16183126877743156,0.20393596287276336,0.24947137190692215
0.09109518642109736,0.1847969389711497,0.0402269571371259,0.0364058134065461,0.12946306159300633,0.1571324443977473,0.1847656414538344,0.30958231383201473
0.08658383833767327,0.17874935414681847,0.03254566132138405,0.024762240846517646,0.12762562926174997,0.14481116157465193,0.17494038690471475,0.2937564314930582
0.1221732820867571,0.21803167280850963,0.07535437878284709,0.07199187757277935,0.23020914945994783,0.23545796509321765,0.2986458104357472,0.32273782028968806
0.10965404442026616,0.19517776620119243,0.07123071047351018,0.0680680545041088,0.22207934814725316,0.2076588574070673,0.26796125872893845,0.38767079348628314
0.08621885188506229,0.20173925995682948,0.049470593108969126,0.035341885155921134,0.17726039711821295,0.1706200507679839,0.18966158660301652,0.3610886044714457
0.09624527496377236,0.23135807976485243,0.06329840720042258,0.057685135236341174,0.1717953808369444,0.18250451010570432,0.2185914133959513,0.4072641582285368
0.12722123678965452,0.2451288781485881,0.10285814858591782,0.10996475640852016,0.2743603345664148,0.27850544487698065,0.3453115958950479,0.40227340232586034
0.12917300541563126,0.2605904330815055,0.07945292709769398,0.09290292447640426,0.24976533543034063,0.2579769032150476,0.3081463588349094,0.40690061645257075
0.10485611773500639,0.2031489434881492,0.07477835388247461,0.06552788833370718,0.2045399284024857,0.20365390758538504,0.24230989692588203,0.3964577728272718
0.11216656651283231,0.22262001488750685,0.06942908070602007,0.06724116244065502,0.19333734277982004,0.18629388461759705,0.2302851211803614,0.36657916081073294
0.13653870163493095,0.27081147185205656,0.11827401221068966,0.11839737323310004,0.30062977273128794,0.31367246838203805,0.3786105599874754,0.4787608192684131
0.1353408916896074,0.2126026589161677,0.10736988358346165,0.11656527739195631,0.2593058956907025,0.2793463721471758,0.3314553912417394,0.40987945225609024
0.13177067559803032,0.2450948828089269,0.09787854136429405,0.1067045918529287,0.23796436070626675,0.2389428940329872,0.3006656645031128,0.42324882496257304
0.10488663890323117,0.2519942949832441,0.06644735581310497,0.061881714881454386,0.20624483183575665,0.19493186571303237,0.22255984629080652,0.44003557152159894
0.15126148030335465,0.33182470838670636,0.13389294559033726,0.13224610508569104,0.3221986920952818,0.33245480729533883,0.3896366316293289,0.6027249530701008
0.15589090475468353,0.30413265065089184,0.12727833638555286,0.12008619657887594,0.3041860681588196,0.3153632144794626,0.3954169326559972,0.5877104944418425
0.13445566517074312,0.2812108016693035,0.10038650159844176,0.10102382526938472,0.265391638777162,0.27257380382814594,0.3207830274863102,0.4708137086372579
0.09821377470965276,0.2540299436948429,0.06417971312928908,0.06035346242753748,0.1955744148566842,0.17989268203384673,0.21021920802758134,0.42688928821495736
0.11783633021289404,0.25763509332147516,0.08566362719329705,0.08003449659519861,0.22019260628676518,0.22875737607009206,0.27794044583999067,0.5333009729652634
0.13205022474686384,0.2848171856491211,0.08881118607438161,0.1047493524366248,0.2692905561332978,0.2662422214054353,0.3162808536116677,0.4618157501610229
0.12241665569032373,0.21878403833793586,0.08155786060203601,0.0876289225059783,0.21231790160242733,0.2244608027068329,0.27425221383393955,0.3096039194494236
0.09265496743331149,0.2289456992338864,0.046408812072276456,0.03537460804665999,0.15351876780703472,0.15090443929966302,0.17760798272280964,0.3295763957625705
0.10664593183715224,0.2565715305981879,0.07188830008980501,0.06615913425503948,0.1852614399028925,0.17941056021422847,0.24274722650849442,0.4162399597214923
0.134042765897682,0.29524748741639134,0.09694562382296303,0.09162088077050944,0.25553589406912397,0.25868533240661645,0.3061328609127695,0.5644685097486035
0.1164886235511323,0.29726063847253603,0.07424517554336316,0.0712715871542486,0.2200941841476648,0.23505253234900333,0.2722005990602651,0.5868507151458354
0.0904456367287537,0.21912657458912463,0.03768912325736305,0.024429034081450397,0.1556276869417537,0.1488173729232129,0.17038132053397712,0.5066445282025813
0.11097766523543191,0.26930010638856977,0.055006644948456404,0.05351880938556134,0.2174526275918841,0.2236216189663004,0.26297129130554253,0.5167981862232627
0.12999562685406213,0.31229835066892836,0.0911939450853571,0.08533534258050221,0.2746472623952457,0.28643148936676954,0.35465576192000364,0.6439472910269974
0.1302301599159487,0.2872519851200619,0.07795132744333355,0.07974633022409934,0.2571136752911332,0.2486899460346577,0.30413017254621094,0.5491947693505896
0.08623731542348444,0.23813431449367767,0.04972304727601771,0.032280147359669345,0.1741020096665949,0.16122157901998144,0.2086783767212833,0.39789376464934806
0.1105960660533237,0.23092482355665336,0.07435669924408186,0.0691289836235924,0.22995058741520186,0.2249467234228065,0.26711968554691656,0.38763521647120586
0.1372018490636616,0.25972367106836897,0.10458237421745072,0.09959370701724427,0.3006272134124589,0.311282177919643,0.3688179097815971,0.5116393692000456
0.1321120393042644,0.270933415938382,0.10285579527516817,0.09341085062934697,0.2763719304039823,0.2952182210727756,0.35462909700116213,0.5077084540266943
0.11224969635635826,0.2587293244578151,0.06624112174768484,0.06907668361287118,0.223672841913871,0.2243599865988748,0.2576581464375872,0.39594928476128144
0.11263550689223377,0.23680016682721994,0.08024981408807941,0.08797486935819773,0.24755350692719724,0.2271599002839584,0.3109575397100131,0.39921840314989376
0.13821361171796165,0.29768288516163877,0.12419938115255383,0.1257110954222406,0.3205229709286806,0.34555886948347525,0.40896764006557923,0.5067219182545137
0.13620217587808828,0.3276969581624069,0.11930543364700054,0.11766952097775475,0.3248805905157556,0.306874610963238,0.3907428960266932,0.6473829753767032
0.11807019700738292,0.274433832313115,0.0824649710685713,0.0895946539954576,0.23702288528144075,0.24115286095095123,0.30974549887543434,0.5782958924619475
0.10249258490271995,0.2398096671099277,0.059006355574662786,0.05538391421271545,0.1939661520462996,0.1835777237525695,0.22877257079603558,0.5164139744316039
0.12641095666069174,0.27316896593249695,0.10912846799226525,0.11979015113457983,0.30866071172929155,0.3168622447782625,0.38903104196197635,0.4631461839615735
0.13962649256704554,0.2982716928308305,0.11096098457905326,0.11200930816727248,0.301997629629634,0.30963519889766494,0.3677015253437339,0.5346030984102468
0.12340093909378516,0.3236853043876524,0.0922790988830437,0.09436180941983707,0.2790086872673263,0.27279359643203693,0.3186747275411038,0.5275483965456895
0.0939828597044011,0.2592316064316677,0.06468398981704251,0.04186869932136174,0.20482586359232158,0.1757088149934351,0.23378459781322722,0.37303600700676587
0.13058353672266898,0.2612560431591429,0.09680565413649571,0.12355892622702805,0.28468911395255814,0.29980312746492216,0.371971961445361,0.5140531228002407
0.13500756702548355,0.3214890744497996,0.10202021896918186,0.10770826128043139,0.3117054195898722,0.29490474340616124,0.36179857010389543,0.5332013409733553
0.12327680832520369,0.34479579992777165,0.09437563522567363,0.10841698465164545,0.27517867974901444,0.28406015024262865,0.34563625949415605,0.6215115706352603
0.10051718466243706,0.2635303657674632,0.05512887897140981,0.0540506911888097,0.20812409266382853,0.19912849171185038,0.22816210650983432,0.5439556368934764
0.12183296240996341,0.2753091401551444,0.0828306278397581,0.09897106594073618,0.2816220299129834,0.28847508228580443,0.3449079356495761,0.5127862267371893
0.14034084850071094,0.31065381159848016,0.12051864312412379,0.11913261437812282,0.33308607883394103,0.34799381461584405,0.39880417744150254,0.6130762700861484
0.13822465332457765,0.2935310651866686,0.11609731735117429,0.11501320503271248,0.2982036337220816,0.29214487771334274,0.3807054723152663,0.583117976135677
0.10987024274333632,0.2637717563139515,0.06916903529973263,0.08210830171945921,0.24519777036983487,0.24804301654955155,0.2687910676773404,0.4478891091474258
0.08226967981312057,0.19289922213571206,0.05192197351922831,0.0461041260056467,0.1851815266650033,0.1778033519627968,0.2216214327881817,0.36831748818589344
0.13401564749061518,0.2683710630732837,0.11995751938002602,0.12720748263725556,0.31771736189626343,0.33099539558387464,0.38762645711517335,0.5085427747541007
0.14018665516214146,0.3121233324348252,0.1087103457834693,0.1229157187478167,0.31074165096799733,0.3259479499813795,0.38788702978041123,0.5485994796185206
0.12889711805172147,0.28178106728585944,0.10053996471340888,0.10959997867026543,0.2804544745348056,0.2701087599036865,0.32122131036731727,0.488768614709402
0.09883293904280666,0.2348512498052432,0.06390400385748857,0.05285559054243665,0.20568979727909875,0.18161293983332438,0.21494077298471134,0.40228860024932733
0.08179671284591028,0.22527712469707406,0.03164435497978262,0.020833640835233737,0.14217395609512437,0.13806518149964658,0.14168933942057277,0.4801966959966312
0.13635836397531068,0.3175220492801965,0.11446849928590695,0.10644352064436596,0.28688941785406813,0.2832574605414653,0.3667610698908101,0.636769007168296
0.12566902098411356,0.31881673714063324,0.09619308656990483,0.09938567053784991,0.28866603835750115,0.2638529894421523,0.3109914951218156,0.6487563172835221
0.1140983785836882,0.2984588080698503,0.07944900862566975,0.07647589409343349,0.24174706616202696,0.23725522639829752,0.288417662897009,0.5807237766653919
0.07406152972482885,0.25868563843752845,0.04908482223996399,0.021635037271339315,0.15680020765158548,0.15615894594919508,0.15187852344319652,0.5174272258072197
0.10247157985498154,0.2803003533623949,0.05959146614644449,0.04735212036952214,0.18467550912917027,0.18985744966195126,0.24099658430174548,0.5927932967933852
0.11177556137303446,0.2882304964174763,0.08949832525703977,0.09311458350696586,0.2686046259365637,0.2757344616964488,0.3393115890158239,0.5932964013430336
0.10682248990142898,0.2693581464934275,0.07612097113185239,0.07631759573851357,0.23487443080720918,0.22605896645776885,0.28647391852267157,0.5771631644035531
0.08043024938804691,0.24260979258097431,0.03189437105850834,0.025587668281012887,0.15197790533126862,0.15001469348570032,0.19518917266151511,0.5089247689757528
0.047095768563938295,0.2406446461760044,0.010025190981293418,-0.029942424964168404,0.08815788414611771,0.07826155473595181,0.09892239475645748,0.5128734637697892
0.10472527646528035,0.3044512210755893,0.08134674639210146,0.07290050773727924,0.23690923409123849,0.2440585582465188,0.28886423527152183,0.6866142792516214
0.1062553702827442,0.2531219881795311,0.07330856028723627,0.06695784581432104,0.22403288193941714,0.23002074974430442,0.30447393489315117,0.5988758130352652
0.08859464261156809,0.23916360357808297,0.05675072205237685,0.04428560368153795,0.2246436836866248,0.205751393142618,0.2518947291482949,0.5318267692397234
0.0608617071354961,0.18182178630714907,0.00674687609218208,-0.003149797562595265,0.12968324166421322,0.10808984429375978,0.11823728601675182,0.4198797105660762
0.03974875180828634,0.18459431919321634,-0.021241528913120443,-0.046637811483468176,0.0752390133070074,0.0623266154416736,0.060654122167956875,0.43203161382006433
0.0971285686209454,0.2627362950587331,0.06296423316544089,0.06075868085027446,0.22387244342298854,0.20910619920813805,0.2854845679375553,0.5048291903246294
0.0858276475543808,0.23468302547849268,0.054235219765621186,0.04612362335609034,0.20874390418372948,0.1914578749725937,0.23675372007683632,0.39241141607429497
0.07900128590049987,0.24229415087807438,0.03318270524272802,0.021440098095108412,0.16944254309456921,0.16026651482737392,0.19610661802394053,0.3780963300005818
0.04929446092107134,0.21855780372796124,-0.008885500015829738,-0.02967720366755443,0.10119537975877826,0.07938235421687415,0.0845152484908608,0.4410692441635737
0.022230125972089454,0.2252981586184002,-0.04346831364460263,-0.07620992698995524,0.032915041344211894,0.014891012442712098,-0.007899988825602403,0.42420959954677123
0.08668355977183975,0.28821860314956127,0.042150878593607305,0.02048420550399361,0.16380294946982515,0.1618466335773624,0.21984615623760057,0.5250401286761778
0.07659998730158794,0.28196997859477274,0.04307430294172537,0.023945631859422487,0.1674394182206319,0.14632130996077553,0.19265699101672085,0.5168706928111406
0.07891244106610716,0.2688182009820482,0.019274411294464888,0.0029089539538117368,0.14629825974077282,0.13432500602147446,0.1812373922817191,0.5248652670622268
0.04326246249706935,0.28728704136836025,-0.025831328543107705,-0.04368737307370728,0.08378702181887966,0.05516891391429388,0.06675075220831064,0.5250629749870622
0.036106284182403865,0.21322690288725377,-0.025106324276464573,-0.0582016639082109,0.06119868764517425,0.03866484029195437,0.04060015599743579,0.4940203591437361
0.07079882838543242,0.23636793690987368,0.02015462427581649,0.023091563967718234,0.15122690150429532,0.16170879489921425,0.19917725110477977,0.39085399072040283
0.05247779771558473,0.21907330708962314,0.006889800554376144,-0.008362330777526482,0.11129964766498898,0.12037542740279084,0.1478794022853878,0.43303704385603753
0.03966971640136772,0.21783332732864016,-0.01362033435530876,-0.04017595478722755,0.07297078803674349,0.07535237048765346,0.0919816929573528,0.4327219384933392
-0.0038084415658834886,0.22300325679441102,-0.06495386051970649,-0.09883047854056962,0.021995147286416633,-0.0019012374131711501,-0.016611157373358734,0.4826727468034418
0.04849851592035533,0.2153851742846033,-0.005894887740452992,-0.0210507429747126,0.11278552198862027,0.098510006289057,0.15956167546018168,0.5471168965003438
0.06906000446527072,0.21557943878770092,0.019935946401696533,0.023017132450737693,0.1655015932444039,0.1684057797232905,0.19996454616113307,0.6028562932806605
0.0700769087414195,0.2604663930949055,0.012547583531218584,-0.002679358489174638,0.13228711940996468,0.1408391870947816,0.16659769847432498,0.5066814120686856
0.0414402239014586,0.23833579976327077,-0.018781943417782193,-0.04803157020338219,0.08256281277428662,0.06694813607324299,0.07378942565748703,0.4358082516711069
0.0064561237612243486,0.1726975226277793,-0.0537723787156838,-0.09804958386827685,0.0021753391006497716,-0.01034020223761678,0.005159530781888716,0.33854153827215483
0.06172439035083202,0.2001847800058496,0.01563582000777701,0.007942702349744424,0.1303039817607289,0.14114271676668194,0.18340356550860684,0.39029395494288116
0.06623652983307374,0.23134414731911462,0.027168479274028268,0.015113945717329873,0.16250787489743315,0.15604932252552284,0.17981060744779573,0.40628543040438536
0.07502831302821597,0.2555211097408562,0.030065655390491747,0.009150647419687068,0.15023769975221357,0.13263082634901396,0.1764911673411071,0.44078061872143304
0.04929628535587463,0.24732669779686092,-0.012894834427895102,-0.033868280920427415,0.06255701384190956,0.06445775389694869,0.08722199108522277,0.49927883926257777
0.013458598631970228,0.1866830291330098,-0.058172201226449366,-0.08705514886399494,0.01436061253509116,-0.01227386468298828,2.1748326393164485E-5,0.39775189034428043
0.07445480586891645,0.230221712991173,0.02569409184068161,0.0120527174362395,0.12410941556747576,0.13895734379321834,0.17824972625625457,0.5379442863840544
0.07807486255004471,0.25111889894127004,0.019703021328338184,0.01361640750292286,0.16452380950813028,0.16049837678327356,0.1992127854915584,0.5648448358033561
0.0817512291852725,0.2811081353422931,0.03233375916509064,0.010547877592991202,0.15180530525612393,0.13366852687266678,0.17766666761483135,0.6265056091578314
0.05578549844862215,0.22746172320266916,-0.01193324143044263,-0.029494922246580416,0.07331714495732189,0.07320176297236458,0.10100398015845669,0.4357824068552303
0.0473079084543756,0.18531198582913627,-0.008254892117943322,-0.02958515035952229,0.07333135356425335,0.04573400791697345,0.07342860498669396,0.3553512309554496
0.08915314880489253,0.23506426351808296,0.051773296799374514,0.04706038933001626,0.1849075546151631,0.19024600202005434,0.2551957886611684,0.4667607250785277
0.09515746011590756,0.2541517029386852,0.04260475692287746,0.03013532522268058,0.14502538249083685,0.15514506470883627,0.1930087848674517,0.4448354651352433
0.07864901571748958,0.2534785038709889,0.029306863761212817,0.005810445276210545,0.12035859061986692,0.10622541124102228,0.14107628630386843,0.5087953139979056
0.04829202868000419,0.22272304980517746,-0.008755685972645817,-0.053225633106361435,0.048239151283520305,0.03488392752001064,0.05310759279308022,0.46669859274583436
0.07303740008400314,0.2260640361662002,0.022999909582854375,0.003840616879152145,0.13338892769843608,0.11622495030491457,0.14050877465153416,0.5299741834214903
0.13148986401823595,0.2903298773031189,0.08363988242027798,0.06513383539768522,0.20864087459266623,0.2086219900755272,0.24286490413614858,0.5997742544486618
0.11982980056684382,0.2835093720038535,0.0811897648744092,0.06688140787143629,0.18202463811952446,0.193196615876635,0.2020136420861388,0.610190118135873
0.10608577203680805,0.2410309435092492,0.05101977478134674,0.025577980395604258,0.1385793813713505,0.12492692236263755,0.14937796989987437,0.5520598809604755
0.06476727028233753,0.19051868054198295,0.006716596340935126,-0.03976533967222815,0.04371367387683735,0.04763746329945445,0.024981858152304914,0.35994497741890524
0.09800902791666842,0.22833107152960624,0.056181678473892285,0.030498127613852316,0.11839978238028809,0.11827522339632643,0.1512012051515909,0.3678503601076536
0.1374837840628227,0.2503444611852604,0.10312064421279607,0.07805721712504374,0.1796079740315099,0.19336905127498277,0.2109312760254842,0.48370005431697455
0.13413915334028456,0.23203307647973956,0.08948743610894531,0.07914554942552733,0.1655276500679205,0.18454613148118026,0.18741552069885595,0.43846538804022006
0.11661115151364984,0.1788742879521537,0.058426896466305916,0.03302752254559459,0.11930418670211344,0.11493489666079364,0.09628105405471056,0.42553421225671495
0.09218950759525534,0.1809170822498654,0.02560979883448254,-0.004843814428881439,0.058051280380545404,0.059840055089094034,0.05231366315060028,0.44403739896521244
0.16771941610125388,0.28729246935287367,0.1112917748973669,0.10281204548731361,0.19732398073219226,0.22490330660950192,0.24627964022495252,0.5410697879115335
0.16570697308103827,0.25405894774622206,0.11710788455971088,0.08083451842004755,0.19430193983101546,0.19777361613377814,0.21564880096942837,0.5362341081441832
0.14499645464601194,0.24343576838019043,0.09858052023890079,0.06879079821878031,0.16074010558308333,0.17003420535196742,0.16793918754648993,0.515437627049225
0.10497472174460104,0.20364556193279076,0.05005791375893845,0.018998558004749547,0.09144965785718179,0.07359717263755058,0.06610977576325751,0.42033728932016684
0.15613272671418643,0.25441356070076904,0.12492357657887658,0.10956913756614126,0.19946922366313108,0.206459320825857,0.22820909532766204,0.48095872077239465
0.18291197261410433,0.24521166334437494,0.13581870639726118,0.13568413777842483,0.2270379734605704,0.247653085414188,0.24870812739897688,0.5043874651562459
0.1684135636203375,0.24299139958007948,0.13431919976280066,0.11336138563418145,0.22042593876461905,0.22000991138924464,0.22631018111313794,0.44166631604460205
0.13835322505703312,0.19922160903773406,0.09308922684733212,0.0637062389576193,0.14133918940653767,0.14507641324010345,0.13510782212358535,0.413983290078871
0.12180871173272706,0.1949162188406215,0.08090924779632973,0.04833337186980939,0.1110462012621342,0.12020219199956622,0.11467653049256779,0.41100941915571637
0.19567621854323225,0.2866146961604723,0.18946590293747184,0.16722009405043647,0.2683704125785769,0.2742173010942945,0.3171718004485254,0.5703922445928361
0.19635177920613733,0.2911435564030167,0.17576385695736363,0.16669717650768262,0.25906365987683183,0.28314960441529075,0.2865285256448199,0.6252533874532525
0.18179536889165265,0.2697294664852743,0.1538259830076198,0.143088526734691,0.2283707477657111,0.2285805147122565,0.24556924362574262,0.5897714787797919
0.14270366041701166,0.22705889204369756,0.10561671782586951,0.07906389590782491,0.12712795736209034,0.1552149307879368,0.1245564977144294,0.5117216554726856
0.12974308460302938,0.21988507135243826,0.08866889076652057,0.05973216080979696,0.12532500462069818,0.13187454299004553,0.11560961888797834,0.45901045051126527
0.19238408336645407,0.2691373836124317,0.1841231432048544,0.17365948157553007,0.25965963548219617,0.2900486777283924,0.3121484155053962,0.5846195458617562
0.18690867052283233,0.26988914799246766,0.1736480573621592,0.15469921962113162,0.24123291658299245,0.26980975731637374,0.28993963131856054,0.5474698099542118
0.18004524440479133,0.24782330979988992,0.14575408732990908,0.13385647074423973,0.211078071983492,0.23396223277385642,0.2565116510887008,0.5161890855599235
0.13600577514672416,0.2294273461659666,0.09369881732565581,0.08258605619146252,0.14581133639226782,0.16196573587705554,0.14098244494087303,0.4807722073822417
0.14735318921593948,0.25357053213617764,0.12553298809601773,0.11430445980317029,0.17464943645066233,0.22133665999170643,0.22112259779978122,0.5905143657575584
0.20507243746491144,0.3079129000246423,0.16150945881451545,0.1556707019297916,0.27413725896252555,0.31331546214049305,0.31492778333421173,0.7170342013698232
0.18755229830651654,0.25448363670366686,0.15140364688883842,0.1364008047669203,0.24372251340693446,0.2839363963523064,0.2980372104759569,0.6335873459065204
0.15151066233231167,0.21934955217346433,0.10665620649572714,0.10021368199973765,0.17741912881855648,0.20603289351670595,0.19774361296002818,0.5488081429537995
0.11766364851271584,0.18765895746761208,0.06580055482452507,0.047473308441276466,0.11384150297717227,0.13627259213491466,0.11763469754767998,0.581667176301485
0.1814124948189786,0.2672231072967819,0.16137274125953566,0.15088753365088017,0.2766126345257457,0.294315525637914,0.326013196940527,0.6890211508634617
0.17498824333002713,0.2248899534793426,0.15856109055747297,0.14337712445964051,0.27210832404727847,0.2925636385869287,0.30856465209038164,0.6444908488587999
0.18378130863894965,0.2500739655416505,0.14836054026976225,0.13955438294887856,0.2392525066855521,0.28391756544085833,0.2719082484390751,0.680471652508745
0.14649249804847125,0.2232104332697855,0.10682232367302852,0.07670279152990729,0.1624520758502733,0.19702289493780917,0.16753334191337937,0.5236134988053618
0.11997852721164504,0.21227939706173365,0.08636438729592648,0.05458727928863655,0.1442258870440495,0.16556248982160912,0.13976718347298328,0.5496924960186275
0.19429715277675602,0.2622692621529113,0.15846669141393308,0.1559956778065133,0.2771582651794514,0.3166630910673748,0.33225323885831576,0.6077728225311243
0.18850476756461654,0.2678043144119856,0.1603397299356716,0.14864300677340825,0.25349784176443246,0.29886344725387964,0.3069752811332203,0.5776328178007072
0.18031814519029576,0.27089893298503553,0.1351336875510873,0.13022997994909066,0.22221823969198817,0.26308647219328585,0.2704892056433805,0.6105908433413861
0.1448945728342344,0.25012508809221146,0.09106497342518208,0.06676711298030868,0.1529466773315487,0.17366577861160964,0.18230316904707333,0.4991733596336272
0.1295479021217644,0.245048528368761,0.08663383488293051,0.05036117515905736,0.1483837881605414,0.16644279396505457,0.1460652806737578,0.6147186106779737
0.1996136197909426,0.3269908639049031,0.1545732088358355,0.14184737706654943,0.28170775543002186,0.3079769331054186,0.3404988653348697,0.6689076158715104
0.18598711802700557,0.2865658901780398,0.13969405624884634,0.12621382601311276,0.25312525478981013,0.2699542514879899,0.2871290007090834,0.6633562654840425
0.16459743500157786,0.2943456646688644,0.11070099033169255,0.10443484951018249,0.20522627616885897,0.23622874966598992,0.24199759501404133,0.6074266110751981
0.11748231442564418,0.22173360731204964,0.06384078523748207,0.03785530678125458,0.11145415409962436,0.12967378364723398,0.12556047326975017,0.5367491755668302
0.1226449513603121,0.20236982568651787,0.06602993974586902,0.04677657704053487,0.1311380240979918,0.16153793125009913,0.14395945973089075,0.43984438577499607
0.1680685819422592,0.2219162805414598,0.11197815457903604,0.1188419064966697,0.23730752186085835,0.23975533387908493,0.27881168403757767,0.4928475955991649
0.15606521616124203,0.21729971412871502,0.10989386181951845,0.09562595327515684,0.19484641661327848,0.2283895251958552,0.24733979863102953,0.536002639073894
0.1277282826000201,0.2244358541205877,0.08167932682185948,0.06141249560336656,0.1568928504214014,0.1745301235599564,0.1713256835185414,0.48132121232957703
0.1004231767325852,0.19660979618294877,0.05540699426083409,0.02002649344559576,0.10925629068791556,0.10836280253449904,0.10061539616004744,0.5058764504882514
0.1771430015932136,0.2863544970697213,0.1355416516825646,0.1124999933964221,0.23000695598076243,0.26871273071579693,0.28942311111869723,0.6434760612003794
0.15882630212139898,0.2894947230156991,0.12427678324881035,0.10668299144165468,0.22947486570503586,0.24899740667973336,0.27540917885298305,0.6244453981589859
0.15193773637957514,0.2580354528326858,0.10848122527714496,0.08773791040758472,0.19553751326406368,0.20087423862091286,0.2279546926160511,0.6635008684065806
0.11817536457061098,0.2691810281671691,0.06456812011411665,0.03125728202000226,0.12361357698047751,0.14714021851296488,0.14022609740486683,0.6131358148050416
0.11739952740184717,0.22313618040944022,0.06720667872888447,0.03760397025460871,0.1180266547412256,0.13686448577768978,0.1344570410070114,0.6555076956178298
0.1655547117152806,0.2775426216629594,0.13641735611401748,0.12364707459859053,0.2552391479337141,0.2927273083558884,0.3058143425412626,0.6470270204066324
0.1608664563838906,0.2822409729558438,0.13000699284992662,0.1194132093163701,0.23261703464769248,0.2637711170788714,0.2714873639525235,0.632891933723943
0.14641364225525302,0.2752415030930801,0.11666352600601451,0.08610426432982272,0.2025251841038864,0.21559527379954002,0.2327685361150652,0.6996602852110739
0.11647241607551403,0.2491908043576847,0.08332032035571905,0.03453213369207128,0.13925138447308186,0.13066310798699643,0.12239430891970511,0.641201667835472
0.12727292566148796,0.2669360462831241,0.09577743807280416,0.042780568380903494,0.1467773832451311,0.14779150749409048,0.18588027049690214,0.6820432951970083
0.17242743359297777,0.28522478876341495,0.1342031953452718,0.1251044015537422,0.23946715730730456,0.2909062509915978,0.3230087407125881,0.7058189582272429
0.15551710928639287,0.22683494672402071,0.12577025218912447,0.10979428480712333,0.21648163599033793,0.24288573810169156,0.2766467876243701,0.7166979994541882
0.13717784378206282,0.21638919437752646,0.09293565871788582,0.06841472589481695,0.1734790194469365,0.20033646731162102,0.21772338777407363,0.5995709147299033
0.10989228298176502,0.19849145243971592,0.05635647339751199,0.010217805111825691,0.10962631609696669,0.1165846952673018,0.1110145508794446,0.49214050271711496
0.11356586402571545,0.22459700466517996,0.07953527962557372,0.042683660272658595,0.15046402333004893,0.15253374944723963,0.17764977595948683,0.5555619319066152
0.15460670361007461,0.260512299942196,0.12226468721845149,0.10179008629408295,0.24083813152710418,0.24579047089439726,0.289526160846768,0.6370967993289194
0.13904061988342162,0.2562181468079757,0.1091485636157701,0.10050709320315555,0.20982502076825288,0.2270499501624823,0.25929161122493616,0.717459971972461
0.12739446690712997,0.28146491925166783,0.08637073628749022,0.05859550860347706,0.16821754328884905,0.19189540975817382,0.2057305948366559,0.7121514333154751
0.09777153145201797,0.27091770369008666,0.04721745671514236,0.006108718211969538,0.10200097911354032,0.10362273428725616,0.09993951643899453,0.7313378502267063
0.1602659011041743,0.3101378631504798,0.12918792672785412,0.10277060601171625,0.2401195452380468,0.2559736167427217,0.28309069939556575,0.7990114385875223
0.14826934293632102,0.34110115433758037,0.12722884903699452,0.09712377061005506,0.24518208318139553,0.25329442419153436,0.2993884342063488,0.7964708366232848
0.13812792261281823,0.30881260323601617,0.11345340654981176,0.0886511579861563,0.22795586264707807,0.2234438881811168,0.2583559469500276,0.6683395712401748
0.11193978309181696,0.2783418995605379,0.06678085175172824,0.03739423687031602,0.13301105943829877,0.14053514668079203,0.13169223385524112,0.5534414848612923
0.090791770588593,0.2176633141449998,0.032139667194643826,3.815067473479372E-4,0.07567820474284284,0.07940809337685655,0.07313224263912761,0.5433216951641815
0.1479356978148954,0.2628243686069103,0.1230273173796583,0.10447085358144476,0.2433107880921468,0.24361334257656916,0.31609761333011444,0.6373458703793111
0.14426485732202882,0.285075610472728,0.1280609628956001,0.10407088201747823,0.24158956393558423,0.2420769471376911,0.28801087627520916,0.636189563616565
0.1401901375095746,0.27740564911221477,0.11384343115462467,0.09692289601662782,0.23040213600992884,0.22299357996752436,0.28208866971878443,0.6486992130565128
0.10591178263908244,0.24479820816827033,0.0642216932875142,0.034704010921034194,0.14843591806225348,0.1427088304180702,0.1745305002654231,0.677045774467715
0.07871900909629653,0.21036660037018035,0.03191032349888303,-0.009913185588825913,0.08804264595431278,0.08833055229154237,0.09742891106172244,0.5840208274465608
0.12083753759970808,0.2571001737264889,0.10007750667171732,0.07867425019042126,0.235110334656899,0.21982763955261492,0.28588557342420945,0.6423570720087739
0.13107042560126628,0.279529478342727,0.10894924350879559,0.10157976061721836,0.2519240490305881,0.2502467286608418,0.2887431842285978,0.6672200837813634
0.13063030954539745,0.2574679416183043,0.09323512566898434,0.08710018886399018,0.22139519366046573,0.22425988686028533,0.2727827930354979,0.5467045670111451
0.09828329077302692,0.2361802410661709,0.05838508853000238,0.03502321624065958,0.1546079687809465,0.1443651984793462,0.14896732563239537,0.49614201014175874
0.06642840780606765,0.2286793392783607,0.012498203196237831,-0.019081169260515528,0.07918708750752804,0.0714479356567183,0.06912103441545314,0.46393066580523656
0.10099956474026006,0.2694338203427248,0.07125395265457912,0.05200142830868648,0.15137928451057578,0.18275643707701095,0.1872938282814484,0.6357386274846255
0.1439748990157303,0.32216423951174045,0.10501646194226893,0.08545476970009816,0.24027981266144743,0.2319066351334102,0.268050214451385,0.7124620234545577
0.13262779333716251,0.31109843633667206,0.092834624270352,0.07932486548477462,0.20875747178356405,0.21740612803942666,0.24322448508779101,0.7705000292602288
0.10288399487954339,0.288459334079455,0.05590429735364906,0.025454764867474194,0.1579109699623801,0.15954911011365774,0.1601422951855914,0.7446432825454081
0.06513426611907687,0.2758158277256675,0.012626732718279347,-0.025948890412717217,0.09639742707337517,0.06159404171773393,0.0904355117854857,0.7006663300177762
0.10354400202079442,0.2734805980002938,0.06540106698237985,0.04624554779939361,0.17953222335587257,0.16906819022375258,0.21925731911848634,0.6441523311796471
0.11956654241477603,0.2621724429672018,0.07399637259096989,0.0682277031644786,0.19721779908304615,0.2096726734011195,0.2314177260732479,0.605266121280866
0.11625653516153818,0.21184304618549687,0.06822283721653047,0.0495121638142871,0.1845623316343384,0.18790471609297282,0.21321684866739377,0.5207563645947365
0.09280710097057467,0.20533016301830076,0.026024689358002763,0.015733128925909307,0.1266763957670809,0.10718597842362251,0.1269191700398099,0.529776393599026
0.07647276859999617,0.19292152403634172,0.024790320882037156,-0.01578585160588661,0.0846978387005231,0.08897012601359276,0.08766498610446817,0.5197900780858861
0.13576585208240338,0.23793063527676261,0.08378892923700815,0.08613165091809544,0.20878241711174975,0.2412118424666615,0.2941717594181818,0.6305469363153159
0.131615693824177,0.22992188523353582,0.09071839587302598,0.07797301909219403,0.2123933696318883,0.23458112409717552,0.25879778429400774,0.576678208348415
0.12400696241253872,0.2496456199571498,0.07667871706781204,0.05952754759198164,0.18176461257576063,0.1860691459032494,0.20306917140724812,0.6003531111759147
0.09151886174861754,0.2732385825449831,0.04477364753684227,0.012097916742178604,0.11876248123371062,0.1192301033737291,0.11817242781915328,0.6500352955768816
0.0965358816852927,0.2506982245693433,0.04030463896854346,0.024362833364241464,0.12168108047830944,0.12376673376335293,0.13534114144882164,0.6222641218025684
0.1458457042082452,0.24228887775114374,0.11869738579658956,0.10123124205495533,0.2584881010138468,0.2505261122500205,0.29146426034779405,0.629951154055598
0.1465178096459455,0.25155423876540467,0.11524936366495367,0.09543561989644417,0.23313192752399822,0.24738478427235694,0.2781162606349177,0.5933483294963422
0.13750755493153904,0.31070061443439445,0.10103997758815506,0.07595257438634713,0.20518562527606057,0.210649128483212,0.2359793355823374,0.6097821935983435
0.10365012974029462,0.25057005654454656,0.058911997394702265,0.03212089509667333,0.12043715996545358,0.13075324627259152,0.13636679944907548,0.5635697322385025
0.10834624902326502,0.2313708190827523,0.06420714104058739,0.04422224032879984,0.126945266494203,0.13101899838479958,0.15908821000275636,0.6145820301419673
0.15945253797450035,0.2929547730500162,0.13056099484071096,0.12128147575763995,0.25247133351200374,0.26867673325474595,0.3240892085893497,0.650944638333655
0.14966550633787787,0.2708700317534914,0.124928125028095,0.12380436077564048,0.24704287520416485,0.25141571521908385,0.30032337762108074,0.6836063519557527
0.1323350970361794,0.2909895899580571,0.11328953378693807,0.09533791126161612,0.20981966962173898,0.21852695235612365,0.25983455619193513,0.7563408471414089
0.10959472907086208,0.2386130324175546,0.07095386116118588,0.057764329618204165,0.12413920168881205,0.1277712323662626,0.15762266931791347,0.7087010730394423
0.11886142041152642,0.22071424003898305,0.0808385911525389,0.06381408872323502,0.15921492164204848,0.15328274328591368,0.18638744642651314,0.6352368964688215
0.15214488988921865,0.23852401696541514,0.14048065076418567,0.1320523219092284,0.25251526170364796,0.25381823292977174,0.32449056943018734,0.7161773636424624
0.14296631684054983,0.25144220847181714,0.13340038104835877,0.12862356622568782,0.2190156446844378,0.23085459749654866,0.30195713408339403,0.5974339554632037
0.1356381813789848,0.23291106289717892,0.11042369910172897,0.08274417355742789,0.1879247630745501,0.1841649367191236,0.2364875790559596,0.626213609962184
0.09243965369606452,0.1932726828820519,0.0690410941685011,0.048033287895674875,0.130303279794711,0.1372067066285702,0.14921397430197061,0.5225041715401116
0.1610570312615723,0.26027339913942243,0.13701140776337306,0.1371850362531984,0.24912120985291616,0.290665520520558,0.3384189446401843,0.6175169239101167
0.16561206600883935,0.2901036843452147,0.14758299556535226,0.15474523785942815,0.2728752213525904,0.28724455541011035,0.34356427737009176,0.6620282766541123
0.16965316218507426,0.29569499368469515,0.146441918729042,0.13573833014684217,0.2674507056551205,0.2800450375654663,0.305298827912259,0.7650618012206017
0.13551932682530887,0.27563053762788847,0.11327620521056112,0.09128831786389485,0.1987289503249372,0.2090154990314279,0.22142105422692132,0.6856249301189106
0.12743351043617934,0.25341548499412897,0.08891000794745109,0.07739449703753029,0.16099067368433206,0.16805746570656233,0.19546565244357578,0.6713185664381751
0.17623237047152293,0.3344739959333827,0.17022117539546375,0.1715090105936503,0.3034385582681352,0.34349711228250757,0.3966827192770505,0.7618250401273438
0.19015157481663675,0.32709182374518836,0.17797094065468183,0.16988074678433582,0.3199069298915871,0.33453086365538676,0.37561858159595785,0.7277615208293506
0.17766314024352864,0.3290192547478695,0.15214734796092824,0.14872117824128278,0.2822559556174838,0.3122596463495082,0.3489915514000791,0.7276916708993428
0.13059300095568924,0.26971537666145184,0.11649309501350735,0.09437653369998963,0.20821975037015578,0.22718733648124662,0.2501318207764335,0.6164719885395702
0.11561465218117284,0.23187676767078313,0.08428845633976387,0.06687232082068029,0.16483149016874116,0.17082163929328298,0.17555832558121737,0.5301986429249599
0.17140106758386445,0.2641299631781106,0.162414320421372,0.1671876564512413,0.3084162663998157,0.3361238561401385,0.39754793664913574,0.6532165637340106
0.1708307635626924,0.2956654639648629,0.17197543177411317,0.16853328988554997,0.31149969362264657,0.329107374306732,0.3779824545563522,0.6870096703823028
0.16954108885845418,0.278120783362569,0.1499381941994469,0.15367702830943314,0.26982967221883647,0.30864231986364016,0.3500640191324668,0.6459370066118358
0.14415001445751283,0.24328745108765304,0.11334472087144476,0.10891195461493575,0.21745814193748916,0.24134537957628413,0.2528522090358425,0.6206205258611792
0.1426035910679807,0.24199159084129312,0.13003640431481228,0.13093616588833096,0.25102315845712037,0.28248972328948696,0.3097899668489777,0.6659750589189597
0.18123712540768436,0.3111718534767889,0.17287862682936003,0.17482051560319967,0.3391779536729411,0.3729771609205439,0.4370831499126622,0.7267876628238649
0.17448900182306604,0.2871089504075799,0.1579517868796236,0.16097896423618777,0.30845610104360904,0.33208664298570356,0.39008406622774405,0.7245106054241975
0.1621139213618029,0.28295079775455095,0.1310498195859063,0.13054083688261492,0.24672479464213395,0.2849450197969508,0.3142670424723173,0.6793071009760415
0.14004521112884935,0.2680203458656145,0.10363984797817222,0.08658268193299137,0.17726243518746906,0.21143159977133438,0.2376656788542413,0.6033401112596763
0.18615856778390943,0.3364756296623589,0.16083053949868348,0.17997105941924413,0.3132926890554163,0.35581974287930274,0.40937142269508253,0.7429634274656336
0.19313227415985007,0.3493456989127856,0.18456442349881474,0.1885784257006176,0.3652434470026707,0.3971151411070099,0.45161273390411044,0.7521851012671943
0.19255359996567464,0.33444823929915424,0.17378534277436594,0.18749624564937065,0.3586426114906292,0.37243346261740956,0.43179340160257346,0.7319135354594769
0.16835267082346433,0.3015870265703724,0.14786717585450276,0.1443160940706603,0.2784525066795824,0.2972707109304077,0.3390315476209849,0.7404970049995838
0.1415245635005676,0.2901192124365247,0.11106715435138495,0.09147139133502608,0.20038633162461078,0.22383222299120395,0.25994955658497154,0.616977653398919
0.1803493544740084,0.32817792175603994,0.1727525267764544,0.1772835904086334,0.31396637880758255,0.35422548886557065,0.41054083012753817,0.7472314956373837
0.1910010538679507,0.33759505588637007,0.17497808878554444,0.1893443163805999,0.34427224646116,0.38762109744458606,0.4435964793793066,0.7386486354786856
0.17589962968059394,0.28814156387781803,0.1622251429346512,0.1712139693175429,0.3202089499119665,0.3661098744711818,0.4117833240639714,0.654553299658548
0.15353953670658443,0.2520203100788724,0.12558046181758215,0.11296987023352034,0.2575094382046428,0.28131234628254664,0.30686709007629587,0.6386941248578382
0.11889035274544088,0.21909098656487455,0.08589285903792368,0.06498781305365889,0.18811399000961168,0.20934441074504265,0.22575684690169884,0.6069955844043052
0.15872871491515506,0.28697727984392624,0.14283797792322153,0.13818963251821748,0.28825245626768636,0.31659228288945906,0.36273884059632094,0.6581652717674442
0.1804903210482702,0.3077539268820176,0.16168554790711032,0.15057166837065766,0.3298664200912512,0.3598409660075471,0.41874604975364965,0.7330354455686297
0.1780039210810235,0.2859482451284524,0.14945590783249546,0.15864824760979,0.32820848522499974,0.33951592622701054,0.3994198363961332,0.7098372134477697
0.14320324173940877,0.2751495177772879,0.12733610624552236,0.10848283521059934,0.24412673512678568,0.2733420049050614,0.29348007158116607,0.6742046084173302
0.14218186122799403,0.282386945413604,0.10834846403352111,0.10157439464813013,0.21955976652553053,0.24260681702702355,0.26632559352309826,0.6740439591495253
0.19829579514349183,0.33073679969823,0.1757408389999599,0.17941697272233828,0.3700136393796495,0.39573455644585914,0.44619722872294176,0.7742366673127581
0.18404501890486472,0.3294494221117378,0.1806480652744645,0.1725314129874442,0.35153036556431055,0.3842619841009309,0.4345621410695019,0.7322881071126596
0.18028990924101446,0.3055440517997149,0.166861082492863,0.15534480852603377,0.3168947716728519,0.355033357790918,0.39589995255233895,0.6404626834303688
0.15228380066586597,0.3015777720222847,0.1340750172972553,0.10596918255362905,0.24053438627833862,0.2558838036065261,0.2718496439894054,0.6346329769035081
0.15005848150797968,0.28339107540720576,0.12242119015285127,0.08330518962270402,0.22267237386975441,0.24034514902179185,0.27760987037711493,0.591854409697989
0.19539471990697205,0.3165289977885631,0.18629194756746295,0.17345800215230656,0.36773540811006167,0.3964539481758182,0.46525188656446653,0.748683904349247
0.19590967673819834,0.2996416187700117,0.17973223257229023,0.18018061238651814,0.34142702895756494,0.3772777109255038,0.43834582269568906,0.6942812747640769
0.18405966028907916,0.2819336120263811,0.16660635827940953,0.15630874929954275,0.320035373233679,0.3410255372001931,0.3864047593191783,0.6998113946049831
0.14317523698181353,0.24142929872463703,0.13631559442416846,0.09703665074780872,0.24026318554259085,0.24540811061691176,0.24645696962013386,0.5886734500639517
0.12269841622776467,0.20077232507500248,0.09927594992031047,0.05368274606541902,0.18300914412561237,0.18648845340755116,0.1866279952589469,0.517506246024917
0.18209137544103338,0.2533393432852832,0.1662402053616273,0.17543106183940138,0.3199288791770093,0.3327506378074032,0.38528740769457437,0.484829538446753
0.19091464561582394,0.20682308372088987,0.19473903327512998,0.18094962535772,0.33228197437025075,0.3544861390915048,0.3809587141166053,0.4731072675769159
0.1942878367917384,0.1959673102001944,0.180982976862899,0.17036115077171282,0.3072652478770926,0.32156586572924795,0.345671115583126,0.4495155207284153
0.1605354164691835,0.18556671776164352,0.1369086798102065,0.12519413059252352,0.20481584622821686,0.21919011320540793,0.20526171035324287,0.37533879668218195
0.13392808214214003,0.20452605475077693,0.09828796453483284,0.0770183452414831,0.13764607257277106,0.1404779502708361,0.11972228474478369,0.3626348597548313
0.19816759648283183,0.2686016633775961,0.19154561481916174,0.19690591315871575,0.2766451671047959,0.31060888378872487,0.33719421077384976,0.4790457093105015
0.20321665938725758,0.2608713635247981,0.19795725048421176,0.19897944229302286,0.29568024425683087,0.3245212012658324,0.3640009386005483,0.5046823744291817
0.192295016084017,0.27901134586050597,0.1860568713081529,0.17326365808420335,0.25585210449115753,0.2744271280112638,0.284726886446221,0.4545926632719222
0.1729330884235731,0.25992887028470896,0.14243071776931018,0.12051789555876746,0.20133320865310225,0.2178760060483036,0.21628779301424556,0.45759072431853653
0.15685508002224688,0.2513194728050538,0.13890856653337016,0.11399634774353815,0.19666004810309648,0.22626036149289175,0.219436165910477,0.5432629343872681
0.21333541217989072,0.27513770555614403,0.21242977681182018,0.18124631313142125,0.327243008215545,0.3668416568899219,0.38586156867102017,0.5769827441201093
0.20849376079685125,0.23219806652391492,0.1955867725713578,0.18681131067526685,0.29346191498723945,0.33362809900959306,0.3330406389778496,0.47589243313333196
0.18719793893338033,0.23649138934379424,0.17250055974475287,0.1667693048270788,0.2571933949834012,0.2719052955210934,0.28264486086489515,0.4083640701094299
0.14753141811054754,0.20959849587089147,0.12768181264871403,0.10330900206289866,0.17291748361127707,0.18600864813534929,0.1722179506079578,0.32104016379810446
0.17709682559619266,0.18161661530070664,0.15336146661948805,0.1428789876065411,0.2076894491813598,0.24607865273439566,0.27654918449542787,0.3730496764165317
0.19445194829516266,0.1745928234112065,0.19418386399850987,0.20008410747957145,0.2822507924435426,0.3140293419565535,0.3307844142377202,0.35667289750240744
0.17726281900457838,0.14598161091483264,0.17329295833010397,0.1765435775480796,0.2460144363460734,0.2928500288596354,0.28814700114966696,0.32858015094283766
0.1619603828197654,0.15747596982271195,0.14525476642419988,0.12927440731263062,0.19736708587669918,0.20221035191470915,0.2023700083360284,0.3619177180216566
0.15426630508867953,0.1633900485080878,0.12989764931198727,0.12524770372421473,0.17062859529761404,0.20533656576509252,0.21539849477313033,0.3218025595056776
0.20060157377891882,0.2111501065090037,0.19556347387588488,0.21203501523317558,0.31047260075040173,0.34846780698772006,0.37797418933465043,0.45626651408590596
0.17546753645457291,0.22898070458944284,0.17134834747090838,0.183709120188512,0.27756711300124215,0.3049619300771946,0.3180011311867979,0.47370957190702334
0.17373345010849242,0.20012683424580655,0.16506736197629043,0.15453152290289313,0.23302075365950362,0.27742155694098186,0.28594014940545676,0.44519141668538176
0.1370158378300657,0.17761190281849296,0.11875802425536001,0.10094493469866776,0.1678260298622121,0.1746458731496311,0.16144911816266566,0.3640802865807845
0.17027096262895375,0.1964920093456572,0.16680902181806745,0.1705305693612907,0.251582964488776,0.29935719653359294,0.3094465556766953,0.40613981895341267
0.19511643706993725,0.19683927376541233,0.19588352882004928,0.20332954845715043,0.31092981162758626,0.3561827207837589,0.3817250479744774,0.3833152093916348
0.19330360362499027,0.18634424251164677,0.18054988465996796,0.18808123184361564,0.2717342608232131,0.32121248050215645,0.3283090620722221,0.29677800227502954
0.16249026871683198,0.15445943244955906,0.1495577774099824,0.14025477171565445,0.1972592914168159,0.23601603716880035,0.23355182411426717,0.1883829913272569
0.1513915096915208,0.13035281220427783,0.1302052855141544,0.12529264212806315,0.17954051165619891,0.2135005962629659,0.1948010197113188,0.17279695337347195
0.19438277897190687,0.17783970889390036,0.1936406777649845,0.2076073082224672,0.3151971470879621,0.3749004331236461,0.3825124894212137,0.2761380790053174
0.18573233202013262,0.1570139970419265,0.18705953248910215,0.18929368936743074,0.2850540377569252,0.33699197697935895,0.33476091562940763,0.1741569963768256
0.16396425524623107,0.1295393210407024,0.16501391873879376,0.1683112887035681,0.2504946621338188,0.28245179873676407,0.27723011531111497,0.12481110974292582
0.13816347161846726,0.09870676387947183,0.10924821471372126,0.11398825012028618,0.16455895350646832,0.19464520788237544,0.17286688533793781,0.001327872782188752
0.1738865828374151,0.10523775547770023,0.15524888262126557,0.18450903690130657,0.235867173074155,0.2890588878323601,0.27952681167189364,0.08672378083644944
0.18840413534659856,0.1264007352639381,0.17674601569250534,0.17785823374004125,0.29174526498487396,0.3298088736514986,0.30461971503069424,0.12097292161320064
0.16962006007758718,0.13783549504731624,0.16478741945881994,0.1737483575158402,0.24641093062113267,0.2856321349186888,0.2731701769613085,0.09619987791928758
0.15267535518579808,0.1417354794154117,0.1487374860751455,0.12987099425707166,0.1990293621731976,0.2173356467096978,0.20514772823732588,0.18607204654091808
0.13688147320088834,0.13870466378262536,0.10708914233558836,0.09554182187844279,0.16504628227279464,0.17278182962030544,0.15208873827706781,0.1727403614677394
0.1823673960886218,0.20189974671768954,0.18322544156027953,0.18082662537955058,0.2613536807050237,0.29189876316434055,0.2899388598243678,0.35136791089854214
0.16541901606444692,0.15277907531719995,0.16572992589044627,0.1449358260475742,0.22608781101511044,0.25595993994584465,0.23010021003126224,0.306803470355424
0.15016596693589937,0.11957745241342559,0.131146727733822,0.1229040788194892,0.15656600290098896,0.20618035390725067,0.17450706766437818,0.17846153560803527
0.10918689307755133,0.0880002159679525,0.07911810139257508,0.04621331778089784,0.09923757555814251,0.10914869706610367,0.052575262368800654,0.16840607870974866
0.1569086089064805,0.14912217694966848,0.1428915913947738,0.12869194361568753,0.190125165324448,0.2171699823539755,0.19445820620097198,0.25915601156802853
0.17412257047710333,0.16883359424358474,0.14416693400410577,0.1396163539156538,0.2023748534200973,0.23078773115865647,0.2210968203369128,0.11676560721754459
0.15310641243531364,0.11068257167513793,0.14010764713907423,0.12197533220312246,0.16691294569111562,0.19582889136076637,0.1588250100872119,0.03182030304540687
0.11593247975308596,0.09946782894936723,0.09851373896264852,0.06322999029918422,0.10145523219809806,0.12984452939892843,0.08036307563545379,0.1201793697910657
0.1022083685246147,0.09093683448386125,0.07015132175106621,0.04612390440425811,0.07144113317927493,0.0758900334769059,0.015879443786871242,0.06979537250219188
0.16200021538758683,0.13444736416231343,0.14705901388072243,0.1532453971925604,0.2054769163709277,0.2582300970843044,0.23388740242850284,0.26139944817254834
0.1468713426386852,0.11922497476351983,0.13631132536066834,0.12232732107191932,0.18692249227358684,0.20424522020521318,0.19415645957580951,0.241825491315639
0.13137818683978747,0.10121230645632207,0.11749736671507187,0.10354576450532935,0.1593909177674925,0.1732171168243697,0.14524948809999816,0.22012691843422666
0.0897735640923141,0.05429712038802864,0.061414577802031106,0.02449554676896245,0.07476418160771668,0.07595913009557347,0.032516127520055296,0.1370997407268952
0.07715658002556092,0.010270131764405194,0.04264608109288592,0.009087245316011974,0.04552954907358686,0.032058650730895186,-0.014309472540392068,0.032578409886688364
0.14128893224960198,0.11277395899650751,0.1279900660799786,0.11810881604814114,0.17639680950219663,0.21199931119358809,0.1792156145128101,0.049097235548073395
0.1207416396256138,0.07698442171941124,0.11148633548530155,0.10669829963000543,0.16651679173369568,0.17543904262754095,0.14807416669275153,0.14651243813140913
0.10301043979932978,0.10662910322432023,0.10704539444010894,0.0719150547406257,0.12817253325306546,0.13210573556589286,0.10399662745844111,0.1547964123613987
0.07330029829957793,0.06708009422836289,0.04309698600246516,0.01601837274854072,0.04366053191066592,0.04405892908788758,-0.005963859130364915,0.09200752833035236
0.03090672933907395,0.03873702976810822,0.003255976530916395,-0.03274225908511388,-0.0014476583067627273,-0.00831991792747619,-0.09104170404416732,-0.001218086285433309
0.09636753586872888,0.10742497950056018,0.08520087080379835,0.06225468560955174,0.08965684732943237,0.1036299703134087,0.08837683567175834,0.13312206907607935
0.11394078335942448,0.13508847933485602,0.10239605136346115,0.09059395343372073,0.1317286764099788,0.14775725127922396,0.1168275782455389,0.15880929002032962
0.10982519922951872,0.12246455568371578,0.08492041014503696,0.06642646646884182,0.12394895648098656,0.1173924542628164,0.07883735152979353,0.10585737700473505
0.07129757477564658,0.06648964530295118,0.045646653052641754,0.022847776423017337,0.04912771653317442,0.045541743511528204,-0.005321273946918129,0.06335910089767095
0.03803141811765719,0.0392982953545257,0.0037512447886118017,-0.04133456795613691,-0.008740574327201,-0.018246346309335235,-0.09697521058548257,0.06849583745958503
0.05033409364029032,0.054348459975819184,0.009083983023825029,-0.015370441135121433,0.002540046491320523,-0.004260540463794871,-0.04260713684372846,0.11807843050502197
0.10385365721741258,0.09909662633633093,0.0831629953751215,0.0703959438012626,0.12343487440601877,0.11683374913248912,0.09605704280014836,0.17598824231528798
0.08934060968207946,0.06476384887050492,0.0727596792889306,0.049404058819331034,0.08895489246618181,0.10398719846468336,0.043803175496943,0.18226524757160478
0.07441955240734756,0.06682470781205167,0.04375685725992274,0.03044827092597971,0.0729515531791615,0.06711651182339885,0.0337856231165362,0.1918814204145747
0.030779946063118103,0.043345880763170544,-0.001979861678961553,-0.0472707311648598,0.005240024657739543,-0.011303749149566236,-0.08989419583725583,0.15077055702084274
0.00569212929137955,-0.018101842777451537,-0.04525805405948816,-0.08013360992966259,-0.039396496975345315,-0.05002166111148273,-0.13787382052843405,0.044926959909042705
0.09058518363378527,0.07010666166416374,0.07431641311818536,0.05196144371179799,0.10750505233313956,0.10360611879218791,0.060429964788640086,0.16080597332709665
0.08458928275496637,0.07450211184453172,0.06634703958922103,0.038661261957704335,0.09460290288411793,0.07474669237390716,0.029882264116987634,0.15896945787837824
0.07583113413482985,0.08025554248789551,0.054886797028293924,0.031079134371426675,0.07747701433253626,0.06975252722089857,0.0013077526663289596,0.1560973365455348
0.043099657868532454,0.043181702708909364,-0.0011543728780299273,-0.031235465498317093,0.0029925327915186,-0.01871306474516546,-0.07428997157202184,0.10489330122177164
0.03033185654792476,0.02433338051574175,-0.006200920367916404,-0.05322632432192783,-0.029929595028032885,-0.026122485093093832,-0.09777197046657472,0.16251994966970826
0.11253631030727482,0.13317701280452043,0.1043784611776842,0.08513767788152472,0.1232979632782745,0.12732481786679817,0.1116242885497686,0.21533931615707838
0.10531341840179992,0.1052552931825127,0.08197134433002806,0.07704755494925034,0.10895579779839125,0.1147592254054606,0.07040537980482284,0.2041161496886431
0.09610912328820304,0.11532945389192373,0.07765697304251898,0.05610760716229139,0.09089005567363292,0.10069563029152812,0.050962592022721326,0.2189002946557713
0.06245628324064512,0.06709876327473747,0.03190829332013125,0.0033223899205395424,0.03303034753179914,0.017141113728126905,-0.05267338891618381,0.09175073176692466
0.045276041026254404,0.04934283977834519,0.006808673846034202,-0.03242344228017357,-0.013767098635686403,-0.023991023263090445,-0.09970507491031869,0.1353879618822371
0.12266170419290118,0.10923428739108001,0.10774744015995996,0.10254634517199997,0.13090100384829031,0.15729408631949388,0.12014504763241693,0.2971715547899844
0.13008955593840754,0.1072480475771587,0.11185052310010984,0.10976363931194394,0.140695030961357,0.16138838712596643,0.11745886277641374,0.23255286997222369
0.12849033261896814,0.08893081357191301,0.10780573290030018,0.09481441798021338,0.1093499560220014,0.14231867635780826,0.08921649913409073,0.15932599867740888
0.08624693819234693,0.036561037258563314,0.05797708149974179,0.04590091975549837,0.04844559925803705,0.054484591145806324,0.0010301460241302768,0.10494578571903758
0.06754602811431198,-0.011671346610994495,0.036764460336439986,0.006880915990988723,-0.01780871436405313,0.008272275763617498,-0.061849022350814783,0.04851759686866561
0.11977238131771842,0.06339616164233043,0.09932076363783851,0.09838689620099554,0.08929038004485651,0.11817720296725566,0.08361498160053865,0.17145009168594844
0.15165965805074816,0.111148084834925,0.12970881755508656,0.15262682675256017,0.1479623570078562,0.17965892700727903,0.14825097098983023,0.23170118189262306
0.14494099254950726,0.1285534457023393,0.1396256590881313,0.13706291586382605,0.13534647854728277,0.15154910524669402,0.1318089636759659,0.263392567944265
0.12326318248188492,0.08370239377737895,0.102309611402949,0.09589231801921949,0.09349038629709264,0.09933630445769745,0.04015793334629965,0.20244756838734007
0.08199953892105014,0.07568271542852617,0.07022638099238136,0.040246958866875446,0.031201122167334967,0.049237019382692926,-0.02662882877189625,0.16062684208596234
0.08279528414633566,0.06667287757041652,0.04554728349297975,0.03604118437045141,0.012772135338915459,0.00761798077220284,-0.04795566835201034,0.12613007238169216
0.15419648518831883,0.1137017538260927,0.14934635981455047,0.154116960013591,0.13927385360985992,0.1590345135177622,0.1428752674392858,0.16601768359545796
0.1551333855030829,0.13528549839140375,0.14736809824296304,0.1437242599560358,0.1257948196247497,0.15682717727460446,0.11211444552471302,0.18805024379731414
0.1385431980848358,0.11025049708905629,0.12668185181195152,0.12106507485259124,0.11216431620013162,0.13475710275106856,0.08312157076046475,0.15541273649309334
0.11408039345547856,0.0676095956060942,0.0864963939319499,0.07128458199943115,0.038570768131535406,0.060633772684738726,-0.010818006099928293,0.05991965731841843
0.11226492710551823,0.08258844701021935,0.09518923043068606,0.07723981102280922,0.03748954209763379,0.042089334252081806,0.003509826342417713,0.09288935802152251
0.17394033208078732,0.1467646384977653,0.16975849328386744,0.17357522697996652,0.1718213880327027,0.19024607727443937,0.16300989035592056,0.22408773334535487
0.16510965215196455,0.13708080373596507,0.16682887089713477,0.17011327270824542,0.13466268268375212,0.16645690648450912,0.13652437676854579,0.14261928700618687
0.1511675553671973,0.10279113287325073,0.1349144927259695,0.14837028236875477,0.09587316219341695,0.1351366348762394,0.08925031867304839,0.03237247457610147
0.10936596645123348,0.05766467120719848,0.09447602012734724,0.08530640265881193,0.05126938964664732,0.054312261988085114,-2.3116210193065145E-4,0.006986829713404946
0.0974030096886499,0.047568775718370294,0.06838879776643948,0.04662288538528088,0.015869634175029925,0.005046422336947007,-0.04899247184253667,-0.0010236862196097568
0.16802913027435512,0.1603299508441365,0.1659949332822972,0.17413280736676712,0.1410103115400783,0.17583428262512574,0.16873447277486942,0.11888804943587711
0.1670808947300073,0.1433649405992861,0.18777654812447608,0.19382239891844041,0.14707347920218522,0.1850447928955186,0.15830814494308643,0.1356275539030385
0.17334544626643833,0.13481383670659156,0.17689327885254208,0.18395784606120988,0.16416588828206682,0.18950834400791805,0.14777045168797853,0.159902118570697
0.15287963266195378,0.13848578135173112,0.13814284616090478,0.13823888301352488,0.0928528782945299,0.11963725663478782,0.07183935765088556,0.23273879648301668
0.12132911371849191,0.15301211670230308,0.11954382462398007,0.08295268262071978,0.05204239084918175,0.07066639366228947,-0.0013055020161375774,0.17875308696631537
0.14233661706569847,0.15678863122684072,0.14409079599648217,0.1484221910113414,0.10606905444939474,0.12866896472511408,0.08051626430310362,0.22551888000253142
0.18976736606818628,0.1800329217171519,0.19255177510314636,0.20729667371518606,0.17161323641707388,0.21437713564683517,0.19206987952105142,0.14070275644581115
0.19279896273599456,0.1455117085575182,0.18726473493432882,0.19910497161007412,0.16048682893307967,0.1873708546728863,0.18047987677235147,0.14562238632153945
0.16377527161872785,0.1367804013043216,0.1687529398267114,0.15338313771463644,0.11353611591666961,0.13852860873632392,0.11751488695242021,0.16536161432287388
0.13095886558467384,0.0989654506367067,0.1244809844135053,0.0916586895445643,0.060110416862237205,0.06953372022469395,0.026408574506894017,0.14719992608755128
0.12012381483476825,0.07521280005953321,0.1088296629516533,0.09585299133695639,0.05786018582970243,0.08107125911101214,0.028358878756523792,0.06639363291389122
0.18607779462013158,0.13594243262858474,0.19796975689493684,0.19102666093779225,0.17934893281286607,0.20397284343570868,0.19202482104514934,0.10469441568842108
0.1845346120028553,0.12934804306195982,0.1848424077343957,0.1870858842856039,0.17078363723336623,0.19742177357488333,0.1662459130042358,0.10795647106691046
0.15996725637464146,0.13453656943011708,0.16941679702093582,0.17997998802527732,0.14138953585606903,0.15790844957914596,0.12464621300874074,0.11716548098559418
0.12932773756729554,0.11062472116781114,0.12894110684628457,0.11646477317106933,0.0738165060188544,0.0959781144478441,0.038592723453243896,0.06404210204399705
0.12782088198362573,0.07319551135945934,0.10589988047698308,0.11509128565386073,0.043970362748688305,0.0741028033534415,0.0056339140819626765,0.012950777120452173
0.1887188337831975,0.14586603997910175,0.2140122421616522,0.21590264342675758,0.17385780491958877,0.22484908574071397,0.21218476208321424,0.0990100993381707
0.19450599518530376,0.11590020394890614,0.20089434606390782,0.20999919815603166,0.18105973762697597,0.19973381611897673,0.1905783814412802,0.07304535752142587
0.18744987802062552,0.12006726069500079,0.183867521089002,0.19722752282438574,0.11860719823612952,0.1747202734608304,0.13719307596568733,0.03302963207282696
0.14929910644190691,0.09960129484596153,0.1314537777736268,0.1345907227541827,0.09246186609382263,0.10434973000118668,0.04601536116970502,-0.02685135473757794
0.13544710234392598,0.06929898666877336,0.12139186312881624,0.12142343310427764,0.04922948259423052,0.06269380341835765,0.02469557066186437,-0.006594232555743831
0.20329375017191414,0.11385505012752159,0.215347928277159,0.22879497314461356,0.19817875793279446,0.2371727554496384,0.23366603917813508,0.09352866723936043
0.20594332703838814,0.1503538530497041,0.2166862044140623,0.22498825096415065,0.19879153200142038,0.2331149863940707,0.21987915837928945,0.09518003256245769
0.20681437990713705,0.1800302806686386,0.2027481533063294,0.22236590913442825,0.1647579126043305,0.20801386393337218,0.193358175276447,0.1358009686385061
0.16735169067291455,0.09708884107905362,0.1636837844298657,0.173589418921232,0.09023188174749269,0.12026372889569759,0.11278196511769586,0.044660135949846844
0.12098314785436928,0.08644584353081913,0.12091293814529691,0.11269769912442004,0.11047833200101859,0.16541890199291132,0.13743417231649663,-0.04255173924910661
0.19315172307910658,0.13244353921733257,0.19654636701882905,0.21446548538204846,0.2230763860859695,0.2991101533237536,0.29013955872554736,0.08624324342701431
0.19882718132447608,0.12216277846836966,0.19950482798961733,0.22288267481245982,0.20640520580382163,0.2725283596245903,0.2600733931022346,0.09417985489285823
0.19883334204595512,0.12569962890726077,0.19563930191088857,0.21544372760234481,0.16238068074686193,0.21554177021325466,0.21537505003205287,0.07642671121502442
0.15351027920090146,0.09800701022949122,0.1505308729127382,0.1772647920198086,0.06483360713516687,0.11354385988743165,0.10956626933928527,0.09727349312546936
0.1203103313057049,0.06017342038106268,0.11623957441841665,0.11241480301087457,0.006801829481822758,0.045394883874559186,0.04035739559431123,0.13621338198639393
0.20335646160566095,0.16459731332015162,0.19705439451038642,0.21306951010181113,0.16377823651221457,0.22734272421381518,0.2514685916471303,0.3295601527184159
0.19731261511041326,0.1892558103342682,0.17269765365298134,0.20981074739277536,0.17034552920984755,0.2205558689195995,0.25362228036381756,0.3973718903385317
0.1871372243697469,0.16557227811251757,0.16609096552802158,0.18402308347352433,0.13877775395962633,0.1932831591002605,0.2086857831185315,0.2851350785625264
0.1407196800217289,0.13404819942470703,0.12445924275647366,0.12327966086134935,0.04277997796477201,0.0949618089431851,0.08440633695082773,0.10439162575925474
0.17178078711075076,0.13502368598209233,0.16876437575250902,0.16750367013600215,0.10502795090977998,0.17072149773464435,0.1880817115280602,0.18947436857659833
0.2023025924484468,0.19761944534419676,0.17998595384971014,0.2114738828353776,0.15769085099440924,0.2311830783239051,0.2519339475897021,0.2511382520619412
0.17607911637655715,0.1650463958975374,0.1664162620744226,0.1999681929089822,0.13774624517784526,0.1923978457136295,0.21303293216571012,0.18639095366132408
0.14881314480801366,0.14163333919936347,0.1372689968381191,0.15235044962848487,0.10634642718506082,0.14166747150469872,0.13886403773428133,0.15055733368890672
0.15820537294010778,0.16259711344728267,0.1581431350276666,0.16672853124678633,0.1064999323909736,0.14605113104565887,0.16776973610685242,0.1752712719116774
0.19888857012452782,0.1738427737030412,0.2021828244577527,0.2290789723160267,0.19547013812066577,0.26165364345098563,0.30149802228265554,0.28429660215270425
0.1830104277830772,0.18860661182728278,0.19141874754422164,0.21220709403283264,0.1667549933327506,0.2264273404528472,0.2591006670869052,0.2882713920141217
0.1676390644375712,0.13077132184658907,0.16039503859336507,0.17474871734342756,0.13392284715958258,0.15749757777344423,0.1869817323294275,0.17675932297455374
0.13907696042048315,0.08694174432903226,0.12707631021222068,0.14477841303370925,0.0885963573624923,0.13120445257373092,0.1406638831771781,0.08275416853784079
0.20115065243801702,0.15787902336307735,0.2010412666562184,0.23646129995821638,0.2053460201235578,0.2666870720471074,0.327438446221048,0.291788101148086
0.1949894118146156,0.16360630425049574,0.20261306927405304,0.2288484042101025,0.19913123234389163,0.2663666979442267,0.32128044275154477,0.26225546478285366
0.18449947071456332,0.12983219958596126,0.19319840759377882,0.2030364653337029,0.16600720496117802,0.23929190258576927,0.2746316749547651,0.23040258503882863
0.15880853957972924,0.12290726761350818,0.15594720321040495,0.17116336379247793,0.12299502469503903,0.1690793336049478,0.20097527479676397,0.19463224273058033
0.21597874944118883,0.1681402427248026,0.2238243094407919,0.2598571997090803,0.2615516674036443,0.3139563363162384,0.37580793344182717,0.3129277945847859
0.21394511981859948,0.20081866082833727,0.22369187561426263,0.25322951370058466,0.2558311333410513,0.32398017140827506,0.36079061828310305,0.3001873033556025
0.1969268378118571,0.1893404997794339,0.2099012884011259,0.2338602110222146,0.23087648632033805,0.2867014977903547,0.31449523982350974,0.3502438556149131
0.17341970583928012,0.1333421635936916,0.16848538981994485,0.18568472447501894,0.14388309756269063,0.188330843119364,0.20150494149024464,0.1953199975108078
0.19152790758509403,0.1443108763147118,0.2023741117336988,0.21816752951024282,0.21317879327547473,0.2583018156696606,0.2765363204045431,0.25113754695863777
0.222084035906387,0.1982800420275044,0.23307717271099376,0.2695098817211898,0.2819957386382609,0.3545904834989242,0.4130798504524345,0.30720216104516185
0.21029343417742374,0.16246989397338787,0.22427925350833866,0.25511262252713984,0.2802864394870515,0.34257765195922574,0.37999510072345544,0.33240976736395444
0.1985108960567264,0.1618677946468584,0.20896920252754037,0.22256072228944082,0.21344132303499677,0.2839619677521682,0.30526934286048696,0.2724115337954935
0.15891654188663476,0.1413249572467891,0.16896603947289593,0.17613882434251377,0.14680743420554576,0.20943901952346922,0.22084662575101052,0.20914337664016763
0.18067047457843682,0.15773149240392417,0.18641863892618046,0.2032421174919225,0.2128819759766243,0.2625716807332683,0.2880268576554516,0.28943632699780786
0.21700718238820488,0.19576857668487258,0.23005010257019526,0.25977103268615953,0.3127760982826733,0.3746565184444668,0.43624487689931524,0.4101670572767183
0.1985396557197139,0.20710617688310184,0.2173698316451901,0.24534121161882866,0.32199648684617344,0.35371070122194387,0.4157794310656984,0.40050843797942914
0.1843600930976389,0.16720563348311324,0.199136344073867,0.19805490933528191,0.26209465832964507,0.29628450793148225,0.3366278605874141,0.3836546898395699
0.15896212695660647,0.1581927184686996,0.15370348995076888,0.15799004312076204,0.1739831679506501,0.2076218923739939,0.26395016006000355,0.3699357540135395
0.12483036371227643,0.10976096478170091,0.12341403221329643,0.10907508475796235,0.12624000432376575,0.15133980592737195,0.16634717236877133,0.33189345082089083
0.18885380662239032,0.18873435692233723,0.19723934879449923,0.21217909273000973,0.27929592110994766,0.3381015462583019,0.3864166859565178,0.43974687332615525
0.19451156776677558,0.17506692676517183,0.20059522887365888,0.2137309651515525,0.30275513742235083,0.34072808721771186,0.40234366262679355,0.3922806647533855
0.17722597375965032,0.14352656434624358,0.1826767355995721,0.18290653293389902,0.27098973874163806,0.3215129382632369,0.34174226868649116,0.33036284837090985
0.1395247451985213,0.10857515392016667,0.14356635170586912,0.13316094451169372,0.19904543737058464,0.2348949764621418,0.25389464146168916,0.296966715321467
0.114829294494253,0.09448079236482942,0.08963932899267649,0.08686997018436773,0.11996138992950013,0.1630493147606315,0.18152501796675793,0.26714088744415987
0.12236129742293558,0.14645790065616998,0.11457005369268809,0.10420699306827423,0.15182271212364107,0.18053500491384464,0.21845061573859362,0.36215311007412687
0.16350024649682746,0.1756154635999453,0.16520173955625572,0.16503561193618055,0.2740259147739258,0.33029384375656545,0.3849864999599517,0.525800764406188
0.15738849012026443,0.1569756774561996,0.14810959464585657,0.15755601741283404,0.2550956233264283,0.2933828056429568,0.35181530728262855,0.46843467742085004
0.13352845652103684,0.13245619039805656,0.11547584462028922,0.11808402944330133,0.20541297726798183,0.23505014775678462,0.26587247609113224,0.42673322844424916
0.097459080326256,0.10138750044728503,0.07471334111344353,0.06481096785458862,0.1064059237638626,0.14365114159572318,0.14643497171821188,0.2863168606627834
0.06787353428325474,0.08817464373930627,0.032034576726525515,0.017462671128294915,0.04113342245210159,0.07445599451071093,0.062466504346368024,0.2495412682469496
0.13466016474641906,0.14687141982131535,0.11041736044476293,0.10675132482434416,0.1629185946142145,0.20394168451726252,0.22695219391904511,0.345773575093881
0.11135847007441055,0.12481397238905356,0.09425152187924378,0.0925589625978954,0.15316253108219535,0.17340467674657878,0.22210746820314423,0.28861194330484763
0.10829672160878934,0.10766085427808791,0.07190876347606465,0.08406492343988761,0.11185418179743159,0.16163355060941864,0.19031341604398533,0.21642049579491274
0.07104080188875149,0.05507357706833777,0.027478268981327506,0.018560026718894604,0.04306710267237804,0.050846826700285425,0.05975355919396204,0.15489441521951322
0.06698230010518319,0.08433828064599115,0.01619817466758952,0.01097411705958036,0.03803988686866089,0.05715283642266411,0.07763223144934976,0.232201120232753
0.1154314055664474,0.12265164694273924,0.08987984024828329,0.10004283670123922,0.14776288386616762,0.20041683471815058,0.22221614480964985,0.33263334574204817
0.09706488028108906,0.13489910800396898,0.07714735648140952,0.06621264791949223,0.14196124278998315,0.15503439501568464,0.1875336022128803,0.3669282004014317
0.07820898799361166,0.10308249588488015,0.05402423949361142,0.0419678516866291,0.09757294892932122,0.11912305494195467,0.14584069252436666,0.3276330203232024
0.05166735522405794,0.08580862907403271,0.01190026406352529,-0.003870253213514238,0.0478318602134595,0.054870818790314316,0.06983220915116997,0.28454627951874734
0.13019165945330646,0.1651260497588158,0.09971355582093432,0.10725887836201761,0.18281071924215708,0.22552353666203556,0.2762530820876981,0.4043402132767786
0.11187385452344678,0.15794865149428428,0.09899549217053245,0.10253359828630264,0.1930676844113349,0.2153236050144392,0.26679382601731105,0.4078933316327068
0.11816984409718295,0.14913432567671386,0.09041388210134389,0.08494584145002998,0.15701467648856154,0.19788896371034745,0.24577198428077324,0.4286119930121453
0.08416914597274369,0.10948938472712524,0.05387375990984074,0.04310389036805862,0.09667542931625449,0.12006627241098487,0.133385423374891,0.32027528593536075
0.12131589538582722,0.1360355823922121,0.10049128025376952,0.08291086743750375,0.14638025208268832,0.17639786323214707,0.2127722406459961,0.33035688546693937
0.14379915590831988,0.19044794668078302,0.12314285419789736,0.13775954317436429,0.24934653496161344,0.27106114708358325,0.3478484465700068,0.4681287261909728
0.14966884319550294,0.19473072324921387,0.1388433471038547,0.1434086015161572,0.24936975618777643,0.26805629479724796,0.32226235015805316,0.5371914026710662
0.12628916234600354,0.1986734972569854,0.11307801822099278,0.11025831025212235,0.183169969274138,0.2019646489063568,0.2573743240887342,0.4759196418634389
0.10010983117247191,0.16141102711327784,0.08705146838777535,0.05536221112431344,0.12349934272869965,0.15062054690062315,0.17418704597158413,0.3982204834400093
0.15330914340726845,0.22305430995344566,0.1486315236646869,0.15621591169175295,0.2468157708280426,0.2817880388103004,0.34642334482759995,0.5182863450094737
0.1687478833192152,0.20345730118876115,0.16693896913768141,0.17878213844679094,0.279392388822436,0.3008708926104292,0.38202988667873317,0.5845011999555461
0.1615997009746555,0.2138252482373919,0.16299091788564496,0.15949252581898246,0.2486872449864355,0.28364335168540933,0.3322045920132628,0.48322376602264533
0.1460471201393746,0.17753547451144086,0.13361295304453719,0.1292966815129423,0.19877832475930737,0.21199029025487115,0.2575205523135916,0.45032198504328014
0.11782951011343051,0.16675711085137235,0.0972562922946312,0.09387001778818811,0.13685579559652666,0.1585095832610266,0.17449603088928514,0.4527993489941167
0.17502174899428175,0.23077005672067374,0.1810035664272398,0.18091526529089397,0.26074338030697336,0.3067586056477446,0.3618965531215164,0.6273454484893796
0.17436214400434089,0.2415871392955075,0.17217931635928957,0.1771853215098783,0.28947272553836845,0.32283100682192944,0.3864471454808368,0.5745440824571764
0.17300480391786535,0.23125864436603527,0.16133146541635235,0.1594411291050991,0.2673610772028706,0.2945854524606197,0.33692120397698233,0.5329502585826417
0.13987264336500796,0.1472589414078786,0.12477814618039584,0.1171349956282547,0.2034759422257008,0.2217859427626503,0.26902989630970087,0.5290626063842252
0.15471418651137622,0.19092128783644924,0.15534254224960894,0.16094760440507527,0.2510699022644401,0.2931960529644553,0.34017465323301177,0.5450001261633189
0.18860173153950457,0.2329204534506416,0.19112661497671557,0.19682493903123943,0.3064887707275668,0.3395042153342328,0.41612423042926866,0.5825022510886785
0.18448277825298262,0.2044108483944361,0.1819242357745829,0.18043058251852723,0.30412296549573037,0.3167880283299753,0.3658474024763254,0.559215418408423
0.16637775193316703,0.1870872705446761,0.15223430500659924,0.14740941226827,0.23016977188666937,0.2671515557344646,0.3045196508346829,0.4532945843071305
0.15173918627848973,0.17191796256898978,0.1238652557179109,0.11130502948797844,0.17517363690805365,0.19390350805897189,0.2172539218066415,0.477671216110794
0.1976995302980878,0.23676613943453476,0.19655123010774453,0.20764732715914602,0.3067763353420174,0.3651035995308376,0.43360162903477006,0.6595204444194462
0.19704229762005254,0.26318452442357254,0.19731903323416808,0.20783955809952953,0.3289501978462639,0.373383241134143,0.42541800319023987,0.6646609708238728
0.18762565126951178,0.21909889276836308,0.18305459620836312,0.19265334199211806,0.2954476428640621,0.31970399878970046,0.38779504572204093,0.5282802743196361
0.16114950508394849,0.18049489331276586,0.1366975246546303,0.15243018798314523,0.21611157367727332,0.24320208056435477,0.29300328221857674,0.5361278590675292
0.1414674034715168,0.1821353271420711,0.12394771230846303,0.11929190007162455,0.1755375347049134,0.21209038461516477,0.2360822225028087,0.4863074333722868
0.18714052686312513,0.2445337523609113,0.18626864676543045,0.2044104249128152,0.3263972519761215,0.377165637541958,0.4552889726859796,0.5849821900979846
0.1996659242806334,0.22392203459675475,0.19260876435146418,0.20863364729778394,0.3312487792606504,0.3873500748622009,0.4610738931159657,0.6273513833730773
0.19160698845981092,0.2232739592858388,0.18205382910195483,0.20243849428015256,0.33338810838834615,0.35468834212776795,0.4255808297523436,0.6800325512965479
0.151488704881673,0.19492692482353546,0.15051161617052555,0.15551146863809906,0.24605276233193085,0.2745101056586936,0.3283221195107416,0.5840676100041758
0.13676537406932943,0.16103289927095094,0.11035853120309362,0.11863005536487076,0.17126902541375336,0.20806689639260284,0.2221775648565909,0.509651308886146
0.1705439958734942,0.21789739807159533,0.1483511916234222,0.17151468565990713,0.2651768966823974,0.3013214039619825,0.35745817752125886,0.6161772303169535
0.17333131737633217,0.22140905728305704,0.17787544983617032,0.18897256919222233,0.33488849200401966,0.3695688382873507,0.42071233703431254,0.6445267514587082
0.16981854269977287,0.20733130996607851,0.15246267148784481,0.17530047396801002,0.3090255661399405,0.33968630471838096,0.4009380576367256,0.595686251226845
0.14617705813989817,0.19074475220125453,0.13369565128410116,0.13461481683680676,0.2326610037799825,0.2647396914715802,0.3042539103322096,0.609890414533214
0.12046788404340072,0.1702473484726416,0.0988199087002568,0.08608053097289116,0.1869912342054579,0.200056420699253,0.22632261381012742,0.5087345078209194
0.15551585508038765,0.1805614193496263,0.14333001089176145,0.1664422747195287,0.27576890391295666,0.2986977039258818,0.36066345217108997,0.6294088666063622
0.16240550075566937,0.20148722549082193,0.14455210081804443,0.15308777241964713,0.2848148375381124,0.33459300267501657,0.3816258500337422,0.6338848614317577
0.15577957300651507,0.19119609162427392,0.13387024042639178,0.14678409340042972,0.2696057788822505,0.2753124512015988,0.3604064364552053,0.5345644439186246
0.13444068621608235,0.17924211294346484,0.10790927120894853,0.09723701165797899,0.20203805313511655,0.22699525920962516,0.25328686415944845,0.5483785420359932
0.12619233266290575,0.16117866600723857,0.1012073283825673,0.10503371235445425,0.19719424974493668,0.23730740443689413,0.2708409449205165,0.5171170993454711
0.16038453815870454,0.17198802909825095,0.1401537490059272,0.16191209279775884,0.3044538580558016,0.3317615836660126,0.39381448393671165,0.5424968379515684
0.15350614632732817,0.17494454474294713,0.12217938356471242,0.14447103697197838,0.28672083594954584,0.3136958311270788,0.3584826524800641,0.5512923159808595
0.13948462774833129,0.14638821562148246,0.11071395027029754,0.11371100815541271,0.24119896067731036,0.2652600582130379,0.3246202886893473,0.5353022805265517
0.1132294321353862,0.13680707340508214,0.08178911997402623,0.06759107013829531,0.1676597205497794,0.19014952571417748,0.21177299214024278,0.4587718964695753
0.13645648729445528,0.14479178131178716,0.11092911801862278,0.12455427981931985,0.23510759729231015,0.25177861614378516,0.2966907134219677,0.5068745973668575
0.16831895302994573,0.19008977450378206,0.14920651105336305,0.1617388122664143,0.30464315419353466,0.33564566521576755,0.39142350897336786,0.5691991363994549
0.15370556270790364,0.18007372012859477,0.14063721440364266,0.15086645142468186,0.28740727152021806,0.3135581270217419,0.3740783567282176,0.4701976233821539
0.1476121949738938,0.15727385652607193,0.11700416143324256,0.11499485103188425,0.22650505746041608,0.23432782541086722,0.280031925408303,0.4433842000544913
0.1109681984175098,0.14380220930277837,0.08263707863955713,0.07368591538283588,0.15981020866487444,0.16253784761425163,0.1819232751052772,0.4669236701085469
0.14777868405936978,0.18567435751522618,0.13552447223845826,0.12368723706270168,0.24258302721842157,0.2572701389630144,0.30856909269882143,0.5356117798201697
0.174226745451659,0.1838009615996984,0.15786975752177568,0.16845064514035474,0.30048750440565203,0.33309372919905145,0.3863686863552498,0.5881933045379043
0.155505025053731,0.18800498720571096,0.14718925470138572,0.15714011560781654,0.28386564476307247,0.3071858727529823,0.37677979168913434,0.5684260984514016
0.14485381012583148,0.16112811336650576,0.12946793539372586,0.12013758713535197,0.22432427739562333,0.2528843034150111,0.29020449318013536,0.5408544649763081
0.11057975856244,0.15396735135494216,0.08665633595297799,0.08409332688572742,0.15794762291115771,0.16642248042858515,0.1935365752811039,0.46929476222719363
0.11979395928812811,0.1394188003635405,0.09394672977199359,0.08863060940663653,0.16903627097078128,0.18851782718332913,0.2254986491696821,0.4899535257752311
0.15953075097777736,0.15897291292194984,0.14151395729980637,0.15292662368505688,0.28599520198904926,0.3272689595367217,0.371927152732667,0.5273886656138572
0.14093681074211584,0.16670867557638985,0.13027469158596594,0.12135131358220416,0.2753951025388994,0.27554521828803863,0.31840701624557677,0.4666960352537617
0.12784258742323096,0.1593320114718349,0.10541245098905049,0.08809970412792735,0.21817616914716836,0.2283203709470744,0.24915122904304787,0.498718903225772
0.09254266999001393,0.1260057617063184,0.0760450893795823,0.045465072356194944,0.15163192246537535,0.1550366090060486,0.18045610606061352,0.38849181850396997
0.1147287840347975,0.1801796982315181,0.07927046476477921,0.07030895231312481,0.17735582746526288,0.19297377588494352,0.22621424529299888,0.5141333801608629
0.13375282084437895,0.18461448547357573,0.1176495387737659,0.10686028381918555,0.2641632737531322,0.2766139451719323,0.3148474513087612,0.5615657365179011
0.14002393080381634,0.19074842009931453,0.11048057036689343,0.10435231702165972,0.24697389592861024,0.2461186877635329,0.30972309264623343,0.5337087101270952
