-0.059797445595750086,-0.1342713719804814,-0.061825691455665105,-0.05913619942247361,0.010987352328275616,-0.045083389717852904,-0.05869865695047862,0.33074718471882286
-0.10731947906821486,-0.12947066757433232,-0.10144925042127964,-0.12351460755231007,-0.045820578796785576,-0.07326740070982843,-0.09868445866797446,0.2081922746882041
-0.15346387345370593,-0.1384743951156793,-0.159139653120229,-0.1695176625788696,-0.060886773561334255,-0.10872535984044591,-0.1463629429465317,0.33383837944392
-0.06085711021261936,-0.13364132991570343,-0.04242553658720496,-0.036601999775125425,-0.012446854182650688,-0.05050483721874092,-0.09541264984963285,0.3519360930525939
-0.04172257423997012,-0.15458848408288015,-0.02657836615444197,-0.028707173506626098,0.023818989285508428,-0.044742713018865704,-0.07679419622223037,0.1896396825288021
-0.06000290732841261,-0.13946253062592548,-0.043295689245898224,-0.05704640554286377,0.004165554371541377,-0.04279795932353079,-0.06658657046136526,0.2734167987940994
-0.11238162341570944,-0.12654681950827823,-0.1116574084736153,-0.12110916600507893,-0.011025440517410078,-0.07700287447762069,-0.13356968948906184,0.25153473561877077
-0.13089905373064475,-0.11493448543983742,-0.12039769322137486,-0.12769189553846455,-0.0458508299344156,-0.08404291573069182,-0.14983648087486792,0.20778923460920898
-0.012718995775465572,-0.11957425905721576,-0.006432319941300136,-0.012964574189161401,-9.246470067860941E-5,-0.021687393173970726,-0.06696378634316748,0.22691458823042723
-0.04698100312080223,-0.11242018465990553,-0.022199279714846427,-0.02508095227836086,0.027728227045190585,-0.007732855307741007,-0.058773081162440254,0.12055472292471668
-0.06260447580951255,-0.1473386607682445,-0.04050430619271589,-0.04903168072108513,0.011803878721904585,-0.043074704874811784,-0.07043497153450654,0.20657023845861266
-0.09809080621538176,-0.09580982912508028,-0.09811767969220599,-0.10344857643690543,-0.03401719958636019,-0.07763443863741919,-0.12288279598173713,0.29077761746712155
-0.012119117449324538,-0.11322007966481829,0.010821612924898544,0.002854234750144306,0.0329169256865022,0.011735019293089306,-0.05363693165106293,0.2676508765399101
-0.016368011624534242,-0.12755401658291565,0.0048870731188941086,-0.005702878543053142,0.044988367562845535,0.016694849448882262,-0.03632989378511553,0.33646639048038945
-0.04366795206675208,-0.09449219869800307,-0.03120808589496136,-0.026637646062984847,0.01194046941031339,-0.01579790667681265,-0.03993339185796209,0.19445224801573313
-0.0922957852056357,-0.09821480991686149,-0.08524844168653778,-0.07439159831108993,0.002229458053242416,-0.030082071297822106,-0.07698883396020532,0.2168641031571796
-0.017281583196869656,-0.11020518839063492,0.025679475500323106,0.023068062812753563,0.030448193131271714,0.013420393375344578,-0.021222756349725317,0.20073617508759092
0.017272382869938718,-0.10106428126798113,0.035714351508753656,0.04736049568784565,0.09155392578151648,0.05431166590345435,0.03450652424384837,0.20808901235610963
0.024988314211102567,-0.1058210954628388,0.01957905281401579,0.0265732234709348,0.05824895779215213,0.05618291880865411,0.05254431885536266,0.21112463913724755
-0.03218536284526991,-0.13515412515777123,-0.030247003231387137,-0.03577994188650081,0.028252848205220504,0.037426597149585156,0.01733271145559968,0.18619675588702467
-1.336032423553873E-4,-0.10553533202495677,0.013645432033612855,0.03265227410023318,0.04484833837078059,0.061989132658467595,0.048054339392333535,0.2407751758246474
0.04622833491026502,-0.11821291347946186,0.08223036772939592,0.08329282537096885,0.09575524846554087,0.1287382421159359,0.10694914618025556,0.224323709772615
0.03493933849404055,-0.14509285865450758,0.05753302833857607,0.06859200773765124,0.10132575183768393,0.12551339758442706,0.10872850150681324,0.06310100403955873
0.00913222549302172,-0.1121459336990617,0.009758942438029038,0.03152829919136105,0.07843684781570912,0.08538175697858372,0.087565074629622,0.2176339695677581
-0.030671423158436566,-0.11592746121691556,-0.023194310421932898,0.0030739174054739294,0.036185758593975804,0.07289463576318514,0.02947033954147272,0.16448766214942687
0.07446097547913855,-0.15743260218087696,0.10281755983123039,0.13507278500963252,0.11245863850717952,0.14651183213187183,0.13929312543189026,0.11601916197599718
0.08082854732575147,-0.13131536967482235,0.1000174739617541,0.11586254983195755,0.14079369801190722,0.1689701162960268,0.16365174548497535,0.06046322149261747
0.05268799855524493,-0.15376411633966883,0.056009984815993036,0.09372375072249829,0.1060474082633461,0.12720892383651156,0.14223777400593524,0.09650455010193876
0.006446867615603761,-0.13165789303340567,0.02152460956504397,0.0666182261923914,0.05719916143110442,0.10189389331214538,0.09381867154755207,0.2330836447032145
-0.006066251210427146,-0.13389849621736957,-9.580535969636258E-6,0.044123085686271615,0.05467125488797551,0.08521327068535446,0.07211715501463119,0.1696113581067908
0.09343944085274916,-0.13921169352185878,0.11366832743314693,0.13612725731669617,0.12926813333743478,0.16995138293683237,0.1707059722155073,0.15227749376592878
0.07595099333226298,-0.15230613274654317,0.08695931414994203,0.13677093338064644,0.1369956905419553,0.1567289585310485,0.1922254685071889,0.0899895365014725
0.045775279361131196,-0.12826858776706823,0.06634757855975991,0.09661051890819966,0.1100997415833357,0.13605772607455524,0.15714304391394654,0.07678070869255187
0.0024658382003751493,-0.0927424288820039,0.021827064109358432,0.03956945823988723,0.07315520606243782,0.08582893305935223,0.10395555501610843,0.1573363917788681
0.015888365784101847,-0.12310948851592327,0.02217157545201988,0.06270364538181561,0.0639113164464528,0.07144261946992547,0.10358546859173219,0.0761497707146339
0.07785704984535999,-0.12068464657790759,0.10427104249133558,0.14405980471420363,0.1378778351652646,0.16343817553924653,0.17555058855689382,0.06037116200344919
0.04537573984160262,-0.11076049870389154,0.07804869344408341,0.10425897222648384,0.12094890301096192,0.1426949333647924,0.1776244225840618,0.14083368214923406
0.023529193839291015,-0.10115035822596428,0.038715362534594934,0.08476849258630338,0.10251968018757758,0.12674744918870287,0.1296476998342972,0.21914992344181305
-0.03135346412210737,-0.11350012725610605,-0.0241796112790978,0.01980710161334942,0.06655056391921817,0.07044843541858246,0.06851768585570649,0.3005277243990828
-0.041735788735452126,-0.12698463839512372,-0.028178449821314847,0.00853780928759792,0.033582649988810935,0.06829011545631124,0.06259613963232191,0.24893463668312177
0.07095291123871719,-0.11342984035657987,0.10642481615363775,0.139790539412829,0.13350504719402553,0.15342601214231227,0.17168018466757637,0.3233443610199315
0.05165135955759812,-0.14331399993123048,0.09880709714323513,0.1176641011312166,0.12699347513332943,0.14893965267110726,0.17509207953240383,0.20665861635556712
0.03137517428310191,-0.13022419972830684,0.05342565171238449,0.0929299451023383,0.11328329111963735,0.11874042110047195,0.14974624448628743,0.2691799522318219
-0.011119306340200736,-0.13166942514776997,-0.0018945703120348436,0.03173178412829289,0.04825495076835384,0.07334631489318678,0.09483412721010923,0.150811772803828
-0.08002584581565987,-0.15524056600177447,-0.05998044930792647,-0.024326078385740024,0.0018377993037763602,0.01812564932180437,0.025960174294636863,-0.007678213078984978
0.028072348702758924,-0.17090083537408138,0.04820466090405438,0.09466479957151655,0.07768019004022178,0.07895271929697131,0.09309400319551071,-0.04729784184567884
0.04187034198312712,-0.1443065221384879,0.06883173775929256,0.12232631830046703,0.10187720475337672,0.11388423639417869,0.1387234824042853,0.05939357002944111
0.02573486587953595,-0.14342210999059657,0.05541839279385951,0.09914685563116607,0.10744592387605664,0.11492012786709424,0.12446821493069755,0.23310575577165432
-0.019792294251275117,-0.11656528261858697,0.005430978208948976,0.040547563811648306,0.06183032860764528,0.07083760344504349,0.05912117730297489,0.10563477488549085
-0.07145679751943035,-0.12488041495931754,-0.029639632805388994,-0.03576888946219297,0.018799468971618983,0.028009026370189368,0.033609970193798376,0.09668856030084759
-0.05709295202551212,-0.15458402157658,-0.03421683549764709,-0.002482557927589138,0.023112437389143408,0.02147124479494751,0.02810734715682256,-0.07833747284412239
0.032532332696751994,-0.12178918662052658,0.07886541876186369,0.08204822960879163,0.098480500301903,0.10635965056379934,0.08728155635544257,0.1173851680596077
0.01737836956096158,-0.14277973548037187,0.05941693201362388,0.07309576937200372,0.05872084188948299,0.06955827937991696,0.07308684997949973,-0.02264183496240742
-0.04500975841367356,-0.15693767085618074,-0.005478949189419635,0.028933384283500167,0.04891212930069273,0.05086362718584296,0.047953590629926976,0.1250837795568438
-0.07362723319940263,-0.1134355933710285,-0.0591152569165217,-0.04831089152234172,-0.01289604324459173,0.013186143132963138,-0.028622211691984114,0.17592049919503716
-0.12265145809802734,-0.127024058982986,-0.09003589595207569,-0.08886504974543956,-0.024952336555890686,-0.02409567204845598,-0.021695407857817556,0.14665806607538362
0.033820928694964364,-0.08946678216574323,0.07018230357340932,0.08203245047784184,0.07032878827229493,0.06352001514652049,0.08841062870929,0.1611014574279504
0.029918406475511247,-0.15273369177271554,0.06395453907896101,0.09283534521500361,0.08844598439494467,0.09402901320098592,0.09629577276159532,0.04395831480160072
-0.01565101836805676,-0.1420965763621303,0.020758297508179032,0.03692044724315556,0.05662642629066974,0.07334929434518087,0.07539502644112699,0.0045540966346447505
-0.05309617636090066,-0.1460781834846888,-0.041580220938765663,-0.017794180760494768,0.0295170543846172,0.020549286415672562,0.01881936842863614,0.0611207640127146
-0.11149515423218051,-0.15231572615753197,-0.10757179852191476,-0.10025426456423601,-0.02346695809871498,-0.038134880026438556,-0.033604982871668736,0.002639114341645503
-0.020060350205884776,-0.15483038898409857,0.011635842336462875,0.021084050468229434,0.028235903291325255,0.03759858704538625,0.02192742199917683,0.08633661821201587
0.01029443976239474,-0.1327849305500964,0.06630422089093271,0.07225426704333984,0.061897157439290924,0.1015225251595857,0.07556781984617572,0.09638534783707
0.009914725085281672,-0.13359952419384633,0.012659812992036449,0.03784860414956649,0.03941280721035792,0.06198621312205465,0.0908362286188794,0.12084467632805668
-0.061169754754390133,-0.09487277909778441,-0.026243882462500333,-0.02821324057071928,0.02409136091282814,0.0326534315365932,0.0326157563206614,0.14550195677635852
-0.12008323865836806,-0.1312002945996514,-0.09723785939027334,-0.11824755413107278,-0.020362259748083363,-0.019265942155338903,-0.03306020318617673,0.12369280004834073
-0.08244340409313178,-0.1348551166432143,-0.05806797407010678,-0.029579704337668843,-0.010045760938524235,0.013525127526330937,-0.0018604523383798212,0.17236496963209938
-0.002512201370882709,-0.09531480791264993,0.0344346754025809,0.058950908886110334,0.04170686331950083,0.06978496414326682,0.0674442375509044,0.23395381270821652
-0.008414072158462557,-0.10444541663003021,0.02239473784547815,0.05214381541967863,0.017320923734654926,0.05393780626436106,0.0435756300847207,0.13269383310460883
-0.04726954291025981,-0.12505913479284392,-0.040473134645411565,-0.028515723811975716,-0.007734164049260725,0.029997550369334453,0.017882123489959354,0.04420404439550048
-0.11418623845491407,-0.13426560997517012,-0.0929383551500851,-0.09274497949530053,-0.034154364327301324,0.0036165168783899044,-0.029161066582272282,0.01973236251118655
-0.007960612035188023,-0.08115633356278928,0.03307245112814489,0.05980567878179569,0.014028393215640056,0.03612486951339837,0.02338224618278327,-0.007517701013318111
0.008121867681158162,-0.08605342682185153,0.04384081755599568,0.07356532897218179,0.0615311595027685,0.06893010628712881,0.061296293641602086,0.01378228756396449
-0.012275257351554342,-0.0608234711286002,0.018998996668104146,0.05441997097335676,0.03089593024496225,0.08209674359212227,0.056989059224755695,0.019351715535626722
-0.061530573750265466,-0.06197059637048272,-0.03158521706001008,0.0012533378138861004,-0.0140677783245114,0.024729204716858983,0.005719077701934415,-0.014261272296120994
-0.08341768408833515,-0.08802734453920517,-0.04256598197779623,-0.017509968191484114,-0.05194796794677478,-0.010498476930642873,-0.03709140511869015,-0.0819975652909678
0.03371267523635576,-0.11131518751834886,0.09427221076732269,0.12242567513727987,0.04968010888107417,0.10775017771495647,0.08365888287844016,7.548245066999765E-4
0.02528872266905674,-0.09222423002264722,0.06789371101635766,0.11553725430471506,0.04870261919175294,0.12076444002152513,0.08046434405096019,0.013977876180647547
0.0049207983326204465,-0.10537816968393438,0.04049764842210247,0.08499663964702357,0.03815722786539389,0.11435174515511182,0.08067926890624504,-0.00263012485751575
-0.05263509751522386,-0.1086609545178505,-0.0278718579506325,0.024463797119690073,-0.008550063485234462,0.04529369186182049,0.04636460632944185,0.07366575550853674
0.014449474421216569,-0.06880276975458409,0.05079156390907057,0.13371308774431334,0.028105165741573332,0.07051574508042999,0.1007648053028597,0.07677757935884519
0.04157709108101642,-0.07003313875265954,0.10535876051519984,0.1609806596093839,0.08630015505351231,0.1560428315512876,0.13442236417275802,0.08997987915756882
0.04381011308698929,-0.08013544351181813,0.08822718491291394,0.17134951745834145,0.07818415687341569,0.13123123360313454,0.14329717109056303,0.15810051720870114
-0.005834983856110974,-0.07277468833136491,0.02523580087473292,0.09530735685824383,0.04454210540868614,0.11314580303105773,0.10794374498585166,0.05987227158450877
-0.007004863109885891,-0.04204902229126104,0.03992408459945205,0.09610055610349172,0.01547639351168584,0.08870828314967948,0.09385610783312927,0.04932144719938264
0.08752454509858008,-0.061783500483358476,0.14464017898210765,0.2204045664881063,0.11035915203365187,0.15897805618974453,0.19204074043620128,0.22865194772705139
0.09021535670711976,-0.05834802341716983,0.13911472199483207,0.19623748251607495,0.12542383503602492,0.1819880734950356,0.19344215384134922,0.08889375808439082
0.052181255983852044,-0.06562162749774865,0.10743604748952199,0.18345358168949458,0.07477690083889714,0.14914661303268056,0.17871513046701723,0.08537649185211592
0.020461702562979554,-0.06232787414653711,0.057426792475419514,0.11760429696254489,0.050765221429279944,0.11614334249560614,0.14157490433030642,0.10586750829384577
0.08076800757441269,-0.05394524267992497,0.14841730606784778,0.20956014587479707,0.0840061322724869,0.15099292292647307,0.1665841268388503,0.029450069954533923
0.12214638801472939,-0.06852533789642344,0.19123026023620943,0.2781194994280832,0.1393599777828014,0.22672431076540114,0.24521132217980796,-0.025412741038074116
0.11410327163349829,-0.055261047518090155,0.1582496628385805,0.26442179017583445,0.17503315475221654,0.205186520046374,0.266024784822196,-0.01027656562596005
0.08041568299612267,-0.05908945121709769,0.13292240445575693,0.21259183985121607,0.08664001911027729,0.1698581798171502,0.20425185275861718,0.013079579701672275
0.03986800470916133,-0.05242911561793175,0.0864679519734624,0.17157928339821216,0.062250160475955524,0.1327319205202986,0.181927773316122,-0.039000747655820865
0.11725030411381257,-0.04798883625424046,0.20249634023020285,0.2684374814724952,0.13514654708460666,0.2163384489822434,0.270353215995674,0.035113912643317695
0.14046927285145291,-0.05372545709561263,0.20287674942661507,0.2949544544091315,0.1699657003952512,0.2616498660868606,0.29557941756086425,0.1083080601639161
0.12488464339904315,-0.054015355039543154,0.1873176728659016,0.2653581744562667,0.1396707514553746,0.2289096029360087,0.278196010530813,0.10242572426477997
0.06782358309996621,-0.05492379045602525,0.14543406863518163,0.21837079945026702,0.09131041384034715,0.20734466812746427,0.2271798356630965,0.0995109225424076
0.034708747861928756,-0.008862887072697485,0.09642902685330812,0.16168182717239132,0.055824217605054745,0.15203631216928815,0.18296510185393053,0.16311250539725888
0.12425721827509723,-0.04913231080775112,0.1961396128379735,0.2815725254081411,0.13674994237637025,0.21378161047656835,0.276809444965873,0.10323521079815497
0.11957473035655447,-0.06080875959243826,0.19365219314651305,0.2812703185914031,0.16834728380793923,0.25715717215930867,0.2804465128613153,0.09405398178370254
0.11593687580324168,-0.06909907780828488,0.17493331946654053,0.25852346323387987,0.14947186864934972,0.23534793559073444,0.2591068768952731,0.04678674733071165
0.06869000834332996,-0.08403787953214997,0.15042333640057443,0.19772316943253038,0.11823564200719498,0.18372291847000344,0.23274671244889703,0.07672106210539975
0.02689893961775422,-0.05029641220647305,0.12471248976442352,0.18539666400469337,0.08699355091417618,0.14468915712303065,0.1923316574443237,0.02593208314863601
0.14445797535095367,-0.05245312753398958,0.23793043416270124,0.3074162441487296,0.19397131837606754,0.26513172679199565,0.30875386462257254,0.057167883281910976
0.1311052515158149,-0.05283292669165107,0.2111584782561784,0.2739248268468566,0.15632668351536727,0.22963090319479487,0.27719351900844696,0.020525759080080846
0.10308144659444342,-0.04065028944938217,0.18079716143708513,0.23501560163680746,0.12997540586709186,0.2188762700965954,0.26283887043609067,-0.10962849989542743
0.06069286381069594,-0.044377100366193925,0.11273458300992066,0.17291431920222902,0.10201398588788263,0.16213164632181062,0.22482447041232673,-0.1333519346109925
0.061028269742851915,-0.06740936373476786,0.12333208536802391,0.19979023676865654,0.09334687504336205,0.18269233401061882,0.20414892421902095,-0.0024607448081396797
0.15397502695577786,-0.024584842176559787,0.20989293348452456,0.2908737560352192,0.18232881749899,0.25673750655863026,0.2847369282422131,0.03392437042384124
0.12512278399553303,-0.058049563113891166,0.2089435931239339,0.2713638712705414,0.18546713567006393,0.2567775995446457,0.3003777866991104,0.1612806049135572
0.08730317428277362,-0.04138387601376977,0.16678147005365487,0.22365739862422393,0.14522216532722096,0.19444612501105435,0.25535139294876164,0.11001496252749611
0.036921124654337244,-0.02830012684343856,0.11160475960774606,0.1504643843229781,0.1133160874007665,0.15126909436241287,0.19330863204189958,0.1170038469868515
0.05850089833785183,-0.011397622838357265,0.1232004819075027,0.1814716485634129,0.08882878221043433,0.15163623582447291,0.1987215606608236,0.1318609352379132
0.13034840107552362,-0.045665603812004324,0.2056255905240083,0.2607623443427575,0.1949848298825049,0.24859729407878042,0.28536227888475363,0.08295794296488149
0.11488672696177721,-0.030215089666370435,0.19040018523138488,0.2370652471458965,0.18296157068237937,0.24548913335088954,0.2635336531324965,0.052461556702195565
0.06305713003383119,-0.042038529636254825,0.12531422488242763,0.1835426552629839,0.13196574784403797,0.17309571521081188,0.20298829528463888,0.07114161972402609
0.023047750173463798,-0.04649208623389508,0.07952460640720865,0.1320081385959716,0.08390683319558648,0.1346271537422306,0.1363034216661187,0.05307253828353425
0.07975850755197061,-0.0551272025050417,0.12902462515046126,0.19851528637548108,0.11107289222750658,0.1496866934076515,0.15550333646568376,0.025931579237910427
0.1122940102363639,-0.034808256129614495,0.1877807207573317,0.23057013966557707,0.15141233595383682,0.2093176260206824,0.2411164761041659,0.00877518149761672
0.0901914710034606,-0.049859966122430294,0.16123330134785788,0.20556457152238147,0.12020443341628435,0.18729599308255873,0.2057311393451963,-0.028863661084405596
0.052805084813530835,-0.035531056345942905,0.11081033620346976,0.15617153711013765,0.09353064937908882,0.12985168612036707,0.16753711336626603,-0.05858277143044169
-0.008674918774034179,-0.041005678715902535,0.04174696928254956,0.07656742249192981,0.05501103065907828,0.08845107641397057,0.12013279313003937,0.03987710253478394
0.08913620636379163,-0.023058723567774216,0.14997400406312544,0.22039579319722202,0.1018593535857926,0.15702350514724184,0.16564217059604236,0.058520687219834146
0.1294643417762562,-0.03526858624494915,0.20055860053400712,0.26025392463327146,0.15688963525108168,0.21677936828649652,0.2224796308357907,0.06217341204576073
0.10530799650758968,-0.01638721566073038,0.18140913342487408,0.24058908660850636,0.12231267378614154,0.19722547020503683,0.20928231085336793,0.04164798720965211
0.050407462972642404,0.008694995481997226,0.1086657193790764,0.1719370849879394,0.08877150149368869,0.1327571424105335,0.15373814917949746,0.07976996267640155
0.011792029223876479,-0.011443607152736691,0.0435928907903692,0.11884124664653822,0.040056264072486185,0.08905033895545461,0.10023715675094946,0.04567535461281145
0.12212501161234839,-0.018338330724986918,0.16895366903790449,0.24239884194512698,0.10500153042187915,0.16800549613492993,0.1787497512284587,0.06789963221459609
0.12320782611095417,0.015509825463098339,0.19274984775727488,0.24992365414562753,0.14814864416235327,0.19848507293934942,0.21743076972952108,0.12953998327808539
0.08718251677557126,-0.013275230757714205,0.15786298239457158,0.21735678117952412,0.11479235401271191,0.17838653525791853,0.17621591329886607,0.16829465432040133
0.028380509176409403,0.011387975274807857,0.10444826907668688,0.14439505719898643,0.08519301216435118,0.1194979533430999,0.1374299145615743,0.18678159000907188
0.021454011475807805,-0.004266801262496215,0.07783812873688604,0.14154703328465446,0.054102732290724743,0.08941946788926089,0.10496423247243386,0.06754273426039364
0.12439208624007432,-0.012697940581378088,0.1745889355423653,0.25271839448996036,0.11494002507872067,0.1800633090240834,0.20223415056281158,0.08820221398402939
0.10583026710620785,0.015221553038136115,0.14763029558751536,0.22237782339746437,0.11407222284739194,0.1732510306237591,0.16788691926059826,0.07668348232694912
0.06553172203939299,-0.010859004403192702,0.11262069321969087,0.18911297563813542,0.10019438225044047,0.13511517743937435,0.13989891529709822,0.028669717883986215
-3.237850929942336E-4,-0.01645318538440946,0.05011385258017263,0.10518246948003125,0.0354558227594671,0.09944872704191823,0.08845578176910844,0.030749769792644772
0.1013229103238648,-0.03976965910765535,0.14904477589276008,0.21830177017500754,0.07875543321359499,0.1584333934935211,0.1410215284749369,0.16558865228438485
0.12849290455415258,-0.01965525719441098,0.194438200486344,0.2677878497992942,0.14055933773367563,0.20378496510841937,0.18776235666744412,0.1732058180076572
0.10636112863647773,-0.025890270945119073,0.1730171561360859,0.22639902606284096,0.12642197448075412,0.1691250181089724,0.19410538013471143,0.23792374194913157
0.0708197208493328,0.008098276057400763,0.10743619584047766,0.1755443424663649,0.08505135449050107,0.143611427967613,0.14733841319085733,0.2427894106367711
0.05531030307999985,-0.016340457983495156,0.09609979674351421,0.17038707475595674,0.07474542218102379,0.12152593283556282,0.12460621292666431,0.15611905451141675
0.1477773102204442,0.0018392573297482471,0.20359602640769234,0.2928262711564074,0.15563170479272256,0.2259797471507447,0.2024584782056567,0.06546444726230949
0.14438514558840837,0.014713429604656913,0.20067220667085384,0.2792801603557357,0.13535719071595553,0.21833171075170613,0.2171409181621252,0.12576483497782465
0.11987745766998267,0.0023922607344769565,0.1755584136159892,0.2338743476181501,0.09827929783410103,0.17698312444980827,0.1833906339417121,0.17316088513429237
0.05571807102173729,-0.0047376576510897665,0.11920857682565864,0.18252643564524956,0.08773725345386461,0.1396227219517416,0.16175474903130596,0.15583548632594968
0.1411860407476344,-0.019910369189279353,0.210795448788119,0.2762286820225114,0.10735517728652295,0.1909434534780215,0.2025500689994966,0.17233815497443478
0.14943082105088862,-0.03738643067698498,0.2371622432581091,0.3091565205899977,0.15467613269301397,0.23808362772210892,0.23911484683153492,0.1472375429289048
0.1507290448797291,-0.016588723930583023,0.2298956605032101,0.27598173483314137,0.14593088933638995,0.20162332122503387,0.20757481746128245,0.09661864400905094
0.11598213108822274,-0.04323400791487874,0.16603394548411507,0.23624704216490172,0.11953721693279859,0.1621660749878326,0.16244347104519738,0.1633315634090995
0.1286727194474258,-0.010073820357172112,0.19531491900315884,0.2693598792996571,0.12212568484160942,0.18983147706338,0.21523063639520382,0.07186607972766139
0.18776466253263457,-0.021912343927813882,0.25523078133030264,0.33207880165006615,0.19524522974051653,0.2616568538677748,0.2838013084817188,0.0838230208783798
0.17815784357758835,-0.02841289277622755,0.2697725648925352,0.32328897553303376,0.1735303581526905,0.2555465140295832,0.2692793817256747,0.11897968723649713
0.1513892596924854,-0.015558251149644783,0.23050119543724146,0.2738993538175422,0.15128352807807946,0.21379164996240205,0.23233588133235478,0.19643159056138684
0.1121829556792311,-0.01755519831193941,0.18112666805767713,0.2524119999284595,0.11150848310685656,0.19675423291353383,0.18311223968216359,0.12584376611700346
0.21430326890443593,-0.0036918166532889643,0.30916233063624976,0.38356461547758636,0.21142654041045586,0.2924167332275569,0.314029544512773,0.11666964539815752
0.21180122641049035,-0.028982204598425373,0.3151058123365573,0.3681915044319921,0.24278953761364253,0.30450759155495044,0.3102294922143739,0.17756760713069172
0.19903258704410634,0.024692993003512673,0.2887224817437279,0.37020160790880413,0.2189468530229664,0.27156574146166357,0.3170168580041359,0.23728057868870245
0.15452118967852618,0.025030416683529406,0.250838039037529,0.31119283949626836,0.17212403493460304,0.24964191213785397,0.27550952632744063,0.30690961160385294
0.15561574381117552,0.0069116494312489295,0.26282634582764086,0.3425772610539244,0.16843322325737733,0.2352073865195249,0.2475267810391888,0.35158808417122095
0.23455039411807194,-0.010507510652161147,0.35703302396917763,0.42310752513736644,0.24913299784630547,0.32525535338670974,0.35406391960740013,0.2526899410095315
0.21498356865886298,0.032351291623455805,0.3452699461125032,0.41936896339788116,0.23679273194462278,0.3019011535816383,0.33630772664972536,0.23827314774671216
0.19668136327079624,0.030516354283402405,0.29993845081172543,0.37842783743148994,0.20341690259878215,0.2832267285955575,0.3217247713012482,0.30891974977061804
0.16297906750911859,0.00838103709473727,0.2534436194741625,0.32618041997648445,0.16037068559732084,0.21405317422633013,0.2375539476267553,0.17671217850759152
0.16313616369869874,0.028357223070547354,0.2775618826339551,0.3366600448272878,0.15197474197336874,0.21566716906300354,0.2604853876789732,0.1595342797031282
0.23969508131590875,0.01581830887815813,0.3372790586813508,0.3912698986629643,0.2104954361640236,0.29383280043505705,0.32188743792559676,0.2585097929677753
0.21751505276456876,-5.658120507658959E-4,0.3151089703814689,0.3940565934284058,0.23169015584936214,0.2929316763580058,0.3254520115503357,0.2695394058129192
0.18387890627602593,0.01828444204230683,0.28900211812703724,0.35562098029166855,0.17592334426238918,0.25462545388246755,0.28887089546947264,0.16404619430857126
0.14629249833389027,0.03231316737728044,0.23225495193359383,0.28870500023618684,0.15125912411770856,0.20534655146787537,0.23982859604486442,0.20367473697477823
0.18839315266996215,0.0398506970346127,0.2963117474466331,0.37022300084665105,0.1771449603641713,0.2297626028218734,0.27878215446346744,0.26494298697263163
0.22964773377080286,0.029767002314736817,0.3097008696691297,0.4177591261234457,0.22161068495372183,0.31172944285317056,0.3148891482054515,0.151766546698783
0.20232186059615068,0.026296898794656215,0.3047900631788423,0.3750256381538716,0.2013149717424109,0.2698514078475594,0.30053371082879227,0.1232121247712785
0.15212654162301126,1.2695329304502881E-6,0.25725250814136424,0.3231645352249004,0.1663864030772853,0.21350787715290026,0.2386800181574334,0.14669055598614314
0.09641143396839878,0.052446224226588206,0.19714457944549044,0.2428813892662463,0.11368864589190235,0.17836285225523424,0.19014259343572165,0.16455758966914155
0.20141516297582238,0.021713825537855905,0.31169856861495177,0.3875454772903479,0.18649998490389172,0.2560415455900924,0.27872654248775924,0.20104637520921081
0.22579879016552437,0.0020433082698536544,0.3286654285491178,0.4123742746883805,0.20323442657427257,0.2801614137627579,0.26672817532795173,0.2211937000599803
0.1923982603051182,0.018801250941630814,0.2925282961277468,0.3755969632639845,0.22717997780203192,0.2692905864144501,0.28740811169217034,0.225547299369387
0.15503636235959886,0.019289003040824766,0.23294022954124036,0.2989388612379056,0.1576645210105897,0.19947689465923357,0.20511240714872736,0.19622621663186102
0.1127032699661476,0.03289991419114251,0.18085405826840326,0.26331086265606485,0.11905764573723335,0.15586569446053453,0.17496374221973984,0.2498766521244581
0.21197617991504217,0.028051265341707522,0.30878288164984735,0.3818888022537668,0.21023176924207523,0.2344762444404216,0.2824693368123475,0.08170845682724953
0.21276676933411012,0.01522846071231264,0.29126489849761833,0.375423943131749,0.2021991927924124,0.24898956982966572,0.27221258497961315,0.05385762453774314
0.178677260074827,0.015515164323945365,0.25883155955708387,0.3390286728301218,0.16855895549450636,0.23256931443617956,0.22535634393016005,-0.022098637167377366
0.1325757292708575,0.01573832265244594,0.19671521324320534,0.2743432499019245,0.1151502664323909,0.18342710658614866,0.17863809018152096,0.025044833555528643
0.14451094979510395,0.036436099055491424,0.22041355394681938,0.3077860590349984,0.12331119412117549,0.18802565117859002,0.1680302137514001,0.04506312313799595
0.2267868728875893,0.043862360307358315,0.3111487513501959,0.37687700622453635,0.1944917809727654,0.25362859013784095,0.25369071753774874,-0.02736109271588365
0.1964086713730696,0.049482765409924995,0.2721923413316917,0.3507393416533241,0.19357104298975042,0.23178287835582698,0.25179880120072473,0.12210171235344042
0.14854580330996106,0.031213419985599986,0.21287680117506746,0.2895491158360195,0.13817326893026272,0.20716085708770818,0.18497426711720175,0.15273945586232107
0.073495833033203,0.023180568438134593,0.15328451693464823,0.22930961727451835,0.09490214216651954,0.13092663175251262,0.14293191365643576,0.223706721423048
0.18908920025851803,0.01347816626752644,0.2664879795569848,0.3665137542561744,0.15998640636630995,0.2216114049031918,0.23004483835263814,0.2294719886294438
0.2053420780726087,0.026531611020741447,0.30745750558536644,0.3846375625675663,0.17880052506178568,0.2516552994574122,0.23962931315517538,0.17557893325404686
0.17751344812045217,0.07527549544040361,0.2892081745782372,0.3456548629414372,0.18552639369811896,0.2335746895197287,0.2273607832947034,0.2005493216995963
0.13243437175048406,0.03491155882623814,0.21261596603501737,0.28186826983056107,0.12450639578001997,0.19206187955307202,0.1686368269413872,0.11858029813360152
0.12194123158795478,0.018225501105476223,0.20172587078223822,0.2843181421729927,0.12198420103811546,0.18646964446074407,0.1513100436671618,0.17108705015949294
0.22198880709753427,0.04426885822137467,0.32262072253127516,0.39470501923069296,0.1859701638160291,0.257043698626739,0.24566198408236303,0.23133202385812923
0.19541184599589384,0.05014997461568927,0.29255740624118587,0.36555487684562643,0.17140819338368976,0.2336205484948492,0.24446630073662434,0.17985780005472943
0.16453052650976138,0.034783556002218774,0.24049173950565994,0.3105959370932294,0.16207866194480036,0.20456175340436633,0.18434626065466253,0.23950915827479477
0.10474972109883134,0.02060958019444123,0.20031401887725614,0.26720305518222387,0.09735416025555532,0.16068180846321176,0.16043069435859192,0.09056883786581128
0.21516030294804678,0.013402911375490044,0.3081523640009634,0.40705410053608415,0.19070356079624556,0.25188812208675593,0.26027024618309125,0.07336832396334379
0.20801047255671137,0.02448767824409616,0.2922446569029356,0.3775140421731856,0.18826730005183578,0.259107641815296,0.24648113674285257,0.02775667900252578
0.16744312913271373,0.020199248528563654,0.2678393554547171,0.3516110968431407,0.1543928224267161,0.22033083922090216,0.23432344312265974,0.0815089151149245
0.13360639961954954,0.059549228420360596,0.1962563017741945,0.27501055702424865,0.12017714283838489,0.18696928212007966,0.16773239980087204,0.019476784668865328
0.21667536276494334,0.06472750719285149,0.34044934161828416,0.402940096988571,0.19698150756797414,0.25816578210858493,0.25395623400625256,0.16802623337675143
0.22313268080902732,0.04374113064101363,0.3330127035144814,0.43179970123877914,0.2143279731353868,0.27735892123854355,0.27432666705294995,0.2507809005352706
0.20957942072827399,0.0325842976685156,0.3040469433428583,0.40354925530590385,0.19562960122420847,0.2690964373387348,0.27583245343135204,0.2015723889363426
0.1760596342983325,0.0536641474047357,0.24752638665325116,0.3443029024930643,0.15494890346717355,0.22098883839519015,0.23475028413030785,0.17632144242529105
0.20381638266657223,0.05053960435185527,0.3083646718371955,0.39928281168557384,0.15459822544224178,0.24198881196476194,0.2654603608889533,0.06419388382152846
0.2728286728947573,0.044674784030099376,0.4079198387632833,0.46826774891204515,0.24392792034216287,0.32167105130192664,0.34550715216190325,0.052815959338513095
0.2521021737357894,0.03154241924866708,0.3683804411532165,0.450505394442276,0.24717966448531786,0.3160380546911027,0.3407542375532902,0.0619710724248249
0.2009025396252372,0.031449205823845174,0.323437552929651,0.38537562398301545,0.1892597016770391,0.2635533259891427,0.29903363124454874,0.07446660293599577
0.16967252114431566,0.037511512304948195,0.2788217212049847,0.35762566336837126,0.1739374779677831,0.22722288947302452,0.24268611167675339,0.06933634876513602
0.2901409038790872,0.03434467279722978,0.395664266022883,0.501494267122905,0.26868705726698605,0.35764451582283213,0.3664617404526487,0.09638646211252241
0.29379311625243165,0.03999433580474948,0.4033216289600788,0.48593012318756473,0.26158606428246484,0.36084749865435434,0.37917564246016,0.1586887751677045
0.24090860810303427,0.031562482607333,0.360886692909155,0.44288349730220794,0.2252294963001195,0.3327358048433199,0.34437043394083044,0.11288844923621581
0.1872880060095995,0.04399242360659958,0.3035192440835726,0.381366723872825,0.19989429091039124,0.26607402919270673,0.32058477123571344,0.04500267331664263
0.22048257702955326,0.044295069454446286,0.3239168039930135,0.40156232892411675,0.1826082238116806,0.26751583986054306,0.31667594623716183,0.03223329573308046
0.2717787422642544,0.04810378272892753,0.40713744430540005,0.49094516092775464,0.23977571650467513,0.3387671175877835,0.3791737554369698,0.05173643315272363
0.2583521828649264,0.04319083468688527,0.38656700664567334,0.4731825343635686,0.24128199870904823,0.33324531054186707,0.3894275173107487,0.052914887438272835
0.221430466767482,0.040941939610369446,0.331698480845182,0.4204926849153974,0.23267660854503558,0.30174962322589316,0.3413982680975405,0.04745735961969121
0.18886452377138058,0.031614250313512476,0.2940552907912199,0.3456912388706744,0.179919040741639,0.24391824601807344,0.2767582518672946,0.13967019211673454
0.2758687678905623,0.07133466026671093,0.39840660617003104,0.49238185924192407,0.25718567888959665,0.3420179859015289,0.38633075660096317,0.18472871026234902
0.2846289215380422,0.05359897459220477,0.38674292456014897,0.4800439895292754,0.2760771883611464,0.3614402035555347,0.3881683202100222,0.1294547316215287
0.2604866349649229,0.05219690360353421,0.3611694272622598,0.4422043463640634,0.24824512818511787,0.3311177114923905,0.3720352871104167,0.15354159425745867
0.2069991337649887,0.05138499522325902,0.318518280191114,0.3857109565740628,0.20756337424011395,0.27312618178312115,0.31011382541757604,0.10134154220624195
0.21214201152998294,0.06822552601026301,0.31644863637004506,0.3957591175840797,0.1849561528696253,0.25431822226375983,0.3152406587766887,0.053870270895853944
0.29336980493275644,0.06680652145214651,0.41722273841952107,0.49419178992793,0.27648763698558204,0.36064746100941053,0.40647980639421005,0.17154892625212964
0.284908494548765,0.04687719590813051,0.4125934584453657,0.4956601310341476,0.29260680727841787,0.3618433359073642,0.3801950058727988,0.03330723717304941
0.2461053480338251,0.0618771512135233,0.36115935148084555,0.43993257157176363,0.23301848783021176,0.31946914488926065,0.33532352837184953,0.08951900271101591
0.1956432746476919,0.036453494340421465,0.31392305137180065,0.37712945295377326,0.19789928632174236,0.2704023906959964,0.31163636371248027,0.07379794171023969
0.2382475454464797,0.04521872038213272,0.34623656068050396,0.44470353806395585,0.2006554627345468,0.2875353340787335,0.3106051397726206,-0.012106683892757873
0.2847452689562673,0.034831841684210774,0.40558978526056044,0.4816499592723931,0.2747566741949684,0.3577274070602334,0.4009966831662502,0.10219451566552078
0.2642118645384258,0.05547017562335368,0.367982813304338,0.45539370372190224,0.2588989276827716,0.34362750043857315,0.36606684935707234,0.14219025976430882
0.2209983005313532,0.03229399970089963,0.3315586387924712,0.4222260215626166,0.21856536067104662,0.2762241520499321,0.3104896964498924,0.07456255927638954
0.17576198638923346,0.04508789960056836,0.28444493968885326,0.34808442465791284,0.17583973360960045,0.22754354502732604,0.21744864762562974,0.06450174372914892
0.26486084667843923,0.055955200713619715,0.40084130788705913,0.4634544059451285,0.25627369102558034,0.3086496735419906,0.31239018859442763,0.15669741627805986
0.2775813505942697,0.07535683496014502,0.39174201723630486,0.45098776360630105,0.2520041095026204,0.3195156561423083,0.34013343625804315,0.07585250775341462
0.24978895577052537,0.07738675493967875,0.3675833758169294,0.42765779173067703,0.23551445945251234,0.2840763152691214,0.29822321192415685,0.07826347863037808
0.18820411585519453,0.041958396958486945,0.29721535934489285,0.3690340057506518,0.17499681998291883,0.23520387960525305,0.245626745948637,0.01464980866182477
0.18699822195942656,0.03948097594026802,0.31190839963094086,0.3942292840142581,0.1643913968141556,0.2506520608009686,0.23418582904608923,-0.01455263050070946
0.2951412604665621,0.033540349134840323,0.4156512001156361,0.49162079216703075,0.2593450656345687,0.3204813995953314,0.34864099927457654,0.026886292648369097
0.26606816027931834,0.031122052791888767,0.39147500032812865,0.4650141889238305,0.24016337620660422,0.3104674798031859,0.30579596989579244,0.010090951654382212
0.22853401652598862,0.009675221985563852,0.34334119054355444,0.4036504111724269,0.206416381427914,0.25804683583357146,0.2843856956485324,0.016315607465823022
0.1575017573451638,0.027176214471543843,0.27541281982526067,0.3323214365965667,0.164461865973196,0.20034754710839112,0.20765640114169243,0.012661203965507233
0.25691029678447297,0.016331960298876857,0.37890276144740104,0.467245974588092,0.23071300069477407,0.2833052654077108,0.29915425931716816,0.0317889354196208
0.2655472101915235,0.012800817849065048,0.3876167231164832,0.44324805972909664,0.23304258685958829,0.31674394167964687,0.3292345243498741,0.028870855084499183
0.22660866331782273,-0.0014468047929259427,0.355276307096495,0.43451052701911175,0.2334139734157442,0.2747214381384034,0.28085455565716355,-0.012850958271103444
0.19149842701383557,-0.017895310121253675,0.30750630592859335,0.34287825787905607,0.1752847654469821,0.22558026554677924,0.23461874750659986,-0.17274914433473323
0.2153737831064437,-0.03007731826163281,0.3578399374406044,0.3932656720789026,0.16919119156776655,0.24097298805270315,0.25033783008069593,-0.14824622891866318
0.2715424692893664,-0.02478707797631201,0.3899996938695926,0.4703431110205746,0.22749720843943738,0.307580543735442,0.30719455300298226,-0.16218164161666315
0.24888219738207443,-0.027718307559488172,0.3695206942034633,0.4480557136557928,0.22250328880280254,0.2707090916478897,0.28232287127773054,-0.15672399766926784
0.19681640742900297,0.004652421786530751,0.32897945971642084,0.3900694307690468,0.16773256364604783,0.22713328345556744,0.23512139716579253,-0.1471480333459623
0.19608627661443095,-0.04777492603238307,0.3146148609808506,0.3625384750950104,0.14981633851205098,0.2059999530193326,0.20006554951083164,-0.12666569978052122
0.3054048093247491,-0.023610515448589685,0.42791098941467937,0.5153246345083314,0.2575911224766549,0.32742289879729747,0.33633899292659675,-0.08257273139830976
0.2730369876653097,0.001243879457055865,0.40088327612652097,0.4926871035053191,0.24750048001179717,0.3066485273907902,0.29457994639629004,-0.12516173268645153
0.2370151176429154,-0.03637433457477009,0.36092346609980946,0.4314774009615182,0.19164830282848513,0.2654551270406084,0.29812910494556555,-0.25255865127419247
0.19460980005184395,-0.05381945480674483,0.314674783472967,0.38438767664368034,0.1347368917910564,0.22531680111734054,0.22856732313376882,-0.4580249618865753
0.29679438483353476,-0.07726491723945923,0.4362375546881557,0.5116488980984559,0.21819899474718193,0.3007965591796309,0.3227436706159971,-0.5085370782311036
0.2963185015107765,-0.05733592003859808,0.43785386019053285,0.5144673160669007,0.21801262360046617,0.3313835832891982,0.3504829288333076,-0.35356647139645003
0.25570796967320897,-0.04159279182840595,0.3963406453689755,0.48293581479038356,0.22398082377507922,0.31040801004773366,0.31172945230340704,-0.24126625164797033
0.22455607223176455,-0.027390792382623878,0.341730373866542,0.4123947337108782,0.17719259361287018,0.23813548862458617,0.2562849158095554,-0.4006125035201423
0.26302346341488836,-0.05043991433396595,0.40699540232571063,0.4617368703960907,0.2188954541866025,0.27553452657091243,0.2791144002469967,-0.540591637779062
0.30335851769805305,-0.07690661736293108,0.43643691636259596,0.4947867293070159,0.21281130996513117,0.3201395671379575,0.3361511265016468,-0.6419278981236337
0.279035581470038,-0.05728273568138886,0.41154440587697316,0.4718866495686286,0.20602227529430395,0.2859843366029987,0.2772039956888237,-0.6840416079517301
0.23895450884362618,-0.04734304844570871,0.35972905049888243,0.4211537305625518,0.17206868901058597,0.24805815942062906,0.2579719721578396,-0.6549604110930026
0.24467318912625965,-0.02103671400449502,0.38563083127716064,0.42622970388146036,0.17341963104328978,0.2531814964433729,0.2487506508226689,-0.7312509491602371
0.29463619362385496,-0.06379222320621315,0.4358131159845317,0.5035723796410331,0.23275509503903094,0.3208912762528432,0.3368035204200113,-0.8121124853839076
0.2773680749221881,-0.01940042950335012,0.4114652006362824,0.46811980224675076,0.22842498547493137,0.3017182364669326,0.32496422341801207,-0.7862272459120789
0.23937547762226305,-0.03547334247561612,0.36520984425239145,0.4255517035563801,0.19399593170413268,0.26105342425132766,0.2806616941379287,-0.5520216917233364
0.21031290556819007,-0.09045171967463138,0.3225044228793254,0.3847677877590835,0.12182453858895778,0.2124277246703247,0.2302620951450776,-0.7260216756531758
0.29979220340176194,-0.09946439906252817,0.4303461572029753,0.49454605056287054,0.20385994204182947,0.28209825120414633,0.309186674847165,-0.906867960763379
0.3042716366875102,-0.12152086972876684,0.4154381482631146,0.49007758796926393,0.1923482450978179,0.28949275775874084,0.3050479086175299,-1.0005148814651368
0.2533319222613976,-0.08421502997905408,0.3674602597066856,0.45900049255022246,0.1896013040034141,0.2636336401977298,0.2734037944626881,-0.8748631345310228
0.19520844742194596,-0.03847052209701047,0.3123727901970453,0.3818208187955955,0.13761420458301202,0.2255203923990177,0.23666196505896667,-0.7714219850362133
0.21595457626561762,-0.009612655330340171,0.352747718429273,0.405775672758161,0.14571039884086437,0.21029050625703138,0.2363560390812551,-0.6448417134283836
0.27931755158819704,-0.019884819092104756,0.4147201980337971,0.4644389320829697,0.20838001967938938,0.28850663306138175,0.31787582670850456,-0.6623821634100581
0.26721317392949684,0.02927593290047091,0.3919949056469038,0.4377336266422465,0.1946815698195412,0.2658835272263788,0.29298267200658024,-0.4777451498319307
0.2234508182268228,0.01877705915462223,0.3269099288178053,0.389488392134161,0.17363384132779322,0.21821729693283254,0.25560179572729874,-0.5568998679252563
0.1704154152586487,-0.02408626448400863,0.27821508725049016,0.33164217014286457,0.10726679909533138,0.16633175298313022,0.2148467955714057,-0.6713307595739268
0.2779867580669771,-0.03832477211684372,0.3811941512665748,0.45859394072408266,0.17124944192936922,0.24559709481202113,0.26651452651460855,-0.6601501967881697
0.2563854575180878,0.04514531695397059,0.3592819046631691,0.41966599054099796,0.19745236029889782,0.2486283386700601,0.2900030317601304,-0.6816250994304728
0.23777986650013008,0.012304207138990423,0.3270966185670855,0.3799753098730543,0.15800924170464065,0.2263328535261138,0.23162396088485682,-0.6043353439490794
0.1529591354875561,0.016228782935611506,0.2611499091305689,0.3197022968541474,0.0894557049553925,0.16414443490335456,0.1540247822051269,-0.5664324561923325
0.17124616046913677,0.027533941543598933,0.26088082786043754,0.30431032149261644,0.07587960803576797,0.1308053828103256,0.13909654898704615,-0.5499200633266431
0.26664899750398846,0.02813687899707038,0.3800776473030817,0.43197397029145046,0.18353966706433889,0.2322297261355443,0.25746993649623207,-0.6362837801289472
0.23875328178450994,0.028036954736352912,0.3508633350408084,0.4000117779152753,0.1653843564763994,0.228538524983384,0.23241246093559473,-0.6976005749744576
0.19105770422477172,0.024570630005267192,0.3002803997196338,0.3322276586977954,0.12464479387916516,0.18888623806008353,0.21841421289608845,-0.6805758213125098
0.13450649131543038,0.018781690038499887,0.2188275884596077,0.26759134508311916,0.079122360053197,0.12817686093393882,0.12216216287580144,-0.5270792587355734
0.14947071338203474,0.0346371328353767,0.27251159555652776,0.3188715249229248,0.09684273995253138,0.14481092093851872,0.1790975713301286,-0.47968320915939117
0.25632860321321044,0.006753454978486307,0.3457898874122912,0.4037026932353326,0.16044487408895478,0.2282910353350669,0.2391308552504728,-0.583563873378648
0.21885445381999608,0.01368234956165733,0.31177361323936303,0.35974478483259686,0.1704872385226198,0.21232603065494138,0.21730826766775516,-0.530151927460815
0.15230368749602996,0.03934872544605989,0.2620624235196218,0.2999497151553774,0.13119457769412757,0.17548799098880002,0.18871203616544407,-0.47381264885804036
0.1145498717583194,0.05687222192998835,0.21534413271562403,0.24906997732708902,0.07419147313852509,0.12735875120137274,0.1154622879468418,-0.46210842536887475
0.23420514161889477,0.0524201870146834,0.335453105824097,0.3766357416392001,0.14528578584784332,0.21814093679231206,0.206548868817292,-0.4262498353667998
0.21866351808587928,0.031104514519367743,0.31484968684276243,0.33981577406652047,0.17633060468451617,0.21400424683190286,0.1967928408775958,-0.4058113418222738
0.1834160003178104,0.03572669020020007,0.2775078594122407,0.2936801375582771,0.12190891695387285,0.1772457609945013,0.15443886199243534,-0.42782626919960576
0.1123942739187856,0.049585046635189346,0.19290501696496642,0.2322395095455409,0.06613160829246466,0.14765616072387103,0.1327719712113968,-0.5242579484869123
0.1769097382807273,0.04405567187742707,0.27625830581890665,0.2963135932750129,0.12048077390153872,0.16512141690458504,0.16792954117813463,-0.42682492375817216
0.240738355248383,0.021906887095662828,0.3406376997079338,0.38161655295246705,0.16670490948386574,0.23674175764070315,0.23096039052699271,-0.3852219188751249
0.2242727439000633,-0.006848078121558303,0.31722881919276685,0.3291592380960527,0.15655657234669998,0.21351793387248236,0.21508411966575017,-0.5931840207448885
0.17432404571642537,-0.03732084406613079,0.26012404015144397,0.2629526719447107,0.10078200452197583,0.16511163138353166,0.1600477919670399,-0.80360828422567
0.13084934044644375,-0.03740399691191256,0.24886320561625455,0.2692553577242503,0.07541273890369196,0.11366393304499467,0.13165919628391082,-0.8806535498646731
0.25535718247622513,-0.041405318765379735,0.3844854355052274,0.3883848030221737,0.16157628744229288,0.23464241261222502,0.2411723810800697,-0.6892871259975918
0.2375988764579096,-0.01821158110539672,0.34285582003778436,0.37298069217207236,0.16226918561031733,0.23311970084604877,0.24945569262800088,-0.6743110940627814
0.2245401271627604,-0.02261052620274303,0.3154214285989065,0.3251551656231748,0.15096186254886165,0.225446988564477,0.23665113624938264,-0.5236699482934493
0.15803175084393606,0.020486898458386422,0.26056102115501023,0.27087300263797226,0.10940762264630428,0.17966799569837377,0.17939506236207858,-0.3741950575291556
0.2668898240566322,0.028950382627854928,0.3967249536743747,0.4105289761113344,0.17726066772125518,0.23588536940719115,0.27341329674718173,-0.34254705984986056
0.2621786898887841,0.026019931075052814,0.3984102308459841,0.41547990185636086,0.19314364640966894,0.28693791165962057,0.27586867640962337,-0.3958603949367746
0.2469951189664848,0.028537633486177317,0.342754582971076,0.39389461480361093,0.19029314352966434,0.27470118835422497,0.294375552689326,-0.36061315634181695
0.2158441941602573,0.049411622636710034,0.3095535691041211,0.31544807408052083,0.13938468420257494,0.22881380871878432,0.23312080447828254,-0.3204983573443923
0.24182684948933655,0.04281482069571878,0.3464623551172852,0.3747959406603089,0.15328250870856247,0.24942706193314768,0.25460647441990214,-0.2990555208301785
0.2921316573427438,0.0272059052682454,0.42191414944496386,0.4302145661219125,0.22292616133885565,0.3069632114019902,0.317523304939454,-0.4338285238070423
0.27441981091614226,0.027691127115312318,0.39707704869592353,0.41684480177287014,0.19521526983920903,0.29447936666882135,0.28628802679405996,-0.5287740580009296
0.22118362269010197,0.003770779911448786,0.34226922024719797,0.3813042734372244,0.17822825546380003,0.25157623920339683,0.2520066132187338,-0.45774932871402635
0.2452290109816016,0.021271040983467868,0.3445290697133075,0.38410924894304643,0.1394736544311205,0.26666974848155883,0.24906350040611125,-0.4339671619899976
0.3145733979928083,0.026748186627347622,0.44216771276073047,0.4752213917128277,0.2353810492215175,0.340122502488751,0.36802575618173533,-0.22015575547449115
0.28434343465583223,0.03621285701019588,0.4183816551452499,0.4409489359706667,0.22520870655854813,0.32191869612428403,0.3662152773131422,-0.32367727616391234
0.2595410391114986,0.06567176980296986,0.3628182475091205,0.4235132380010194,0.20019774714640914,0.29553852028306954,0.3392760342884327,-0.38253102557589574
0.23868160484390363,0.029717478477662995,0.34748800931571566,0.397237813465494,0.1611532598215501,0.2688028238667207,0.2891206172079361,-0.2968965774798404
0.3388658008721527,0.021137852605340474,0.46408810432284786,0.5120390006498864,0.2808638845959393,0.38426211397575377,0.4138657635190468,-0.4260364127753326
0.3404265892085413,0.00939830583051813,0.4737695153892368,0.5073122443587128,0.2644724711368897,0.37056709388087894,0.45675595598011487,-0.4357841168828078
0.3226889205613319,0.03712033726393426,0.4314216022335602,0.4709382548989483,0.2553617910875916,0.3672646520565592,0.402114815098429,-0.36627010117235514
0.2607357635539764,0.04550677703726661,0.38186720727038226,0.42848309916672056,0.2041224438865155,0.33825370720310827,0.34555280101727326,-0.29373633294856816
0.3156938921904559,0.03002763105698915,0.45142621748332606,0.5091108579445208,0.2713213145247273,0.4055735990884109,0.43271063733293713,-0.23026700661608684
0.3598464814536821,0.03262185784182346,0.4927117391330637,0.5403227436332881,0.31566148352945184,0.43177337599678284,0.47996412499436875,-0.1376654437908878
0.32945741691237257,0.07389740727346264,0.4603556114990385,0.5245943427206584,0.2967932526373868,0.43710386413424085,0.4764085263385265,-0.09857165036735692
0.29797393904059244,0.06329275487632242,0.420936265100472,0.484690224172216,0.25917700141880196,0.3810894677498409,0.42832646595551493,-0.10642225171239363
0.2772844042019146,0.0866412665103898,0.38693172537539966,0.44119529750485265,0.230918808621505,0.34412154625767294,0.3949669169441101,-0.11257753017928962
0.34890970582889175,0.08131795642831166,0.5099548456466332,0.5613436641708658,0.33211228315217983,0.43684652572609217,0.47391573174735546,-0.17842435328336903
0.3464274764520079,0.04560953839593975,0.4898079815858472,0.5406780211362702,0.30792674339406295,0.4519551363804051,0.5026753655874875,-0.2151035211912387
0.325582156346788,0.04295032088509822,0.4498861054789554,0.5150124655027074,0.2793206669526035,0.41454199712662704,0.44319401299996647,-0.3039431539076842
0.28488097959380937,0.05514475229584499,0.4004576188729273,0.43623050775601085,0.22987152588000834,0.3288376023260082,0.361071058322127,-0.37907657387490945
0.2930575207852194,0.040109710194972954,0.42848094651587904,0.48670480284058676,0.2684308742146713,0.36978922219299953,0.4233476077949792,-0.24628312733666716
0.36260157086388567,0.042244680446467876,0.4823974464668422,0.5664497901596734,0.33961150383822425,0.44465985346682463,0.5043095937959757,-0.23137952307000068
0.33044143159898687,0.0445477126367037,0.4564188527104874,0.532967148976738,0.35153451315430073,0.44843000032558866,0.45753671991767564,-0.2393589637329597
0.28991595804352777,0.033044365879474256,0.42514084520168954,0.47503381476084167,0.2803815247677962,0.3918014274221749,0.42534504033495885,-0.12665831419504234
0.23980113559043362,0.04190530894134818,0.3554918578548359,0.4235486491933054,0.25839383834724394,0.33510639442649753,0.3596480653988734,-0.06778551680221072
0.3049339660820029,0.08434743434067132,0.41949183559433684,0.5044990578407823,0.26913403143035725,0.385401185444691,0.4108312354041048,-0.12900463951869165
0.34406551510912303,0.028692885401427143,0.48957427737558246,0.5568617548418447,0.3373503027410536,0.4481800239069715,0.4456258310179185,-0.31746949695973264
0.34542447214666305,0.035644585538492465,0.46495022873723924,0.5426725911802667,0.34017495213795484,0.4113471356725505,0.45590646366987814,-0.2848933316634733
0.29177793136276087,0.053245460862636096,0.409175613856131,0.4784558881017072,0.2800165657356264,0.36690362085995243,0.3955629143914766,-0.23455809964116656
0.22800107263588035,0.06656740507312622,0.3726815660690052,0.4370269317684069,0.24997029221613037,0.3175203561441183,0.35193872175571705,-0.19372562138012045
0.3286216504982803,0.09152143478819874,0.4820508461526223,0.5436092810681009,0.32001247782517767,0.42500725224417485,0.44445969355266945,-0.11247766393697615
0.32401138318156836,0.04214794692988615,0.46713702844149585,0.5479394095133681,0.32721605743383186,0.4095102953056078,0.4537863759391124,-0.07749669614897761
0.2990480129349281,0.06123883487289514,0.4344210361686559,0.49915821438096314,0.3053610546366824,0.3990486307716534,0.4141418638442828,-0.11820061895741568
0.22916997894170488,0.04842968613144463,0.36971735054472726,0.4180598314025732,0.25037407509325016,0.32910938251365074,0.3211988230162504,-0.09965193968965393
0.24523670001146594,0.08354245609930261,0.38287178328310945,0.46266364875907967,0.2625507198837546,0.3428088500675191,0.3310009232390768,-0.12583677372872323
0.319487384927325,0.047035736421359,0.45482629826045967,0.5135381924393584,0.32426419358301767,0.36471619381647,0.4121243403102247,-0.13147132758591296
0.2905351815841758,0.049778711373806704,0.44971157693984953,0.5049558672843807,0.300604369134568,0.3834167776507527,0.40040380346423904,-0.06702001805268708
0.24446933628664425,0.05191877097089862,0.3762038538562527,0.42717229702609477,0.25223352041311636,0.3183683923083723,0.31312229432250555,-0.06889510649151623
0.18960335637504253,0.0760269404492637,0.3279416894109318,0.3561736515390594,0.20302521466360224,0.2682107225168284,0.27194509735081007,-0.0767375407369164
0.2853525621761867,0.08284393801143912,0.43242232144303067,0.4628456137907778,0.2841146210614992,0.35140945567282655,0.3291353170480734,-0.11454354674625708
0.2866773294209883,0.08679574792171003,0.41943094071396647,0.45262285664884944,0.28323020584134706,0.33674484726285103,0.3177938601193922,0.0343180730215344
0.26180586287181024,0.0898239332943088,0.3929584177835012,0.4084913344023538,0.26450228550021704,0.3069707611425777,0.29483834651005497,0.046047847878358326
0.20442026747319056,0.07853045521821356,0.32122775774814466,0.3713923932351059,0.19785537847655357,0.2635445697460541,0.2402295524834097,-0.01065457288558756
0.1701904059734849,0.06787388499315428,0.29718409118164407,0.32665573388220004,0.15155546976379622,0.22071671976729304,0.21706950372283595,-0.003072041918212547
0.2910972731523903,0.06006211690394662,0.43367941098635393,0.4807369011407314,0.2675452124655127,0.33758625133960946,0.3377133616324163,0.0033600800537687274
0.27020221867756933,0.046604195025248936,0.40268999864724564,0.4415709680095717,0.2417572156226829,0.3097470293908426,0.27545881826240937,-0.10282922934841879
0.23703247571916028,0.024571178546815058,0.3531070492951363,0.382661662102244,0.2198911585572086,0.27604033477056816,0.2410789931864595,-0.14717337194434713
0.16646362024866718,0.06575663930298589,0.27023717203267605,0.30255777815453966,0.1561138950440099,0.20989915154798602,0.19341426463000116,-0.07223169536140188
0.19969184515572952,0.056108198425625755,0.31413288805917483,0.3627445869921785,0.15753783080147116,0.23665476586716633,0.2003990338715903,-0.10151916940557648
0.2759594854731574,0.04188491554220073,0.38634001364835596,0.43674904630010997,0.22948529812569685,0.30058767093045213,0.2744978409910888,-0.09786214194233814
0.24172092128279135,0.03837537976923226,0.35912521794873087,0.3944482378485628,0.21734645922220977,0.26450760543734086,0.25056032170405085,-0.13968824840011362
0.1835268545823935,0.03444791625731018,0.30429366230359217,0.31959014095140814,0.17322464999444864,0.19978199830388566,0.21496431610265934,-0.13142882412745147
0.13408631042947491,0.04896499812586253,0.21222806780925518,0.2644027068280975,0.12374761145013592,0.16895226047472547,0.14090017432436225,-0.13565807308045041
0.20289143851022684,0.07598180107272363,0.31684989302637095,0.34260111364187207,0.16309330126881,0.22756641627851362,0.18893273512618552,-0.09244104883891602
0.23440512047119252,0.05551633844377906,0.33658049250159877,0.36263866991886534,0.22038099296587393,0.26473283946983595,0.22045973215160938,-0.14995059680219905
0.2241774624005591,0.0516873895903,0.31189088914362967,0.333934571634692,0.19184065053251823,0.23591207601631572,0.20971569542452936,-0.029506664307345432
0.16395310979020858,0.05739433895616398,0.2680728371118517,0.2605854646631886,0.1212625893501151,0.19842668354540055,0.16447875962958125,-0.13659840400890574
0.146480999421004,0.03569945213289175,0.24193271167871297,0.25750767150196796,0.12226999031343543,0.15488262649471887,0.15037954239851775,-0.10791217622718158
0.25663741083802444,0.057844799452545954,0.3663720436655167,0.39718033043057444,0.19742362907740374,0.24692528760255655,0.23039508268504935,-0.05144516050690166
0.24054351079660688,0.05412479358623096,0.3270078504858483,0.35014254958181196,0.21209040711070978,0.2509740956444256,0.23899518969210312,-0.10280588162312146
0.19968258132646818,0.05499627893909193,0.28937928598130025,0.2927271498834296,0.1776644419198417,0.22240182731407943,0.20356860517616165,-0.1051105374386301
0.14638655945844886,0.06776052563765861,0.22092347370541604,0.24619797014980763,0.12318432315754764,0.15745973072388117,0.12196350593819918,-0.14698553079525173
0.2534556481464041,0.026866015518742552,0.3483743682809815,0.381991770660895,0.1876696448176134,0.24075760266736865,0.2102392301111519,-0.2203735984207645
0.28375080791093393,0.035992621871888765,0.37824536383998186,0.41409516813488645,0.2317002316605897,0.31428524972013067,0.25647833389847036,-0.1141923614984352
0.24264636254916686,0.030601966348893755,0.36365448272169454,0.3712650096158468,0.21903523183237683,0.2774441461121433,0.2443603325171666,-0.07371978496860307
0.20725953839084704,0.04514195393573397,0.29085209153118247,0.3214013146772797,0.18189380925505552,0.21941429530816017,0.229818853061294,-0.02892053823513781
0.20296084926696548,0.04285105404222092,0.29813545137068986,0.31306640440240296,0.14900301458642135,0.2095064586370224,0.21021046552713427,-0.10955883575430021
0.3009252324426486,0.055259433618010924,0.40279791972022966,0.4204606356699994,0.25771250423268666,0.327805057274905,0.29882929849588963,-0.09143480670651881
0.2821599395990779,0.051287794910914807,0.4030688006351692,0.4007216324442493,0.25123348907783244,0.31855605388931657,0.308717735635525,-8.1388007876964E-4
0.2578441853188041,0.06380417617568919,0.34615032480213925,0.3752194975694711,0.22314936112934888,0.2963892358498653,0.2612418880963252,-0.03564872820535652
0.21177518757149533,0.03713310614625478,0.30694934683712427,0.32971601843063375,0.15528743476149895,0.22716198072503518,0.1950546351971769,-0.13691736364206308
0.2342796860221998,0.051904033421463124,0.33982961993483596,0.37315318653709745,0.1863620385543251,0.23628824964937453,0.22054646227743507,-0.14919986790002965
0.2979339842426907,0.03000263368734706,0.4049469087027311,0.4297800558459425,0.25098965906740717,0.328005450276847,0.3211474758137462,-0.1496689347160971
0.2841596887284399,0.03552546007541287,0.3967240931305628,0.4056467896417294,0.2487228709713167,0.31801838357999246,0.29258882878839454,-0.12831350947314601
0.24107741649549216,0.02571386114409962,0.34184915634146085,0.3591440681960536,0.1974175929203942,0.28820995232971364,0.2685259960355925,-0.07062144410537556
0.20612887217746045,0.05320359202273996,0.2708709039794835,0.29761347439258995,0.17562150688958353,0.22892046089517026,0.2248937932826808,-0.044298512072495015
0.2572430839942297,0.07119778669625647,0.36063577938122887,0.396823684094497,0.2309213524025705,0.2636433226165543,0.279110641230736,-0.07033420175737552
0.3072065546347114,0.06493636349731031,0.4417733450570608,0.46532485103798543,0.2978523630175532,0.36779603980512043,0.3555883494381508,-0.0069587563886337
0.29962099481560517,0.037328345489724406,0.40943668177266296,0.45911182378180815,0.27839522352703705,0.3432482774630259,0.35263713158334253,0.013101364569727839
0.2635299422397957,0.04253832425914843,0.3608701215719393,0.387447161506467,0.24590619669722627,0.28862274322565923,0.31134199771613025,-0.020984144045416934
0.20568179097129186,0.06691297823278781,0.29810947530147325,0.31057590224668136,0.18476667041309286,0.24594975218686324,0.24270816557825425,-0.0747007242528936
0.25789182871492583,0.047377598478722305,0.37000892394131996,0.3844858884674705,0.21493182491584434,0.2668253436287867,0.2682846922775714,0.002366069575515063
0.31928928206364704,0.06846967050487414,0.4455947373122641,0.4714654329033279,0.297329789468464,0.34540400173261876,0.35447328131967226,-0.008999261746952774
0.2809838268474111,0.055793833776864754,0.4317421904411965,0.4490950783501549,0.2990212371087606,0.36390671522141577,0.3381891845063862,-0.0390113216409753
0.26034583928550115,0.03234077801654281,0.3600950807823885,0.3861501277007066,0.24062189153872685,0.2878055672376616,0.28554476576175686,-0.07749892454671982
0.19061890201067844,0.05683399205245237,0.31709789776212854,0.3259896823385676,0.1850023543487316,0.24843546275452963,0.23792596972249325,-0.045313540869498674
0.1805236252457631,0.05100313311962272,0.2916468858974581,0.29701420463295714,0.1578537040668752,0.2164580713334562,0.21113379571554186,0.01571410384224685
0.30185569367610393,0.07262788600974868,0.4321067552110806,0.4285057999874336,0.2728051982222589,0.33043448590346164,0.33348288394130504,0.08298052754445334
0.26156236546625206,0.07343854053589419,0.4131857757812869,0.41667420708478153,0.27936671297672755,0.31851940964974323,0.31818554656474346,0.08184768274038648
0.2375180304167438,0.06167486208867582,0.3646296216027566,0.3782595175830972,0.26466009514944155,0.2853555026525952,0.28560060713626545,0.05353518163449219
0.1818788244934433,0.057436107611462894,0.30799024079869586,0.30389823192529286,0.2068475687472566,0.24152125028715749,0.2365463732323968,-0.04503296316142865
0.15804569006571784,0.09389639585859748,0.273060275506649,0.2576494639986112,0.1718556838827221,0.19601856303981718,0.18778464722208907,-0.06838053666048857
0.2763091379254641,0.10226966251835155,0.4205924668635002,0.4238378948418921,0.2578466497513877,0.2915503664779564,0.30317579635914,0.06788818728656311
0.2699170305246942,0.06385740865654543,0.40829943545055786,0.4189781947617455,0.2699634547099858,0.32092435334927427,0.3267167413603433,-0.012880683135873943
0.24221514037248731,0.054225300213087586,0.3527727074598274,0.3882120530203771,0.23964542770385538,0.28066928519663936,0.2798673041387669,-0.09527463302242431
0.19023449572863227,0.03654654008498379,0.2903543834901369,0.3185480394392555,0.17754594648959815,0.22393712652022743,0.20206909602247777,-0.20416526204450908
0.13234062782998382,0.016895204463222548,0.23334060830484288,0.23894498108039852,0.1316364242698642,0.15190877884297488,0.142979704081312,-0.17294661841861578
0.22288593313785227,0.0402123482052197,0.34931600649451133,0.36487452668136794,0.19629677274502585,0.2282014411015693,0.23614799843289125,-0.08594125397942387
0.271921997206793,0.08247253771159536,0.390551167524936,0.40310039885166327,0.2525535751323976,0.30014527650807304,0.2925894453525553,0.0031465726824531186
0.2339225826233033,0.04400743754074906,0.3431829816913317,0.3591076141762498,0.22694633687120874,0.2625279134130072,0.2469024926613901,-0.00644526219317729
0.18582016169831858,0.06871013852855552,0.2796338754291114,0.28662786440736837,0.17606221185815601,0.21917655559884405,0.2013804772524452,-0.010091950324833985
0.12291641790609135,0.07938188618984034,0.22158837987678243,0.2340105189299796,0.13327250140998373,0.15623012429308875,0.15688784285938792,-0.011545312210498556
0.1419867829188501,0.07160984067938171,0.23685566336490516,0.23094835858451931,0.1177453672843483,0.1561680569786375,0.1441329689075158,-0.01575267253611243
0.24228416063645794,0.07461457500622666,0.35866451201150973,0.3487980696224073,0.2098944142965725,0.24603388159600798,0.23485858077914482,0.004933230295497836
0.22425583053883863,0.055115972702133594,0.3255473277847454,0.33953934948460424,0.19693592237690358,0.2430907718492933,0.20486945859909672,-0.041157963673507394
0.18313799776610548,0.06711621338339742,0.2914065096025716,0.2936630328095926,0.16688038384689657,0.1900707655945685,0.18104551245279335,0.004530429953034952
0.10301751906826055,0.05626447161272315,0.19818590423766108,0.21329925767920355,0.09738788355216092,0.13785473692841385,0.1272461268199816,0.06098640022855083
0.13543192669106718,0.08007282785905305,0.2282806859172038,0.23380731916736802,0.11191460325943146,0.13578601625839057,0.12789034905771499,0.010765818816930088
0.24553088257171982,0.07727188431507125,0.3614436794768015,0.36704725803187355,0.18588865879230257,0.2414433590383599,0.22817203593728172,-0.012653932737305048
0.2138591444205237,0.06355548831718678,0.3146250536638974,0.32468544401794425,0.18169796083443082,0.23171658638833695,0.19187677221952004,0.006770520154699732
0.1742503043525685,0.06233867642845448,0.2818623947593219,0.281630933245063,0.13298376757461502,0.18391681290754794,0.15704148346303365,0.008823002522631447
0.10703418553300399,0.06289979607092969,0.2152815661821241,0.20265709024229014,0.10731464689522924,0.13071536520132454,0.0966361655012918,0.07124418450795136
0.10735610875157507,0.08427788482665105,0.192889537657073,0.2032538139980636,0.08966677852121595,0.11983926981894112,0.08546053643020256,-0.07160808892532744
0.23756306596493454,0.04170177319436347,0.3396088686119703,0.3639760353696872,0.16852362410240407,0.2099220920554309,0.2066388946081432,-0.15345213642845237
0.22795944809691931,0.05824828437061278,0.3160950489410749,0.3430381092420315,0.17433659531584653,0.2002577862608438,0.18017302176246264,-0.048012476527899646
0.18042601484895082,0.06417006594219658,0.26378282955423954,0.2820905091365727,0.13069170159339633,0.17654737483294147,0.15472062381451157,-0.04676257763144598
0.10843039124232697,0.03243591213272165,0.19392182095858237,0.19850741685568574,0.10206920739907809,0.1190642519920894,0.10432234973082383,-0.05681494743322345
0.10654166460493675,0.028247010901917138,0.18689721280230528,0.17777167982197717,0.06365997241558295,0.10225518865264357,0.07369562187853988,-0.10012542242340196
0.2423393502949841,0.018645547032674094,0.31565382040705803,0.3197977268489023,0.14312808867985866,0.20113965920483068,0.1782347482488344,-0.1320211882979721
0.2112747840368668,0.017578143490876386,0.3196766137575319,0.29587833307352235,0.15165730503138936,0.18870378320830178,0.1791947405956739,-0.09303598715967897
0.17152578933944182,0.06325104939493525,0.2755302719764453,0.27303479404633696,0.14018043562710486,0.16436215206666008,0.1740187586697042,-0.05346889202541561
0.13319135521784906,0.0067253250283103964,0.20788944331615825,0.19565563202758612,0.11054400690790406,0.10672973411088987,0.08372460056161364,-0.22588804276201072
0.14469469216381278,-0.0012368912556025105,0.2529573598491013,0.2539473615929666,0.0851478465474092,0.1398217604752298,0.09163137470606308,-0.2293939163610036
0.23787582310205405,0.0132950583868148,0.328778155126743,0.34147408407219176,0.17976931481800162,0.22816851450037703,0.21591460609133517,-0.18956422661749198
0.21042262844189938,0.042405034890787785,0.3008794606019566,0.3185578352190578,0.164502543472911,0.21006126092295266,0.20286287792294883,-0.1376698477557896
0.16175413599677638,0.04177198235331767,0.2525213084338728,0.24897342900931344,0.12251357503705029,0.16697113587206674,0.16542388672394226,-0.06998464913209715
0.10933477900142877,0.05664354694283538,0.17799376039425754,0.1908626524634955,0.084399942474631,0.1261804324009287,0.10190901255691265,-0.10391830338295431
0.19817472052999927,0.05534775898382458,0.28222223505313065,0.2980624216982138,0.12187669876976853,0.1545641727062703,0.1477816045724341,-0.2505399538594936
0.23937967100583699,-0.006542788823727389,0.3625986336860169,0.3591429029511226,0.18517483794830847,0.22319914605673397,0.23260591164480288,-0.4150956462502873
0.22891287250927211,-0.031174690750198547,0.3413285192214274,0.33968089089874853,0.18281454446124507,0.21901117436174414,0.2141619671113794,-0.4093991680073653
0.17558687565608844,0.03578956114588893,0.27156212377782457,0.2960637403261633,0.1292546400486962,0.18644598881812896,0.17285350201675104,-0.318201297234552
0.12369997467168177,0.010625375543379485,0.20291821215849518,0.2149931648051457,0.10489237891645194,0.14372259520195765,0.11946950045029711,-0.33501261398796883
0.20008250940351324,-0.03944594698661197,0.3060486630666934,0.3299218670069034,0.1319092198602979,0.17903519258656836,0.17304780554792887,-0.460948952872253
0.26367862307155876,-0.05187171234763144,0.364048465049967,0.3775179553538746,0.1708913284968354,0.25255039424650194,0.2339711291335707,-0.5775926253676646
0.23327584696862716,-0.06666838194987265,0.31895780377645494,0.3349470878259538,0.16317091627130478,0.23112775244506084,0.2199515313790546,-0.5781191704237204
0.1894472247682583,-0.020320411403339365,0.25562758208639663,0.28931116863915407,0.12817339198553876,0.17306302347022237,0.18804349492545216,-0.49132792005226966
0.12811397052386567,-0.008329649082177341,0.20808735935951947,0.21996839966669857,0.08785987036376036,0.13961367038572883,0.13242796879209962,-0.3669175245325076
0.22394856470142163,-0.010447791820066802,0.3238134935399132,0.3364671647126016,0.12456802275811152,0.21065369377257537,0.21317852930822923,-0.3800644257591862
0.24541751571818402,0.00507373262562481,0.3560515055110133,0.37122961550938754,0.18379451836395497,0.2504332252503988,0.25138760900325774,-0.39850218497444906
0.2300210412306189,0.031978973415649835,0.32679223010235803,0.3483096322504484,0.1662176866399924,0.26224043521401275,0.23686422436177904,-0.27786054921714515
0.179616973949135,0.034487479193040994,0.2670988017124021,0.2805918026057853,0.11638477151719695,0.19221301985337966,0.19920944782071767,-0.28540545528929867
0.1202953358014396,0.044919711267497935,0.21445085818574824,0.21717039933457427,0.07526914394760544,0.14310809209759984,0.13756933824688755,-0.32446003630638554
0.23738757632241647,0.007284304259908893,0.3390680527263993,0.3609435557818736,0.15106295775973935,0.2304442823184095,0.21813283224087532,-0.28766694987625857
0.2524345816151019,0.03724796928792927,0.3752445433122948,0.404700098745184,0.2218528487648239,0.2606369193513161,0.253335568672134,-0.26988766775700684
0.2503587353573769,0.013015631022818972,0.35206972841225,0.37294985557361326,0.19155238355928092,0.23746580650390997,0.27169772288148164,-0.3491672789962521
0.1960796598538549,-0.013024785191562568,0.2736331938821608,0.3007547509205547,0.12423322162630625,0.2033401054485722,0.1943674509434521,-0.4915218232833421
0.13763482866087454,-0.04044277718115792,0.21135210011972308,0.23955890038925942,0.1030971324304088,0.14925146129367656,0.1630268817016815,-0.5952754326012675
0.2327246294106089,0.005902122491172074,0.3311378652605849,0.33575992129041615,0.1504378210465174,0.2211497489434649,0.19883316450289776,-0.41096007396222145
0.2816315903391796,0.01892135141616652,0.3724759243919285,0.4090342602856619,0.2181053508510237,0.2670599912951843,0.2975157122379839,-0.27457493311811587
0.2570071665166546,0.056239589737102774,0.35950840177134985,0.3815389987117822,0.20212875960898752,0.2521305795725626,0.2896318592492463,-0.22498220879373818
0.21081076919618447,0.04586826315863053,0.3047005295141032,0.3047777963279765,0.16298232271793978,0.24286753953136914,0.22988095299062625,-0.10452235925047446
0.16388442170947423,0.025327332308970472,0.23541300882107707,0.25434480781816415,0.12255046519608079,0.17247052405484956,0.17079563508229972,-0.08282275229393578
0.15406439956523307,0.01810040031591635,0.24405816381908307,0.2504015076859078,0.10413855562322492,0.1610540832093207,0.1488588275239558,-0.21319953278579407
0.2714296846423723,0.03759098503794533,0.37657128661005096,0.38806352135965944,0.20479696413503293,0.269544333960656,0.2628926201258828,-0.20795976584034334
0.2569004199502123,0.05360050484767053,0.33477423687498564,0.3697944614088614,0.195276926935737,0.2448553687579942,0.24394187887886878,-0.10480469075335058
0.2184451502121628,0.04376645760053274,0.2937651620083392,0.31751882994101815,0.1586048096303035,0.22078391739640923,0.23352633955754865,-0.25137349402180353
0.15717115304648108,0.029250746118791433,0.23243367332175424,0.24345716168795797,0.11198015863599191,0.16588101949864772,0.1524553166260359,-0.37634636952335715
0.13537852351785623,0.0016444904453281866,0.2213161106478784,0.20427132213891083,0.06978723358445306,0.11752235531818457,0.13491715631240553,-0.40521322761358014
0.2536021135421322,0.037221430092424304,0.35726988864779774,0.34483012956789105,0.14277381844078066,0.21736159392826923,0.22113926906829703,-0.40821534578717034
0.2416440900348199,0.059108545505721935,0.32090432629310695,0.32185419586636743,0.17031214590150584,0.22617060858769997,0.22785391917004597,-0.2218006717112894
0.21196273924737946,0.022243153240497183,0.2965037531643293,0.2792981238813529,0.15636689967679324,0.1920327896865845,0.21223407362029534,-0.2579800923407882
0.15514934171482345,0.029471699723883162,0.23014599940539338,0.19449323730336515,0.07968829244115211,0.13790534183983544,0.11408529400365552,-0.17608201854173824
0.1040300504267877,0.019785391513499707,0.16862171717884988,0.15041437484800665,0.04450943941161352,0.08641356246398745,0.08576024732185589,-0.35485555493740506
0.24024615632044335,0.007422181522173477,0.3214002393398277,0.32865592820689066,0.12330215217054298,0.1901518445255973,0.18721095846510594,-0.32650344408023746
0.269783581212482,0.04588553135109131,0.35631732693461676,0.3489911314783121,0.1741637932289159,0.21511440621186098,0.2481606096628158,-0.2861343060774543
0.22279706718489117,0.010556368448263796,0.310229469138676,0.29822406795999346,0.14333929800387865,0.1876748490200417,0.20293092186323616,-0.4275542130018093
0.16072900600389622,0.016070031357427357,0.24242433741168942,0.24575934987465922,0.0947236346167662,0.14546770587545393,0.15302794964379812,-0.37876588945191475
0.11942773804481234,0.034602173880789705,0.1975320735877785,0.15764064538470957,0.060591280271258374,0.0995379000157142,0.10266720179808426,-0.341130222800778
0.2110863367839355,0.04986861346305628,0.2967629989896263,0.2796996481604634,0.11178187358101478,0.1479637175470475,0.1490647574804219,-0.16446753089460556
0.266825030390271,0.07225285938038928,0.3473115322822733,0.35173032535418697,0.16156428650661625,0.23750119731389058,0.22045344371539446,-0.17487830830910125
0.24680765896376405,0.02958930253951894,0.3183682453766242,0.31257347317060125,0.15662117400459388,0.2026327727962239,0.19902782639702635,-0.2964691295200639
0.18945051443126307,-5.273086368862219E-4,0.26792318397064374,0.25089262615911617,0.09923410620122891,0.14198087402660708,0.1516345092558241,-0.4091495593519237
0.1356697206998243,0.026016809886113837,0.21089023401578205,0.18434125728342562,0.06235637106255128,0.11020360529959046,0.0952363978777833,-0.3775460255236635
0.14882370413822588,0.03106283587622869,0.22327008912291005,0.22024830730881295,0.0353469100003652,0.09790537480672754,0.09140027411165878,-0.3146878898047226
0.27129461601924576,0.013294278002550126,0.34631033349565615,0.3484282899909808,0.14851786875253722,0.18625916548604105,0.17852890104875624,-0.49657039008522996
0.25782639005606484,0.015495384951899765,0.3462083350638123,0.334210260770262,0.14730995040197373,0.19493654101878388,0.21325670564867835,-0.35657428481384773
0.2104265103634897,0.035061094913785375,0.31085147335219687,0.29761680084129966,0.10941015977321879,0.1708780920509061,0.159800789352063,-0.3710970346327895
0.13178235575015818,0.05458312210320608,0.2394942327069951,0.22150455079682874,0.0650320187782041,0.12057311067296969,0.12466326723076082,-0.27456338913371453
0.17491074337637952,0.04245241591945789,0.2591919635171788,0.27146890894703724,0.07510651820019805,0.10020940817017197,0.11647538199570245,-0.2888511797977412
0.2677210838959467,0.028864568443055565,0.38620751250252094,0.3755438527314295,0.14030536489590942,0.2119529161192767,0.2046452134685114,-0.3264474339556975
0.25587713093276326,0.06117708654739767,0.37855180799645094,0.373309593084101,0.17713279231591283,0.20373501865536486,0.18606828711417817,-0.4126035958465913
0.2203124810180251,0.01933425583915389,0.32210363535437603,0.32809576507531685,0.11121945414153894,0.1851943784822002,0.15521295703186047,-0.4900521150460721
0.1650456512568283,0.033360427367683736,0.2443768959121668,0.26860334139781766,0.0761495428864324,0.12928885838638515,0.1073667457717235,-0.44412569353543957
0.16358749830466215,0.031016743479499825,0.2858776842813521,0.2911459123686058,0.07493213635450569,0.1141123359572592,0.07181116725488018,-0.29777595965841225
0.29670318479407215,0.04142579998292959,0.4061368009253617,0.4310036326098962,0.1668064710784985,0.2244758649945882,0.22335071114446423,-0.42909297243838795
0.29546071650060446,0.021716802548675876,0.396787241375839,0.4205619975368115,0.14911460547571598,0.22956920006353568,0.21647488489440825,-0.4266634886704171
0.2492231313618332,0.026649619718333097,0.364731714402047,0.3660003143629142,0.1508549745784347,0.21161862351238503,0.2032536771438804,-0.3772777162241245
0.18998978832492655,0.047521014817648165,0.28479577211022455,0.2828265869993716,0.10697915609257519,0.17419466309438272,0.15583646761709669,-0.2746466196431339
0.16961091955866026,0.014029839755596747,0.28364432779537585,0.2533215207515718,0.0859410228441374,0.13436018380391543,0.148460355369602,-0.31934864572434984
0.30031499709959236,0.059374525190084446,0.4310647696649913,0.43821397260693035,0.157470642348296,0.22698422774372615,0.21712403673209382,-0.48256550709917045
0.28594162061094114,0.05955515056746317,0.41533548934515313,0.411660701692547,0.17378340959610364,0.2437070542951525,0.24604357214903277,-0.4693148387074787
0.2558917641650313,0.09321290262993974,0.39487157115039867,0.4138473480115853,0.15060742913055525,0.22398184450547334,0.20822454461838932,-0.3650802303150032
0.20636377030478933,0.071557677924049,0.31121046759959126,0.33038648591595965,0.101308657887756,0.16440322290689277,0.15549274632591237,-0.2959437656170621
0.1725789237123389,0.09157978811700478,0.2962512971481321,0.2873778669279108,0.07705775537480712,0.14376196636794275,0.13922566853447335,-0.30313567038832817
0.3161159787906849,0.07107437008574281,0.43148324811078853,0.4510585298241836,0.17433489597756754,0.24972555919515815,0.21528516041690188,-0.3496070334371162
0.2897052699909568,0.05450408201833676,0.3991627216177487,0.4420012061988143,0.1738818534663135,0.23430527212177593,0.22586624255371218,-0.22850516954640365
0.2736600482986021,0.07120220928364733,0.3922636136780224,0.3945499403807623,0.1593611196658961,0.21654478056081813,0.221370794775083,-0.20953062703330377
0.21144546437745157,0.07655649101146665,0.3318098255369482,0.30297315539099584,0.1123044057466662,0.17918382772178296,0.17221487796985133,-0.22711563991772343
0.19384491770133955,0.09968352782105437,0.31138826287042654,0.3030034230589384,0.10961464486789248,0.1627582087425307,0.13528799160683969,-0.2420541451167457
0.3275700612632861,0.07627852426218186,0.43332722550610236,0.45773388611551763,0.21354348990092945,0.27241076315886026,0.24373188268361676,-0.2667404115003661
0.31285135949092097,0.10346732434670368,0.44805269140963383,0.44146672691938427,0.21501885237961166,0.2813127241381673,0.26731197860280476,-0.2698913042266169
0.28561532141045937,0.07337429754328902,0.3957965236639073,0.4050686043922195,0.1759453084202889,0.2387072735339108,0.21750487182994643,-0.3742217925957463
0.22177896813731957,0.06939592610093827,0.34042282805750906,0.35219457627528,0.11647740537624224,0.19641793835038684,0.1908821003067555,-0.42677108527774515
0.1895806700984568,0.058419943686629894,0.3091702481403942,0.3101496398732059,0.09065440930817469,0.140327225924154,0.15723470983909688,-0.43419656158474745
0.32691699551417314,0.07209781226310012,0.4569148605747431,0.49777560030508927,0.20653554739958194,0.2529552309052769,0.27441901999664076,-0.24514853633763012
0.3114902762091226,0.10650161411555922,0.4573556750984794,0.48424952467590004,0.24181688006743185,0.2939513245454045,0.29293794392616046,-0.11665581438806442
0.31004124853017273,0.052614394590368,0.4090934374206937,0.45070535013903523,0.19470891059767823,0.2615303180760853,0.2558557927363868,-0.2500792049045347
0.23656285323649978,0.061240419945955256,0.3488716034828298,0.3598440019797384,0.15857336009980327,0.20325463446316241,0.218921097950032,-0.3501825278244656
0.18018213612788322,0.07728171992043471,0.29203764989614567,0.3072436589691044,0.1202549270792855,0.1620825627997357,0.14451247273518514,-0.2682518758550356
0.2864178161013239,0.0687928715003424,0.41127785943789813,0.4271800673704137,0.1416718799364084,0.21730139096976997,0.25384776647903495,-0.28799758053541463
0.3175380500328055,0.050507746893807624,0.42878102403002544,0.4447913240795683,0.19835145138196933,0.26471818866246244,0.2775957113933539,-0.2910867155647825
0.2902681023683229,0.043739954242084225,0.4042503439718487,0.4188550616944852,0.16982147875153392,0.2185121517157942,0.24513801389677595,-0.3407195022781238
0.22755013749373934,0.044153726681938586,0.34782302543331806,0.3537331831650915,0.16787254576577287,0.19976075285444944,0.19319586636242833,-0.283410595748343
0.189028634274134,0.059732383827523626,0.28568054806843124,0.29155764899437353,0.11743058797472057,0.16237315478350908,0.17231133598193552,-0.2988653792813557
0.28769411235876885,0.07198848730944507,0.4017553065570086,0.4189663788555757,0.16510243696731067,0.22831184816278977,0.22922889743026087,-0.3165786136721389
0.3050565039407496,0.04613916878186902,0.42338291024229247,0.4159373003831889,0.1909296004340355,0.24321353411124275,0.25458286549430836,-0.4356864133825719
0.27881766029702054,0.0521910034763683,0.37973180940290435,0.3803284595779797,0.18042231064088732,0.24769265783826377,0.2401501432494257,-0.30888549266990967
0.22405892360323593,0.04700218153047267,0.30877934967373893,0.314776405505307,0.11851354755835007,0.18587912847657037,0.1702048812011028,-0.24358535913823903
0.15456887174033498,0.06317464530076436,0.26626414633689727,0.25585632898303956,0.11073320407232075,0.16142663908663255,0.12796057453214352,-0.3077731286565305
0.277754520663696,0.05358480042109275,0.4009606430989319,0.3961124156647107,0.1625098968846027,0.20704531698081244,0.2225431648337763,-0.20754757315349057
0.31102602101753635,0.054437298701648006,0.42866427156949466,0.42587459979037684,0.2177728932532147,0.2845925655717826,0.2736254408871178,-0.2169119845952915
0.2887406942690955,0.041366907583265916,0.4085690277530017,0.41080263644127857,0.22226733024209938,0.29090863297063807,0.2946166589537741,-0.1985458954729932
0.23403853515827808,0.09353652762545654,0.3412644851138975,0.3372769088315482,0.17830897613971008,0.237658222433818,0.23244476719514207,-0.16907384197716974
0.17089970638956756,0.08094639057547973,0.2694633272359599,0.26196724269172017,0.11616429352570105,0.178450545517973,0.17936629034099985,-0.1466981259927025
0.23992797644008323,0.05925003365017539,0.37286096815200326,0.3972253895258618,0.1806058397531066,0.2202708115075293,0.21439101975691077,-0.21731012606240488
0.2921430889388129,0.05650836588765706,0.4182951949662168,0.4329521349966091,0.21743761398726433,0.29597697190240574,0.2971356005011522,-0.26368665343244096
0.2930133535124763,0.05633476830040154,0.4081362301529176,0.41471790067570863,0.20721021790849387,0.28469912647073353,0.29539622478999455,-0.2428065993116798
0.24431534344384517,0.0576735025025855,0.3519697783854036,0.34836261462788204,0.1721364178107331,0.2717788209245278,0.2383192359838159,-0.15189247709237205
0.18920583830921178,0.08875174717062338,0.2901947910680349,0.26663332899252296,0.13058953401339823,0.1770778178781947,0.19365736620581306,-0.17972648934639443
0.2171984922883001,0.08685169644607568,0.3098994021530696,0.3214526103065461,0.11979027323489258,0.1941963914904404,0.1921332746462522,-0.16053766772579253
0.28175919020608753,0.06814616134814173,0.43870932830788817,0.43087947602661764,0.2058519797021966,0.3015233747169099,0.31658738118903595,-0.08993259648610695
0.2685083038804471,0.06908024711247426,0.4025199242901792,0.3830101715738274,0.2416106031331623,0.29122809654253456,0.2913066141607976,-0.2588420683831602
0.2371221215615008,0.08197518034104379,0.3645894140663469,0.34145830473690525,0.16038059249850709,0.23993870563022102,0.25782547335872313,-0.25357223623954633
0.18688921985546902,0.07108210667586258,0.28224188538893763,0.2843883295296088,0.12073367734322932,0.20208074272997748,0.18190983122449628,-0.28736660835864997
0.19172953767333606,0.06385212860511517,0.3010849156671803,0.30752107694675823,0.10322885783969528,0.183131492651006,0.1772786168033644,-0.34443798695110495
0.3010506439935306,0.05757974340620621,0.4508964850416554,0.4490812984565232,0.20974602237529305,0.2992121060458203,0.294573063023046,-0.3318227156323239
0.30957218712669565,0.05440719953096954,0.4122746731983931,0.4394963786155188,0.2192781107437249,0.3128705403112225,0.3051965051827878,-0.3172661645103673
0.25651404145076256,0.05728421923333509,0.37950078528870346,0.3692220816641498,0.1837503462796819,0.29213709394687515,0.26629927542267373,-0.18278356148712688
0.18537609461877555,0.0803111898227757,0.31470473382031455,0.2907617212032892,0.15965454817878666,0.2392744433236284,0.2297160856013382,-0.2263328172215878
0.1569958412172764,0.07550511075158164,0.2878304496573551,0.28390770949558203,0.10745057047747736,0.21189987100368668,0.1802123558249836,-0.21261384178738402
0.3043004790836771,0.06729346322429561,0.45879153793725164,0.4652679367393385,0.2217899322296963,0.3149287613701676,0.31318436739960887,-0.26766423345791474
0.29742154575281127,0.04838019469917745,0.43687660294894626,0.4497292731002215,0.22172664789145244,0.3278465674943875,0.332394992725793,-0.36280407807792986
0.25332783943860904,0.05411353575014236,0.38820409917578347,0.4240627971028438,0.18864857457535966,0.2844315404219787,0.3079546639615817,-0.4214307798057668
0.20186158021148706,0.04172770220071477,0.33442284194381294,0.3324068284941478,0.1522278401127841,0.24756940119621856,0.2316301277132021,-0.35808642547593955
0.14441328855868693,0.032332064477435196,0.27959413886401024,0.2659128184060704,0.09287851900240712,0.20372527950767697,0.18670755574240822,-0.3004389016152418
0.25523651302711353,0.06200753189992779,0.3905604565692933,0.40474817988660355,0.15203119593262296,0.24738829714960234,0.2585022181807684,-0.3509051970276668
0.2818716120510965,0.039485740442409774,0.40704555908234225,0.4293252982985202,0.18718959806799457,0.2911761093109583,0.2976174134867795,-0.37526261418766443
0.2709781178712984,0.041191756144612304,0.4177001202223355,0.4164531873488237,0.20695190698880236,0.2699340469833422,0.29472161336702934,-0.28342643213947855
0.21967004647363297,0.05781826827160386,0.3538115445900117,0.346265449041825,0.14919120634369176,0.25426778794904714,0.2676084174337916,-0.263101938773168
0.15662524195483224,0.0597685552019708,0.3055499325149162,0.28497306704956155,0.1069187975001751,0.21170042848476375,0.19896483916696475,-0.26702756662507005
0.255388050580286,0.07200451228508062,0.405446374483046,0.39408825031446787,0.15807065118866162,0.26593748629610153,0.275968380509768,-0.3455245336847999
0.2793383657801257,0.06243414977028532,0.4306965969353306,0.4369782383163473,0.21383732850558707,0.2975856427958517,0.322473498659708,-0.3108992226714582
0.26434879664226874,0.0476196278285803,0.38951225968108283,0.3911384529375674,0.1855596111920349,0.30060316818144084,0.3163867468999967,-0.27607182383206186
0.1933773128802584,0.07087675561623347,0.3513340340412158,0.33144487830727476,0.15279384144121624,0.25830589908303003,0.2560787085823758,-0.25154628001108703
0.13968499307854712,0.05714573826631477,0.301962068716687,0.2681977090505856,0.10642957981662454,0.2110492255528732,0.1983873287598457,-0.2714409775512747
0.27146160200146413,0.07189950277221191,0.4371240401207613,0.44479882577122853,0.17754551652951062,0.268026608764436,0.29816397562276126,-0.30040498014568784
0.2988922584936882,0.06411923225248366,0.44131784851529193,0.4580830095615746,0.23507642908348164,0.33699588863947394,0.35910750507744316,-0.28042845718124565
0.28837873134118036,0.03277949321535271,0.4280085649848773,0.42794433862589176,0.214279075808865,0.3212737771967046,0.33532714245685336,-0.1899460020289575
0.21806074874602066,0.07727339037818023,0.362987849891883,0.38315563680491876,0.15437788295788324,0.28194692698652085,0.30691550590065486,-0.2320275713735532
0.1751211817165274,0.06779174933355002,0.3162499076628181,0.29501922758779797,0.11466830633958838,0.23927442229143042,0.22237807068930804,-0.17290360063886537
0.30796572799820826,0.04590787781801565,0.46016208161128397,0.4735789159179868,0.19172402124846977,0.3195458981097506,0.3460069773570469,-0.1458238638880407
0.30462922122096836,0.07167848673493604,0.4619854846810923,0.4628305991537611,0.23688375948252466,0.34604020799192464,0.36126878299408116,-0.18612894456892587
0.2746150143158036,0.07760068316224981,0.43298963624684844,0.4522079049682394,0.20957330429688703,0.33099480193092046,0.35222028059694954,-0.14728694896555442
0.2319898628436591,0.08455574441931826,0.36991942104382913,0.36415765188674526,0.17148465483004321,0.29001005301780214,0.3214030702554879,-0.00640719858607668
0.18682947416628434,0.06092801750790565,0.336915627679633,0.3146472358681855,0.13256908330539413,0.24484917044249208,0.26381816977494915,-0.14694397168644238
0.30899179073861655,0.048283340675518795,0.462615882703901,0.4803476793320012,0.2297493840576663,0.34021236976098373,0.34908023169382146,-0.19859115166355543
0.2955659066652673,0.08152856223914844,0.4558843928458208,0.46362083223130945,0.22387738418731964,0.35425737032350935,0.3632657703915081,-0.17773485776798675
0.26200904281142295,0.08020193227459169,0.4313319456369694,0.4223843987548815,0.2070975228405346,0.32132831173557574,0.3434935693723496,-0.06301192007578718
0.2272579971486491,0.09739903671086554,0.35434398998005373,0.365234912386018,0.14654980044968127,0.2724005991854441,0.29293457000110895,-0.08132761631411514
0.19040855242203125,0.0757143908248802,0.35581550777940185,0.3475384052113369,0.14857594982342387,0.262709708128264,0.2712294060235404,-0.05189485361010439
0.3286250454296664,0.06993320659938476,0.4933975396684941,0.5098214850190499,0.2527873977975082,0.374548238745632,0.3874664737545133,-0.01803449063978973
0.31400808227799076,0.08255389607177388,0.45724260188284194,0.48727846995553264,0.27751117928933106,0.3711117445117288,0.3961207878508012,-0.0828162238604199
0.2874093428156469,0.04577561150775391,0.4294784327279663,0.4625862210788483,0.23142111389788422,0.34294723987977344,0.35515010556127163,-0.28702515314383575
0.23173752537162357,0.039284517356596854,0.37569187550967326,0.3888157239603404,0.16819024818800055,0.28522558956422744,0.2937304712356231,-0.3344408987281256
0.24861964505910344,0.04955776115882959,0.38206010803568713,0.38793085373624864,0.14723925273411892,0.2675350891114126,0.2692853886983204,-0.4034119130698825
0.33530264912867724,0.02174299063710409,0.5052049551248187,0.5264995891934994,0.2623009320841866,0.39396247120888955,0.395307780052131,-0.37647319833347576
0.3250313315918475,0.03078029329271106,0.4790167980511816,0.4965852787607585,0.255126101432879,0.3795238602532492,0.3952844356352832,-0.3109804007278785
0.29702253939763856,0.016151901605661885,0.4585292371632519,0.45556190655983,0.22259721714309402,0.3339203176356905,0.35447171873848043,-0.37251701007876686
0.24292141975161388,0.05682141177531348,0.39674238256449473,0.39175993082919236,0.1606191575712889,0.28721446660503636,0.2813343950740339,-0.437991493046962
0.24050943902007374,0.01679173527392491,0.4042511245541212,0.41000269318314636,0.16497896081950988,0.2618145369676376,0.2941919871479434,-0.6032864286462684
0.3378056749026141,0.030501266634558884,0.5042466838794645,0.5128916969890019,0.2497019521447438,0.35945077385155133,0.4163534942276569,-0.6763135552443441
0.31778058088303696,0.04322903438665221,0.48750793529769937,0.5064531085065697,0.24406605638808096,0.3507541835316675,0.39636515580191684,-0.43174430228951594
0.29044760588864726,0.06606205614549922,0.43714941886603464,0.4556314866323412,0.20471506407623433,0.3339143316143738,0.33200565033005874,-0.46076131856022867
0.24810956281965074,0.05124756513272318,0.3762335461653245,0.3899545110834921,0.16256478724565873,0.26510119182215236,0.2995924012163142,-0.5324893996827382
0.25014199699577977,0.036731082161459344,0.4056867067024273,0.43121500983120686,0.163552584734585,0.2524001635289737,0.29518605754666666,-0.594818533598984
0.34881613267860867,-0.01152621298708523,0.499806576483339,0.5046987597143104,0.25429396537074306,0.33737731119999037,0.3958001081468034,-0.6773849412284642
0.31718263515201556,0.017393051829706567,0.4778965817732224,0.4793242737191464,0.24562694415229927,0.36646817409004867,0.3456041173416432,-0.5320560642303215
0.279552019000185,0.013612308376561225,0.43199508074514825,0.43336065065488427,0.20528803108379567,0.3004070139733689,0.31880918701424604,-0.4502015525450022
0.21536662299387707,0.04395734026560304,0.3681809909308084,0.38888828031107653,0.15687891128544454,0.23355584853312372,0.2755835196551249,-0.4494116024602301
0.2820036675806708,0.04935338777256347,0.4599410723859125,0.4734138412208914,0.1945712101871608,0.29183865447771923,0.31818044622658614,-0.5264952422911757
0.3497969879880366,0.04701972965783542,0.5261084467932382,0.5358626179328383,0.2756689222941403,0.38601359686118847,0.39325621342696643,-0.4547994566286812
0.3469181901268544,0.053842471480320744,0.5182049647912508,0.5327188753843791,0.2638955868779041,0.3549594649193335,0.34751523521929994,-0.5608893618721572
0.30113305590381206,0.05609166537320518,0.46316543845746616,0.4622238343953864,0.22768732537867759,0.30728291496018756,0.32614280027981546,-0.5169681583963545
0.2374766795572807,0.02631304937900606,0.3848737579564764,0.4203501127998715,0.15819922178258586,0.2805626856369023,0.28554608458442227,-0.4631993006215078
0.31276821897782847,-0.004343054924445728,0.4690984275472975,0.4968177147238684,0.18644786057695314,0.32028608704162004,0.3544729994810916,-0.5614189381295204
0.3591104133786647,0.008531699751511688,0.5311882825457718,0.5645278209797532,0.26693259198524716,0.3794939518059626,0.3845886802317989,-0.6714578752301587
0.32640803049472045,0.029397282549314802,0.5202136143037921,0.5405758933365142,0.2603782905124617,0.37018181826434116,0.3665644744478422,-0.5794011295416998
0.2851371124225342,0.03264159654982839,0.42746148733729145,0.46448038241052525,0.21236669786151693,0.31396826721257465,0.3207017385763718,-0.46170812813295614
0.23444267336945854,-0.0062903244746697435,0.3843290417932209,0.41671116713968204,0.17434237486194643,0.24964509023918166,0.2441795555081664,-0.5697573750155729
0.2942398608674685,0.027027476269486764,0.4302639462243239,0.45854670952593085,0.1771159822602772,0.2775903274623786,0.2791098003505158,-0.5587463093678361
0.3301653862454971,0.05670354760974622,0.5036640296912523,0.5344699391380153,0.24136879069982944,0.3666971324663536,0.34612090842455595,-0.48090762422193983
0.316608815254017,0.03336357896403863,0.48152908379566184,0.5159512667802921,0.24474509327956182,0.33816795996290483,0.3394642667673805,-0.47231295801531914
0.2747420100751462,0.05340199609744686,0.4464036665906668,0.4615637298368321,0.18594543550618253,0.29362062976488607,0.3054168279717898,-0.5323765707716506
0.21230765803153986,0.05091316181697857,0.37998696758794825,0.38469553892434377,0.12968747859473276,0.23706197569906742,0.2580076989421404,-0.5225458303436372
0.3069148653217276,0.03978751250898156,0.46857189518471504,0.5018113368591475,0.2056332372799106,0.29875862097351286,0.29262646037797213,-0.49611185807650304
0.3508035414249353,0.0758021703561421,0.5048011272218376,0.5286916844650039,0.23715575852744855,0.3476669652769328,0.35287784290815316,-0.5311045353911377
0.3077370721248872,0.04799802551048891,0.488610020818626,0.4978671312235961,0.23371758058416342,0.3212443144820218,0.305876278778361,-0.39524772184740825
0.2624516492158429,0.048536219835554,0.40880291063569596,0.44665786738059005,0.18546543051064202,0.2783023903524433,0.25925294292890455,-0.4453163839531454
0.19952499503794963,0.023233808348425002,0.3579490939072435,0.37688489544554254,0.15080077736161873,0.2548744810772248,0.2230543947365796,-0.40674385882313285
0.3170136910743025,0.05977899376324222,0.48207721837468565,0.5200863550120703,0.22326777459629557,0.3200385870943245,0.3248564166470328,-0.388947727596658
0.32555645183246174,0.050549786834162065,0.4944488914056132,0.5433637673625155,0.25626696994064757,0.35354596936880983,0.3537168972785081,-0.3220522201822206
0.3123216820988701,0.04625957001167608,0.4894479797218975,0.5095672405624274,0.2508387588056907,0.34016494334048625,0.3360654245566034,-0.3154338957954745
0.26060804484999905,0.02635695241053448,0.419683482793053,0.44571406345834097,0.1714865022602054,0.2728207143752399,0.26626389111383675,-0.4118716821540653
0.2112587813106281,0.08849699134435124,0.37946862773648987,0.38435565965478447,0.15416248865307547,0.24582552905942576,0.23044402397790306,-0.3526403805980114
0.34581455753835,0.04638607583490332,0.5118208228636861,0.551799374241279,0.23770927573910708,0.33849880572918595,0.3435344182785606,-0.3233991960450371
0.32096565358047463,0.05176238303383285,0.4854091755452063,0.5164091185480858,0.23086714488554,0.34725575207122783,0.353929578991896,-0.28607948023761864
0.28533492482118217,0.04512586905422947,0.46935069960140874,0.47924811811036516,0.19183228204196906,0.3254367439946547,0.31641369778732703,-0.30677320344267167
0.23728379355286694,0.03850897803083707,0.38780966570515885,0.3959737467268866,0.14813871587345,0.24105219922604687,0.2562337265308323,-0.2909121159278127
0.2679349502682774,0.08485316017921868,0.4234430224278903,0.43547050763719625,0.18446408310015297,0.2641394233575715,0.262948014992932,-0.25129478733213
0.32376585318155915,0.07999124107870191,0.5000370520414771,0.51197151993753,0.2409989768312409,0.3556446623266035,0.35283602566847705,-0.3270558003096735
0.3156710150253289,0.03749565115801711,0.49290306619435664,0.49609634639210043,0.22873785096850188,0.3174400534205231,0.31448314926895116,-0.33780918920850567
0.25422818714049594,0.08317319004125273,0.4364304243994234,0.4366263606697027,0.18794256130334125,0.3001654479991538,0.29455459510321486,-0.2586320408423813
0.23711803414795649,0.0785064063916055,0.375790711647,0.3839430981927947,0.16412612213417113,0.24369047810717917,0.25434267241053543,-0.3058920173671282
0.3330530975207997,0.052662492545844625,0.506642394990924,0.5314626260681057,0.2439584440414554,0.31335049942847515,0.3351870845286136,-0.2768355577101534
0.3368483612253951,0.06679801092688818,0.5030112205422986,0.5096878771823515,0.23685378785344163,0.3388234792744324,0.36684796021564703,-0.44277870807854536
0.2989917114888343,0.06135555488688006,0.4789312106750253,0.4737261384991585,0.20384551867202905,0.3208704058538243,0.3347037179202278,-0.4340989093970621
0.26330976206192797,0.0775943854215441,0.40379135303817565,0.4005499298085429,0.18852078033411215,0.267522586350771,0.2672872153792274,-0.370060663121375
0.29385078934369135,0.08743891213544872,0.4750351148036111,0.4792895989823471,0.19054491086217987,0.32151025853873433,0.3085529233132071,-0.4192327556695924
0.3622862281123744,0.07319054504369396,0.5515246541006903,0.554096413532638,0.28545667437480077,0.39138429704576416,0.4003612838555841,-0.47288074569801025
0.3769221111047259,0.054763392604738115,0.5383289198530242,0.5619708754485909,0.25720061020119045,0.3761807556601043,0.3667019601213063,-0.42911807838714466
0.3065715014709893,0.06355988020333177,0.46755050550422067,0.5199881527069642,0.22542716508049485,0.3373609871899554,0.36044000945236854,-0.3540324809652424
0.2755307953484265,0.08018229295218632,0.4271722708482477,0.436131348310987,0.19982468303540565,0.3002015160451071,0.3104268141927938,-0.3834681313778407
0.35693104738332454,0.07996654253859918,0.5380188414845644,0.5461966427171919,0.25574542083428603,0.352759732315952,0.3847485094847739,-0.35437585536994926
0.38160907544870054,0.07427489102075907,0.5746835845204593,0.5869908460367597,0.30225835344176805,0.43015705307879165,0.4413321465665337,-0.3493445908843035
0.36840209338069707,0.06184712907454178,0.537173394436425,0.5560104930163655,0.28169175576644584,0.40791838387698137,0.41346338771064,-0.3997966749987687
0.3050168516939277,0.05918137809477593,0.47788731679485075,0.49689360233581004,0.2431823815730945,0.3509077562891972,0.3572614024989647,-0.3786657061091909
0.27345220068208986,0.04814065894653029,0.4415607353230123,0.43086613009289937,0.17840683894085244,0.3006512659736232,0.32209476440052764,-0.45976131559202843
0.3724206498024013,0.06279338466431574,0.5555796909255937,0.5707433952707622,0.2475489106981953,0.38343135701301867,0.38883697849156584,-0.46679588295557967
0.39074056932986895,0.07787461078541488,0.5825062574800363,0.5790806499528001,0.30444872400575523,0.41489998247337245,0.46744745239071467,-0.36690788414255204
0.3742982769288812,0.09781902838678731,0.5668125841471756,0.5726300889900985,0.2963823382389898,0.4164740524442223,0.4263059055478184,-0.2609713084399929
0.33049936192889867,0.11148577251073782,0.48711727394464,0.5220353006606698,0.21872841018540728,0.33557465840304895,0.3681567866643854,-0.27457246040871053
0.2886287379734755,0.0861852260809737,0.4889864127600788,0.476574155414362,0.20277120569666532,0.3051073632821716,0.32617958276236664,-0.29745431343797046
0.4023597505237723,0.09046196536480962,0.5998219399452936,0.5930432746691412,0.3085312314822008,0.40176084037996085,0.4054095483743028,-0.4253261693821568
0.38249958514331667,0.09370125806104508,0.5829386109410908,0.5907324803273392,0.2835921309861654,0.4126685876406008,0.4268958161199181,-0.5036749816518112
0.3534317023943357,0.08878116302129094,0.5259669716185064,0.5477022206216475,0.277967800220396,0.39269573578015826,0.37903344368623,-0.4490644537816187
0.30110600659371356,0.12813638189017582,0.480126758033104,0.4795262525079412,0.2191479011240982,0.3275413881238847,0.3168092313223335,-0.3062263875496381
0.2982483448693844,0.101093658586533,0.47383445741198127,0.4666528515332063,0.20952951482700127,0.2837912338752986,0.307505283900164,-0.3856405233107169
0.41654196345186,0.08322772795833594,0.6049645526099492,0.6021870636627622,0.3005568320724,0.4235127690668934,0.4212348634466761,-0.418285820830918
0.39816518038112336,0.10670064787684751,0.5853083494897358,0.6023818529548277,0.31426388817783785,0.4183296096548342,0.42254990013846505,-0.313874602441962
0.3558074314382094,0.11619166608663484,0.5561710605321334,0.5260559245838086,0.2831579897875844,0.38187147248448394,0.39338999184506646,-0.33580781478373456
0.303722997344918,0.07775608521413638,0.4753189606182249,0.46504097796270605,0.23772428122059028,0.30908553949483125,0.3101159488778885,-0.44275201673496184
0.3255409874881016,0.06372681945459777,0.500871078712465,0.49713595931394966,0.23319289176331143,0.3085020959529576,0.308523982786133,-0.44365412644911567
0.4149296302458452,0.0781590346606762,0.6279606697104776,0.5831513998379421,0.3123091131105215,0.4118492997656733,0.4180552109055325,-0.5139174424871431
0.3959322107562261,0.09897540898153842,0.5866277961330958,0.5760990121369964,0.3160291394317033,0.4233069351719045,0.4169916975010087,-0.3880067709984363
0.3545833928854409,0.12191695022961092,0.5151933465707139,0.5036726056301798,0.25009033810970865,0.4011815305386939,0.3645549813730781,-0.33142716866464494
0.27707158637692353,0.12361974994004785,0.446465582737998,0.41616805810379837,0.2203846807413015,0.31732190906796764,0.2824513121287112,-0.30403511863763233
0.3297777700221395,0.0818458918407545,0.48769187775635126,0.46349030540623326,0.23300585842558233,0.31234635116590403,0.30432914824862145,-0.41186755405159703
0.38204020190559246,0.1336026224952312,0.5685160209836883,0.555091933085724,0.31368190411669333,0.40285016692695413,0.38126073937467814,-0.3181325140058344
0.36687606715955545,0.12564280073824158,0.5361274405557409,0.5457172759726021,0.2900946785540747,0.3818820521319875,0.3862688552624319,-0.23629745655575474
0.3430729252479641,0.10601964467275925,0.4829154426967948,0.45121608748670133,0.2629910040182741,0.3377634512654441,0.3325595376296785,-0.2916754737956634
0.27518940425048866,0.09686150294248104,0.4515411420173419,0.4075585206791106,0.1959287703193395,0.2760097071837504,0.27065583778170416,-0.4222946072406823
0.38126962148098326,0.11679577729275968,0.5515279948912032,0.5454544678117272,0.2908650334029594,0.3714166092958666,0.3776521943423755,-0.4479447155373402
0.36675510644072035,0.11005644775342124,0.5334529973682937,0.5212587441650984,0.27268270960663127,0.37719933370460496,0.36169114000657704,-0.5313443655146945
0.3482965406601657,0.11163376371056537,0.5037592352917675,0.4830267058728767,0.25138580094798757,0.3591605162403119,0.33312408101560903,-0.47545429411898105
0.2650043113389074,0.09472630322642596,0.43523085939476164,0.38277172550682304,0.2153976288819078,0.2975167304364704,0.28089026571531456,-0.5125276411227812
0.3253723899584549,0.07565196615122168,0.508939895114897,0.48432542121715333,0.22236389753066496,0.32343760155466755,0.3066783717832672,-0.517873286330397
0.3900902497201991,0.11790683471197363,0.560271852717048,0.5452676703499718,0.29185292225228643,0.38087482374799325,0.3686560524340591,-0.5133052072095627
0.36116689214093073,0.07570493316119609,0.5161429139745168,0.5090343706633261,0.309067340753146,0.3638941020731742,0.38072263887352786,-0.44201575815798017
0.3149807768798561,0.12641929710503105,0.47807767275898005,0.4492564690383428,0.25768288238078124,0.32504875985572806,0.3321292116731396,-0.3257776821270119
0.29426648842660735,0.12689514500959745,0.4597551595218605,0.4391652280716467,0.21366688614055507,0.3157285214275467,0.2671664960068035,-0.41036752538529525
0.40322630443776275,0.08904890431828451,0.5910262209248219,0.5712674669123633,0.3108214907821936,0.396350030301805,0.42713528495709385,-0.43883713085691795
0.3950811492949791,0.0896115086475973,0.5630549368072508,0.5340690291504822,0.2989292012262625,0.39549244097436226,0.3943903636832278,-0.47881450669974074
0.3502530066808176,0.08477997334483969,0.5382983343776135,0.48071056338220347,0.28526805358856305,0.38121839218975895,0.38863461338072014,-0.4845435045293395
0.294365621079798,0.0514996398783632,0.45263638480686935,0.42782470372835707,0.22219356045569738,0.3098710705352534,0.3101959424382232,-0.602600370245264
0.3756189931930782,0.04561553504453161,0.56506199119264,0.5464050931926085,0.27693218041012535,0.384544538319532,0.39079332133673356,-0.6656322209408325
0.3967697139070383,0.054207722637939645,0.5825628152734206,0.5615680468224729,0.3062880247463132,0.43007620903525173,0.4220683133951734,-0.5934169859813627
0.38046229983961855,0.06562158347055154,0.5479857358663359,0.508843261070094,0.31731615811767083,0.41504773655246435,0.40239071124401166,-0.5472209045267142
0.34312229750271667,0.09263473931804951,0.48544919645829226,0.45935230085602635,0.2872806196478774,0.3694641819019137,0.37538450826860215,-0.44053974698113024
0.3459835991548599,0.09866411991040924,0.5220703363884991,0.49159462289096684,0.30455876816979,0.3704516722216035,0.37250174424211413,-0.39817383355658414
0.4118143097072764,0.0775374560774448,0.5896668055802227,0.5887773788918762,0.3460011108215678,0.45889931567995496,0.47104705214358206,-0.42292332595798926
0.3967960143467566,0.1291994304430708,0.585258399249934,0.541310759847418,0.33129517950651793,0.4192833693445476,0.42981214279612745,-0.4559696495361278
0.35757107771883206,0.09019210935021768,0.5265299717350338,0.4941902608757783,0.29524234707914015,0.3885752720529855,0.4201378501978172,-0.4029384243170023
0.3205560350246156,0.08491666243852165,0.5122325423906829,0.4531883257883737,0.26739019878841697,0.3618026325610393,0.35881608258875564,-0.5087713822858979
0.42309780526067975,0.10755056554068372,0.6207915158638395,0.6005272829987345,0.354141761869987,0.4296743375892033,0.46458329211836663,-0.5889308939715022
0.40604980020637876,0.11198907945878948,0.6098088446818665,0.5576712029590191,0.3380261376212481,0.46982423804390533,0.47028356959537154,-0.568753348981029
0.38051682961978195,0.12168588293052707,0.5736267926199523,0.5289976690551608,0.3250492826380803,0.4463654057017995,0.4586210494313365,-0.4679391709682573
0.32618886196775976,0.11680444914766641,0.5128670831795774,0.45965111047134005,0.27601439333943856,0.3774469763390838,0.38912439096416934,-0.3551306665723693
0.38200336834028004,0.10930123828808723,0.5706282295797472,0.560583709388446,0.33089817096170426,0.41199434175477806,0.42777061141688416,-0.396496003211226
0.4421166057605756,0.11622996167909,0.6477848366739243,0.5928500749636164,0.3899427530582198,0.4830205338107469,0.5274385112847468,-0.4466512006357811
0.428983349612459,0.09909649046574961,0.6114582804305904,0.5712526745594505,0.36566331505964283,0.4764593890798349,0.49388773760029225,-0.4825776993343548
0.37587682464255423,0.12252454690118754,0.5684664248162486,0.520028734405396,0.3300278974502947,0.3996861241294763,0.4315526636046589,-0.39773647008065643
0.3153193638087734,0.07753925934075807,0.49932437015574305,0.45860459283375343,0.282526886137681,0.36572066233746886,0.4102352329604946,-0.48051184147345605
0.41074593293829265,0.07331915960843087,0.6315647295162821,0.6041734225974268,0.3552278853611938,0.47332970998333224,0.46753004932856157,-0.6610706662378208
0.42571380364277744,0.032413005753236655,0.6271174890835667,0.5943655193538807,0.36031748748802084,0.4798809565985152,0.4942892687484893,-0.7168067947065839
0.3820855299052427,0.027100648938625,0.5754358973289823,0.5645450992431913,0.3417027231036154,0.45017499637955966,0.4572503316211713,-0.7414251008153002
0.3313185298379183,0.06650588716789592,0.5185688652893707,0.4997128832782365,0.2859317432399508,0.3898276905999021,0.43835228931171616,-0.534337647838904
0.28446163278501196,0.0718228358145892,0.492358874609109,0.4214473419604907,0.2674094694942864,0.3630255241863452,0.3620277056175837,-0.5584226334411416
0.384219142995158,0.052409854030264026,0.5931690488206952,0.5727038351636474,0.3335958193470639,0.4158736260853685,0.46425431141628615,-0.4755119402963951
0.3867394952615405,0.06105972024945492,0.5913180030677951,0.5615611110458507,0.3544126479585601,0.4514988052282024,0.4681262683330404,-0.44258145100975316
0.36477268064069907,0.06687660995341009,0.5635012482228507,0.5313133227617342,0.32764197580355653,0.4516932740713962,0.45045797912305396,-0.37641097845022514
0.3122470803928756,0.06611072960490234,0.4887415380661736,0.45597966478753477,0.28465888586944826,0.376619311326318,0.4139863764854399,-0.3173864913759501
0.29057852959498937,0.06954574682172507,0.46518854710310714,0.44489208694111265,0.2563158805262226,0.3519681100078323,0.356406000209281,-0.4027527497990384
0.38194799106388805,0.061648362054733126,0.5907387984518264,0.5804566681414364,0.3335985359421678,0.4610783043726985,0.46319823892862155,-0.3723354630304927
0.3647583314234296,0.048881909385624665,0.549014575196919,0.5509787877692901,0.31797186745613676,0.4468924877767962,0.4556262037984188,-0.2730117173697324
0.3256905017996214,0.028938197181086686,0.47817324923286586,0.480102471791733,0.2948189231170431,0.37664090297508385,0.403406868748722,-0.2924067139432725
0.256604638417293,0.03457801962882104,0.4232491243436452,0.39788445465134525,0.2426703738865904,0.3376263085290624,0.36021424643933747,-0.3046226869932508
0.29161806641438237,0.04815675532077944,0.47915034715170546,0.44183518933676025,0.2543238284063605,0.35571381023246507,0.36222584753188836,-0.39844929330099693
0.3663634330060837,0.045779336554247284,0.54516078899459,0.5308605069687471,0.35762168442115505,0.4488496058066982,0.46485434100218515,-0.34727683204047066
0.33865352466475174,0.04159674698004642,0.5186887995102102,0.5030001540515576,0.31872688830495227,0.42417979632893377,0.4263669356034777,-0.30267796506975364
0.2851804313067101,0.0554316792349508,0.45291386796271893,0.4268302404555501,0.2628220896609604,0.3465210516587166,0.3613977986482166,-0.2973513141508148
0.21332929284508353,0.03286099256467081,0.38385735488419204,0.34771417046065733,0.19504259579641975,0.318942947374769,0.3443000661731538,-0.3697104155098973
0.32116023767873025,0.05549252432424352,0.5073867156087434,0.4776387264437597,0.2774532668489568,0.38327906885569973,0.4029045027931969,-0.3518478064770495
0.3433046075627247,0.07000229837000062,0.5245535951173446,0.5001612125527483,0.3002843140076236,0.41952531946121724,0.4165844760132033,-0.2708353178924404
0.31374976733039367,0.05729067492142616,0.4684931470428847,0.4518480176747235,0.2897146081305282,0.3716498005678334,0.4021913289454983,-0.31600092224821863
0.24548524980154648,0.045354245572632346,0.4017502975745096,0.34888389495892863,0.2088537612647683,0.3473989774265469,0.3572447517499232,-0.34384465393696684
0.2237020254798326,0.029404917247005863,0.3976256002391196,0.33986402123202764,0.20148986865303078,0.30154666942462466,0.3042701560864537,-0.30733054905247487
0.3234953227259167,0.025985520061094527,0.4849355753074811,0.46020164137627345,0.2829416991419837,0.38838096639710645,0.3903228748831465,-0.31283610154471186
0.2883685562997725,0.03145678255670908,0.47454342662911186,0.4317716232752059,0.27749709641737663,0.37423022993387284,0.404833720914533,-0.2999996434227291
0.2440644188535788,0.009871455506769827,0.39606947358234246,0.36465196159729907,0.23639416866591897,0.305376907492289,0.3364223007291443,-0.3856473655462216
0.18279491607471884,-5.28644725768581E-5,0.3183350975217232,0.26937851112653316,0.1633652342309824,0.24579681340886433,0.28475033641727215,-0.3447982572554255
0.2862453065658066,0.06032964222216351,0.47125550271077715,0.4471103504822851,0.24375049254185743,0.34733464528248326,0.3680812592800345,-0.4633981543770148
0.30868925347891496,0.0043976752984944455,0.46033136347417797,0.4238760998565445,0.2613848378043825,0.36940797888292537,0.39149944787097574,-0.4727838776755911
0.28725860967632466,0.053754328265948816,0.4350249031723234,0.3911255441979225,0.24557653524464992,0.3380218863497611,0.3747901385229726,-0.3155604740667106
0.21405159589787776,0.04661118176287588,0.37086809718016495,0.31756732362813106,0.20573288466470677,0.303400447846693,0.32633578433248894,-0.4003343505367853
0.25232145448314136,0.03160585530104308,0.3832338881585195,0.34081122822133186,0.19606837583357428,0.2923614747639573,0.3093680955406256,-0.5220214645416874
0.3138521305938897,0.015451651554045768,0.4853624491819417,0.45768613772174405,0.26172468420661954,0.37783958746875956,0.37448224844288375,-0.4559506048594931
0.3093243129305563,0.01777879892596122,0.4558612455177522,0.4213217827790309,0.25917196872319237,0.36954772566249905,0.3910087802536614,-0.2321019708189275
0.2589129688118829,0.04396868577023291,0.4011069098881005,0.3526361673814484,0.22541315185388122,0.32007589747550963,0.3575004077582128,-0.2690392305669897
0.1916659744644085,5.618138502048148E-4,0.35399685259375147,0.3041195753544576,0.18714451865871862,0.2868724436526943,0.3122536920134307,-0.19019131071780584
0.30719289079857026,0.03456728620563779,0.49040293193945705,0.44931777207859697,0.2574761630798037,0.360747250499455,0.37056456557736167,-0.2871907534014856
0.31623312415013516,0.008850475528982354,0.4831033400554881,0.43705976149642417,0.25986286736514685,0.35145388138575967,0.4056672221800089,-0.24507898199784298
0.30140660932279734,0.04431570186842854,0.4297108725547424,0.39019773014796094,0.26912531509411763,0.3503372911213744,0.368576888608515,-0.11391623734194499
0.2399898306820363,0.08395359066679138,0.37681040880919764,0.3184487049438326,0.21435322585230454,0.30321274676294657,0.3197603422450693,-0.09570269193454164
0.29905549340975573,0.051249209827360025,0.46022574089871787,0.41422919769179356,0.2553826428198598,0.3371862748534998,0.37779865055756473,-0.3258914671579286
0.34329725968428837,0.03645210555188543,0.49072886580274555,0.46062269656347543,0.28727867108139205,0.38205049289072474,0.4410993428698952,-0.3441360143930647
0.3243155331160934,0.08104296410059823,0.47244323994923454,0.43384247663227515,0.2925961509543804,0.3881689100442506,0.4237162613524022,-0.09851092971681974
0.2828067400473961,0.0719178687802861,0.438084695477227,0.3923429831372374,0.24769753374737766,0.3408998775546475,0.36822285585822656,-0.04911800650391591
0.23026733222636822,0.08415802430240238,0.39568390368757145,0.34907820349637503,0.21277839801207904,0.2858638182869962,0.3371251330124473,-0.048269825308078974
0.3462535674596363,0.050159391731938084,0.515402271338176,0.5158581761232599,0.337992675911182,0.42456909480818444,0.46633779336987874,0.09397055155713151
0.35420994224347513,0.04095577628636417,0.5212375239550865,0.48369128893074337,0.3224381059661438,0.41459364540887694,0.4605880072710145,-0.05095779010418202
0.3231467477117445,0.012393980266752204,0.49207851199185626,0.4541341565302444,0.2912973694069903,0.4038024578674415,0.42273174442700384,-0.300268499569029
0.271466005079561,0.021333845622954758,0.4162431605342383,0.3940319061196601,0.2525775653400229,0.3553783777073191,0.3783280620242516,-0.248619763477487
0.27029323394624877,0.05534812382215269,0.42818611815945323,0.3876109925241198,0.24735663035197525,0.3354014409121121,0.3722468039429543,-0.07352321369823707
0.3831302139209677,0.05075548017824353,0.5311030194763937,0.5123310502057291,0.32073821038054645,0.4424057632666983,0.46314698344025396,-0.1908921873296906
0.3595175318454641,0.004864402343267165,0.5240720387069927,0.4846031656080155,0.29776916089646743,0.4235160545280932,0.46720483118497885,-0.5236407665267349
0.33796561404139924,-0.00533315204410066,0.4760864254801092,0.4547517778801398,0.28234857856704076,0.3872299543558414,0.4293892008106395,-0.41879115202364786
0.2900947973213427,0.021647235783156683,0.4307022257560346,0.39369435467636954,0.262817389589704,0.3660032349812654,0.3862022511022565,-0.3273312255923649
