-0.09714000513395865,-0.15646908013205152,-0.10105390440834985,-0.10197548548084973,-0.003956504202202945,-0.042884304873963205,-0.05610259350645187,0.24316403431977546
-0.14503824662955486,-0.16348464622312686,-0.15178945257682214,-0.15861608193915655,-0.05453564495883389,-0.07472002486696902,-0.09957747198917843,0.1381956250958397
-0.19089417573575926,-0.17456340241901735,-0.20724930811497272,-0.2083954145148612,-0.0806663818228843,-0.1139020600776328,-0.14790504127413537,0.22728942691899684
-0.09552142833321595,-0.15387326515592584,-0.08739249108797706,-0.0783443882233375,-0.03108308967535814,-0.05512834829720718,-0.0806024046643637,0.25790228011675553
-0.071420290919184,-0.1586917965375254,-0.06593722098708296,-0.0657076867719279,0.010408666015890961,-0.03539022901939805,-0.05755546648688689,0.14181184606468009
-0.08919838188948598,-0.15385916811154113,-0.08402367499154764,-0.08674416088560472,-0.013784445172445956,-0.0421707088804732,-0.05341072912536307,0.20969717698757576
-0.13800915305453335,-0.1525446023617946,-0.151322865162328,-0.14809872727797727,-0.03488783745773731,-0.070879053693277,-0.12161039586822678,0.16808535048280462
-0.16172442814301846,-0.14897762474295922,-0.1643997733067436,-0.1597367972444843,-0.05899756794322643,-0.08153031860038644,-0.13705945466154684,0.14112675010004075
-0.0379882029154527,-0.12847687592346352,-0.043506787151589774,-0.043154196544994236,-0.007717835075126454,-0.010164615660800352,-0.049415856549376025,0.17368512976510106
-0.07061826701243157,-0.12187721742674652,-0.05720125324193931,-0.054060339361423106,0.008781087061655236,-0.007224558302937562,-0.047625958589049715,0.08459223720012016
-0.08635628955662931,-0.1519494995941724,-0.07775014659435409,-0.06954297879037667,-0.005794534398603397,-0.03362119618556082,-0.05337657052682468,0.15569097083777467
-0.1292702330052516,-0.12928561957891063,-0.13548951297798123,-0.12847942166334703,-0.05022331149022448,-0.06868260986423716,-0.10396144557184839,0.20684048913822006
-0.03224717813359626,-0.11818433300631913,-0.020971065629637266,-0.021261384064587822,0.02017148286625399,0.01661064567657063,-0.03284268596511156,0.20873127814966963
-0.03485198223716906,-0.12881031116329247,-0.0313357021883738,-0.022178318476501438,0.027740125903626314,0.021527353535763773,-0.014546366658348162,0.26139084749468144
-0.06412024635145959,-0.10914985486254986,-0.062424357150145555,-0.053707134894739036,0.006152743619374315,-0.006526564971464813,-0.02031377717315479,0.15017726831342496
-0.1133872325298325,-0.12246180311090762,-0.11802177230038777,-0.10740599274294031,-0.018738389577854328,-0.0301773141732821,-0.06415162740677308,0.16030277272388732
-0.03180546810849526,-0.10991807679310617,-0.009292623838155597,-0.009135971165024698,0.022359225958103683,0.018543872347622857,-0.0019985050896409486,0.15941207562899457
0.0036546624553103323,-0.09590729629727412,0.005633855680138928,0.019902343889747123,0.07586366615619364,0.05862988123114715,0.05532877518344899,0.16797895721035103
0.007043723450567075,-0.10606219339577583,-0.013348117131813237,-0.006895566919317395,0.055923990095174625,0.06104207997850081,0.061367643441982166,0.17142132251914546
-0.04961595045110869,-0.1336491999447253,-0.06051749229053978,-0.06965890727042695,0.016608950811868244,0.035488695368496165,0.02459709411160281,0.1441259875256925
-0.01599915855733297,-0.10122244981127605,-0.014712205115361348,0.0013201675826611803,0.03848625016654508,0.06227506183256525,0.05635729494710987,0.19844365996105717
0.035826571045852386,-0.09862740544575067,0.053808413160330346,0.05637229623759776,0.08726426625405277,0.12439232211949823,0.11418561997856073,0.19295492421726407
0.023981675231114906,-0.11967323968320247,0.032658776637774056,0.03951041331170893,0.09085064386400696,0.12443499024128861,0.11717926958212678,0.06154977740842439
-0.002759156065998289,-0.10172345645735519,-0.01737994590840023,-0.004059093261139082,0.06580575348338527,0.07960072314170621,0.08724406082475625,0.1823110096502778
-0.04781076076892408,-0.11493759331283664,-0.05559365284135721,-0.03944555596629713,0.022901061437943078,0.06057295130714193,0.03192145949025893,0.12788750811520747
0.06255795499721838,-0.12189705558550042,0.07173427671364876,0.0894275197809142,0.1078492165357513,0.14588920435273353,0.14631470790930196,0.11307731199349419
0.06948048695451706,-0.10192258168220794,0.07187915298971756,0.07159630061170213,0.13179612250988132,0.16364452877354854,0.15907455128690173,0.0763631815016674
0.03714661988650213,-0.12619409001538262,0.026789708449296158,0.045876101411937875,0.10411258299152527,0.1216045385119482,0.1410160947005634,0.09185618573300323
-0.007881016359901526,-0.11853943498314252,-0.01689930580720079,0.0031390362630197843,0.05640615140459171,0.0898269744356197,0.08772322796919076,0.1916921248972248
-0.02473690474186289,-0.12632111962963935,-0.03607112008499864,-0.01925106420491876,0.045339398539726586,0.07340503217088319,0.07186943290822045,0.13846186563041196
0.07599644600528777,-0.10748299327692118,0.07887712364437145,0.08421250889676432,0.12660543254536402,0.1585125574108385,0.17596484520951103,0.14291248410590907
0.06088075745515587,-0.12152253935138366,0.050636455766079065,0.07559173793874883,0.13922401848637847,0.1452464498532047,0.18430172550033488,0.09785747522645794
0.026890102998671447,-0.109271486854112,0.025946396515706606,0.023273973691222402,0.10378182842523252,0.12081983737801784,0.14176768124493322,0.07589314436775367
-0.01200213186775146,-0.09248911394960974,-0.024752945699419895,-0.03535236419516053,0.0668839502652229,0.07253611707266011,0.09411408953043601,0.12806725887024523
-0.004568062536855169,-0.1136709365024359,-0.025246370888958446,-0.015683252592154737,0.05655054708580291,0.07038986183674863,0.09602270951089732,0.07270926666365747
0.06321796063386823,-0.09639400971019627,0.06494295552780877,0.06751129632475665,0.13824309638659407,0.15340751136707148,0.1677803482485415,0.0760448123623701
0.029372046033902425,-0.09590778526509172,0.03991185607601562,0.03228693571751111,0.11996661070350016,0.1313224422277439,0.16952984060624252,0.13619467222709608
0.010720712139178521,-0.09598068767000507,-0.004153411841166084,0.0016977616169111115,0.09420632261503135,0.11071424825042275,0.1238029483577203,0.18572253075113043
-0.04438608628383202,-0.1155246180330497,-0.06802830700308214,-0.05946392222035568,0.05651159240957025,0.05278650099923121,0.060528377396138706,0.23731658319928245
-0.056290585977951016,-0.1328139684500158,-0.07425291512577165,-0.07344355279634492,0.025710855978692132,0.04730108579847472,0.04912790436356701,0.19865992738903054
0.05564722465889435,-0.09510107111059546,0.06446115906256039,0.05937850276991133,0.13898647492675167,0.14488086217576596,0.17405936941536035,0.27989753016227303
0.0385992188010853,-0.11439058260665443,0.05771144004756899,0.04037096084339081,0.1346090008198383,0.14454421887865185,0.1583227331370847,0.19126479004349706
0.015712973065539128,-0.11401093133555541,0.009350715167241501,0.008404422028068015,0.10842926039883248,0.11209443722638973,0.13382692850873693,0.22981929354997319
-0.028978325213938352,-0.1284335232689133,-0.048275641987495996,-0.05578083338257116,0.05468333436052898,0.06096401656471953,0.07648398015534104,0.12070376763741286
-0.09844109207573862,-0.15562539947419182,-0.11096981588957605,-0.11689727985031714,3.467066088966933E-4,0.0031373092308501823,0.00931322616225045,-0.01633648520760601
0.008788721953950588,-0.15537336619242878,3.3339772101286663E-4,0.007830483820838369,0.07485013088730649,0.06619236583736746,0.08323708147599812,-0.020853801281684847
0.027525326539603975,-0.12288486127471196,0.024332572706785453,0.032067219702674316,0.10336243802124917,0.10481127250010111,0.11798732041822457,0.07146441218268214
0.00708913015835522,-0.12642162870785664,0.010052950299122627,0.015467262679870933,0.10687243245315343,0.10220722810166549,0.11491721576820735,0.20403418328250772
-0.03652852286131999,-0.11515755762487494,-0.04542769729970461,-0.04727413416267406,0.05451831589062682,0.049728748949670554,0.038116895034949624,0.08927243216730299
-0.0899128859537795,-0.133218673802746,-0.08729944159361316,-0.12527305894854782,0.01024957313009306,4.693385582721643E-4,0.005120298635840466,0.06683642191811018
-0.07851788355628851,-0.1518369780192834,-0.08992589668593107,-0.0913384024900714,0.022632801405377326,0.0033036768746889586,0.007492304839527501,-0.0704914654487289
0.017119781604782808,-0.1088413401958197,0.02397460938188796,-0.008984720753730482,0.09685932406252766,0.08972563461134178,0.07149889984446804,0.10761521083048912
-0.006143296079980987,-0.12905842851169877,0.003651574927203187,-0.028494363185898097,0.0621533973528274,0.05927424538109055,0.05079682797016083,-0.011137475919136365
-0.05819240896956655,-0.15234376352137446,-0.06302400507863455,-0.07407065851610997,0.03858478608471594,0.03195497501331988,0.025581982795007292,0.1012918084200987
-0.10199237877228817,-0.13331519152543,-0.12451664346767857,-0.14888035448903217,-0.0121303405299062,-0.009151902734480948,-0.04179642720921026,0.12359254078679308
-0.14733123354778271,-0.14880139143253046,-0.15927500999578892,-0.19670150299587996,-0.03770294844251294,-0.04397553502482053,-0.05146401320813649,0.09756336726533854
0.012200366424589583,-0.0903628430297301,0.009316503101634711,-0.016777794727996564,0.06545980919265507,0.0506725651994335,0.06158833033152662,0.13829212701425406
0.011387385480759956,-0.136715206438912,0.004980235005138528,-0.013955330987584433,0.08640710229046114,0.07604540633564362,0.07719498876182547,0.04889350049916343
-0.02887161568049859,-0.1381389812184059,-0.03805131559772934,-0.06514710046931245,0.05586363858105002,0.0560436736751803,0.04707519140304452,0.0071253549061563275
-0.07440436382384338,-0.14968079547453467,-0.112622551032881,-0.128746008441904,0.016693593621900597,0.0013820227974243662,-0.001907368211291685,0.03657649844984961
-0.1355569806376067,-0.17274965561714567,-0.17996446894070378,-0.21825981088187402,-0.037918016879010405,-0.05971204352188359,-0.05391612315803916,-0.019423330278785376
-0.04288189590765626,-0.15256190087099541,-0.05430969251759342,-0.08658536664092341,0.0208304502715564,0.022304262402637644,0.00391943053700557,0.06581415661085449
-3.2892715674231326E-5,-0.12702382767272768,0.0026139264400616563,-0.034619700462886774,0.05568018278798918,0.08062488404059798,0.06325702897295737,0.08086211763649179
-0.01356444202586943,-0.12735478004764594,-0.049637194717021604,-0.06536131899648277,0.03642469068555075,0.048822928620647535,0.06001182846648075,0.0885083414130646
-0.08253458822496514,-0.10693915512337966,-0.09793589517830886,-0.1311552450621465,0.014061568926901349,0.005652140001004776,0.0033419879779056187,0.11039392981213143
-0.14409501517947082,-0.1540360093183444,-0.1733959275847537,-0.22762061227061522,-0.03559214390604625,-0.046787533927206526,-0.06763874287760584,0.07513960151123722
-0.09521824011785411,-0.14437317801478317,-0.12564131087726238,-0.14184168612474998,-0.023537124764335872,-0.011289943628275007,-0.021395340208257906,0.12487863061169449
-0.014685067472903015,-0.09919096916923194,-0.034735808441694146,-0.050214355371350175,0.030732846987035867,0.049727155110961804,0.043363585941428084,0.1866698861063534
-0.02996424801356708,-0.10585331464230628,-0.0484787125788362,-0.062515546366114,0.012130137290444992,0.040872006207949514,0.02203534080797888,0.09650370966102059
-0.0652661770946273,-0.13512428161299975,-0.10863938867772242,-0.13454996591224372,-0.02438290387609775,0.005995547085747156,-0.009551013006765849,0.01820770705406851
-0.1385528890278731,-0.15724918635134771,-0.1713438926803651,-0.20701476295544602,-0.049059821322831515,-0.025380298624141186,-0.06269825604816916,-0.009661457011714756
-0.02729958677590936,-0.08941276050931705,-0.03818135304391639,-0.05373159774958961,0.005750108083818855,0.016628944609456707,0.0012544735973054194,-0.0202290202962795
-0.002916682733026839,-0.08504414885289265,-0.019458933533824434,-0.03305200492141468,0.04530583421720891,0.05229491690116384,0.04334520185443372,0.010324854771933996
-0.025385618909149192,-0.0730546950999106,-0.05097303669211177,-0.05436119804988398,0.01729773624746575,0.059597938668721484,0.03322022249264192,0.008057616775506829
-0.08059410190855089,-0.08375097556846617,-0.1059984309886999,-0.1164588369127659,-0.028780053513401224,-8.139990772209164E-4,-0.01909733956700628,-0.03242859683718306
-0.10385372765569612,-0.10589411414308637,-0.11873356298147217,-0.13666855283299228,-0.05636378295259899,-0.03170440571281926,-0.06573671264913636,-0.09427480802141303
0.022978023706950176,-0.10279739296676643,0.02822330422542904,0.018258323877290594,0.0394441485784338,0.08758124766289688,0.06031900806690499,5.276698680272856E-4
0.01390960944395905,-0.08408888300045048,0.008345767621902582,0.01019867673757259,0.03893238598196387,0.09531660628612919,0.07085967993863075,0.009481403175636043
-0.008277185861059508,-0.10031879970945272,-0.025313032744120216,-0.02116594798411202,0.027011449040271432,0.09049372605462375,0.04327598236892191,-0.01117418507323765
-0.06711292776952738,-0.11917046707175845,-0.09686499393622146,-0.08503569707301227,-0.02117949268482269,0.022898830837663284,0.014639450338213095,0.03830213030248467
-2.7968351441495093E-4,-0.07296956776788363,-0.016961532810963853,0.018580875187243107,0.016727894172189176,0.05540049720404588,0.06585969848191435,0.05450510528815666
0.03451618147288736,-0.06262583408728177,0.03949990834423628,0.05302804917516177,0.07412123888066714,0.128274055653272,0.10683790877872298,0.07526639927425763
0.03242251888551971,-0.07271474764250008,0.02171618473298488,0.0522329637593332,0.07394464909190858,0.10419387031581576,0.10771929520627638,0.12603917891623204
-0.016984932731365074,-0.07778165069403976,-0.0417387136139599,-0.01881126042603913,0.03230134181357534,0.07884708430182903,0.0649271852327298,0.04364390949143915
-0.01738109950368127,-0.06237033470400442,-0.030075006952003484,-0.020845513728843634,0.005259457386531826,0.055633808048992796,0.053324800904876485,0.029751753065003602
0.08401567260410615,-0.04575224498763554,0.08383417402466203,0.11534576193473838,0.10451974841069209,0.14083619984173312,0.1619710003155096,0.19994440644978753
0.08119917670841945,-0.04596575957366522,0.0770382051854386,0.09515493946290869,0.11935913682255664,0.15542268327054,0.16561061944075994,0.0771861022818429
0.04709933155422652,-0.06069379365992096,0.04053806312228336,0.0789713281654282,0.0666175593471805,0.11533766313682547,0.1393369304669293,0.07044089676540224
0.003975062472398417,-0.06783134364345343,-0.00865891118767427,0.009001580509001655,0.03764028309423231,0.08288896132786386,0.08688605517700725,0.07395781066319855
0.0664737405045285,-0.046810868279226266,0.07917140173575796,0.1017967613593935,0.07848667370766192,0.12471080307799992,0.12417963662430223,0.025084765010660294
0.11718767244257679,-0.0452643544373034,0.13155806610593704,0.1691431512947299,0.1318435181529525,0.19398381330204728,0.20931940483823228,-0.001642460154630418
0.10936237124732202,-0.03685601241082618,0.09946486874635127,0.1544697906802085,0.15496334452990662,0.174935963374431,0.22241668175844562,0.010383541855408981
0.07576029189769116,-0.04658968359406375,0.06913912455614704,0.104520335976593,0.08019264856969922,0.1369471255038069,0.15339389735089282,0.021441817388928773
0.03233274877518282,-0.04791173759387731,0.016643505684065765,0.048871787591138485,0.04758866210325535,0.09151056226885518,0.12260559831642623,-0.03837425538933617
0.11202878452462,-0.029042580663693262,0.13569957347029243,0.16299319611893215,0.1283185066542291,0.18165756863851296,0.2261604576462911,0.04550377398785724
0.13427536072064303,-0.03063320552206346,0.14096123367854202,0.18656666955948897,0.16720555070036353,0.22263033881320632,0.23947860578094055,0.10780843784052965
0.12045260543107238,-0.03192505966328289,0.12394098413742498,0.15921658973259523,0.13778270391536604,0.19072126704245643,0.23026630345047952,0.10227690917084108
0.06309626203132251,-0.04671773629197303,0.07479473299607015,0.09594653391316621,0.08024260110508613,0.16290153385482725,0.17331207656604516,0.08233432147867079
0.022518614242199586,-0.018824322958165843,0.020742429672445925,0.03957585560851774,0.04643283581274485,0.10780441577381697,0.12965175794300365,0.12135496011385558
0.10842981785339137,-0.03165830846423334,0.12255186416040273,0.15711218887744707,0.12897370885853568,0.17880998256653594,0.22291751559317555,0.10166383305305947
0.11405000387713292,-0.041379302971369686,0.1291364483354585,0.16658534884626663,0.15164589871335907,0.21307729269622475,0.230073064140858,0.08776992678087131
0.10636699996617491,-0.046930917388515125,0.10781131112389285,0.1368617286806121,0.1363107071476901,0.19451527468981442,0.20908828642993088,0.03981843665870495
0.058129764746436816,-0.07254985456844891,0.07402762240359077,0.07260402191878401,0.09739256165796391,0.12726019641455869,0.17057165508507488,0.06209452887451145
0.02101766166346889,-0.052369155533851124,0.045616797604481424,0.0588097946098908,0.06991019079728095,0.0992324961410217,0.12512375007254745,0.016174361565181115
0.1332462185706498,-0.036243032449814166,0.1654686491081079,0.18167839745307163,0.1801686677426143,0.21610973214356466,0.24328150919838226,0.0646046524755438
0.12430856937063048,-0.03431482281525382,0.13861801635800575,0.1574618366552749,0.1485115821385236,0.18379004692942963,0.21855523866875876,0.028970157651128363
0.09175704555578075,-0.03253938990822349,0.1064010401231868,0.11186073897456301,0.11559213176955037,0.1645699553120097,0.1862223832097375,-0.0850320672378119
0.047676875267885235,-0.04629430017295139,0.03485997173839944,0.041345933214162106,0.08555627319896653,0.10845251182736725,0.14895008205760152,-0.11518125075144639
0.04446269250947674,-0.06349195398924122,0.044610214217013874,0.06112107261624558,0.0744549099463805,0.12042514492636544,0.1327361206896034,-0.0076362869349759326
0.13722720387948845,-0.01715286938475734,0.14013549319302077,0.16105065086183248,0.16987776279873107,0.20668491530159294,0.2190138184816402,0.04681341256019896
0.11224025624275498,-0.04028335781109055,0.1277365941183693,0.13742547315782644,0.16149075719750694,0.1998354361035885,0.22941346687825012,0.14447999206146828
0.0706511412065598,-0.03589356280333541,0.0860013745617017,0.0842213510011805,0.12433842828864819,0.13888396750359955,0.17794013029898822,0.09281807533665784
0.017579280157291478,-0.04521190152387308,0.02289400724085805,0.0033095390473997233,0.08282554391214217,0.09141120242021025,0.12088439665716054,0.08002802230656272
0.039485591380198304,-0.026999956225104357,0.04082970153530588,0.043444917242524084,0.07197657479126049,0.09474763596208222,0.12839839932787422,0.10065294681472746
0.11006497969286042,-0.03852887581388708,0.12703967103299224,0.12674063953868078,0.16968316448954768,0.19748605460360608,0.21573360036670408,0.07475577166884033
0.09159172666525996,-0.027612674755675963,0.10814355134147821,0.10629427226055255,0.1541966931667759,0.18228771255169268,0.18795805373837343,0.044324295939134624
0.04337438571616486,-0.0474255092351969,0.04432531816818422,0.049051669422259886,0.10720861925686904,0.11273116239395625,0.12759901683003266,0.054130209615437665
8.105514486085284E-4,-0.06686731913379194,-0.01143769256003764,-0.01192239462308567,0.05301405696255175,0.0745720744409547,0.0647305790566128,0.023705459393520045
0.05383616235445743,-0.060733100231329856,0.04385593828722836,0.04618123431176949,0.09042912219544069,0.09496854428789439,0.08968928635238148,0.01329460408343503
0.09084793835041377,-0.03706113963225536,0.1039871659932029,0.09557072877030501,0.12908466916043027,0.1554291563801364,0.1593293904758394,0.008608402847188092
0.07043907392951027,-0.0532100623153977,0.07857333344922192,0.06869420775425808,0.09693637290563359,0.13045146877071384,0.1400402318699887,-0.028044268871224232
0.021020777112053177,-0.05314052869076718,0.01610122450473063,0.015728438756046348,0.06132885229509146,0.07574381923141361,0.08428902824384477,-0.0728637168586438
-0.040143413746142255,-0.07224623783411947,-0.05240256095247797,-0.0641356267256304,0.02143822544495093,0.031873233634255975,0.03372071763640297,0.001597541105999488
0.05746704406310066,-0.03741546809581141,0.062496816822347756,0.074575545833302,0.07300421295280365,0.10991163679581059,0.09990407490776385,0.03598420926560183
0.10351224206857576,-0.039398852281563326,0.11276577387385994,0.12249665968278325,0.13213357529680347,0.16700621459746887,0.1561457299168611,0.05035229105852626
0.08012688741533736,-0.025200309217102985,0.0910467336121592,0.09688523561099396,0.09980140655012185,0.146133117347425,0.13844694061533186,0.0256290465270386
0.02047213392374228,-0.019213292365382925,0.018397280524028836,0.02327624822269997,0.06317181911398334,0.07865158779683656,0.0873259557414647,0.04596370714236231
-0.021242216988121777,-0.04972700934198572,-0.04814697150085626,-0.033518224991327034,0.007707463271352855,0.030008022415767097,0.026231781970581985,0.008801037979270614
0.08833373417058835,-0.030497024939640648,0.0798634151316249,0.10695528778139479,0.08219803978766832,0.1188154813507109,0.12136367087554079,0.04634019134917103
0.09716411981198977,-0.00230553460979048,0.1015201444400498,0.1064186325388626,0.11760071920954494,0.14653914584450248,0.15196957644021997,0.10063694998247052
0.06053121561541386,-0.029972615650948324,0.06481200893989243,0.07477851373674008,0.08615170238917119,0.12380604525487614,0.11072050929756949,0.12769480592604074
-0.0027243725691655438,-0.024395018980087967,0.004515910865638059,-6.841858036810144E-5,0.04913194333598881,0.0628098834854191,0.06054071218464957,0.12339567016927504
-0.01095338941658773,-0.04009761764255979,-0.018499169719234848,-0.013137881281903352,0.01607266355900564,0.034477431548540424,0.031698094158489565,0.02470537798122028
0.08847488147113808,-0.0284611542512958,0.0844202885696586,0.10566887772137376,0.09126505163601313,0.13336725352890966,0.13074715541459145,0.06115344595296744
0.06815378786088094,-0.014690947792886346,0.056633246207176496,0.081036003122406,0.08342947545026999,0.11811881535558935,0.10913799769672958,0.04384023481480828
0.03384507136401098,-0.03324571554415634,0.0188530933453238,0.028123635434346622,0.06322066637450244,0.08120338603244565,0.06839462792260785,-6.475799007629734E-4
-0.032769341662214235,-0.0593840867176814,-0.04959888415210814,-0.04569521432492886,-7.977752906675392E-4,0.03661705376744728,0.0155210999025657,-0.00895926738588955
0.06139889378544246,-0.055142666681433056,0.053404170841473156,0.06898805342197956,0.044440876168335315,0.10101863135700821,0.07911925100479805,0.11895980642861248
0.09276544978142999,-0.029908356666550725,0.09939964491804006,0.11836043075928829,0.1042027378947184,0.14866621270420893,0.127831274259941,0.12985959915269668
0.07374671118083775,-0.03677939427259705,0.07655984223063347,0.0765592517120878,0.09366799502044712,0.1164242910423257,0.1318322369033397,0.17282592913702383
0.029839683597066707,-0.021546948106822367,0.010337732930903523,0.024001565818031645,0.052511547965604914,0.08542352377532711,0.08136682750815055,0.16473270157086795
0.019220862138405514,-0.05161239336596176,-0.0040336876851739395,0.009705619477078459,0.037777832082557555,0.06350316455761781,0.05274824048600249,0.09899372699947429
0.11412145037408125,-0.010987201407900367,0.10978415783455217,0.12930767020233214,0.12866944042067263,0.16821216308896114,0.14521996051516267,0.050623007866611794
0.11175175702829415,-0.004243283681346381,0.10627389994967146,0.12674268234490974,0.10407380599652008,0.16460107351584,0.15159742021965544,0.09687266400809875
0.07845929778117917,-0.020218797179422626,0.07318383818737127,0.0763979380134383,0.07179532714572463,0.12326469639550178,0.12290587181683474,0.1178579052855849
0.025113406670556032,-0.03855255664747198,0.013853294366560076,0.01868649720147464,0.04892232785398498,0.07627892080252922,0.08744641534659686,0.09739588001259601
0.10095797872214124,-0.03564558801939839,0.10649362350654658,0.11379103116896497,0.0834647912609338,0.13946236267238177,0.1416913279925298,0.12796637791038928
0.1169502509176113,-0.0428929938425529,0.13506283067349384,0.14393717203958345,0.12045230471157826,0.18482383444537098,0.1806044662793322,0.11688782576649706
0.11197684411183796,-0.03054806396736305,0.12063932668824512,0.11966717543368369,0.1143190786114675,0.14898411830349578,0.14520785956471186,0.06705416309770959
0.07151549673262339,-0.06828147668848057,0.05571690885065361,0.06910581714533509,0.07992970265218959,0.10458727020149247,0.104680313317473,0.11856055336364174
0.0920389451782288,-0.03741216932778883,0.08041261769356353,0.09797241230101852,0.09280747068916954,0.13394037502620817,0.14467250054830982,0.048163592729625476
0.15070109095666678,-0.029582118273520724,0.15424140214067317,0.16311637478418042,0.16421354789713571,0.2095775208461501,0.2160808408150353,0.07319132731437861
0.1402899019891393,-0.0345121853777348,0.15552014138577203,0.15724914229890022,0.1437193848076205,0.2027025546699706,0.2032278021555677,0.10226129984423526
0.10901860227740265,-0.03672078759309721,0.113275890676402,0.11419407949644594,0.11591517934018772,0.15036178094545638,0.16387078039974834,0.14768560848924372
0.06544953780296339,-0.04830897011531404,0.06310048050203754,0.07553605296461441,0.07284413160280129,0.12842506707611048,0.11667991277173896,0.0828804502958616
0.17117755767549248,-0.014147044173524071,0.19478244243583215,0.2083373789356167,0.17700381276073734,0.23240736831866682,0.2513182406524885,0.10577968063413766
0.17481746224571504,-0.03222173570136831,0.1993078449304179,0.19874288171688137,0.203624324190287,0.24246817836003837,0.2454629892048976,0.15286835846182928
0.15875954886149585,-1.9638215867558498E-4,0.1705163597895734,0.19634961106926255,0.18138977334571382,0.21600651149817954,0.24365360820966941,0.19219691409479106
0.11142873443074278,-0.016342073470371622,0.12272190205299258,0.13077926950735586,0.13352404481270286,0.17796908289128982,0.18949704177379434,0.2378246300863059
0.10497215479943703,-0.027154222858782655,0.1305248631803846,0.15295913479526252,0.12523024823755025,0.16714604530562893,0.16985792277572276,0.28093274057031437
0.19041209178468144,-0.0233037889273323,0.2321940230201724,0.24844543132413627,0.21176039504093122,0.2651850795016865,0.2866553167962066,0.2187063557115318
0.174506497344542,0.004231687876927369,0.21582836027400026,0.23347750581944055,0.20220144379809438,0.24228018798377612,0.257767109185555,0.20570875359058233
0.14503295957651718,-0.004787285935091628,0.16875969985586314,0.18970291738609527,0.16723215048645113,0.21810287624068236,0.24317525281850275,0.2454174412619532
0.10764154010736883,-0.03654874476705747,0.1137468606618281,0.13048887517411029,0.1139509062324863,0.1443959569699405,0.157049673286543,0.12383965233342378
0.10835098002653679,-0.018538273920968962,0.13227190717331405,0.13710029663322418,0.11846576371669246,0.14750390146983658,0.17699547414267863,0.11435154566553013
0.18719016338253822,-0.015942589603212102,0.20186424472651207,0.20506545680445595,0.1802394136921973,0.23341398483915626,0.2561333343713773,0.21426472749551517
0.1641086541393269,-0.029385432702783553,0.1757164272063162,0.20209071015509852,0.19492750932328254,0.23026598798255463,0.24372262737051797,0.22346932236149844
0.12953148067785042,-0.02599317306637848,0.1409051736280055,0.15789841598614845,0.14395100842528855,0.1843879513022762,0.20243488455688635,0.1257126796194095
0.08164489089256195,-0.0320150167682055,0.08185164590746674,0.08787816220185996,0.11056654367180505,0.13156577086388094,0.1467707872699789,0.14500326982778589
0.13096241176327703,-0.005679820121141765,0.1486978996636957,0.17183987893061697,0.1398859843041201,0.16487818265590454,0.19573564930313037,0.2065248262468319
0.17144316830507672,-0.0091128115195005,0.17292905143179188,0.2151853228307865,0.18732707490703093,0.24530219606315007,0.23364843808010766,0.1190537405475437
0.14317006911135216,-0.02203022785036913,0.16244991786351265,0.1849369191168746,0.1636991492806058,0.1989144620573983,0.2097424464634482,0.09264415641216939
0.09458691738741273,-0.0489436051790065,0.10780075657819818,0.12738102047767397,0.12359606377182336,0.1489268900328229,0.1548662901813091,0.09825021343982154
0.03552678220096133,-0.019041209314779428,0.04595557955228921,0.04386632555413017,0.07043193311221566,0.1033889911993946,0.11145988011901299,0.10274921708536075
0.14325935366348835,-0.023785702283356948,0.16560753380749882,0.1932353309340671,0.1504776498862758,0.19095970140521112,0.19483983267724952,0.15641279328732927
0.16320344891563118,-0.03070270216432247,0.18597014008086762,0.21511055365114345,0.16991806803716364,0.22050082777490643,0.20120736114478985,0.17672007351043842
0.13127759698408267,-0.024170255662877067,0.14791569785950143,0.1828267658898766,0.1792406023214198,0.19680015374684234,0.20654259259783325,0.1732159356477453
0.08653522980616393,-0.03894640138848999,0.08290635602268484,0.09951675431990412,0.10824839904539298,0.12880798743274485,0.124668062941966,0.131240615378528
0.04367915068727882,-0.04010372893797044,0.028695882025877778,0.05489073754280635,0.07382538702537203,0.08003243741055564,0.09089085185457701,0.1652317356503188
0.1524734742709775,-0.02110080514968843,0.15889920996810875,0.18340407633376987,0.16466767119318,0.17396706198374093,0.20313153026504824,0.05738235993742245
0.15080990388768886,-0.02874318784791806,0.14651941895603335,0.17730885208081634,0.16099230042803178,0.18057292600614924,0.18531549243627565,0.025471273956934173
0.11661226541965015,-0.03479657312755688,0.11063791241327289,0.13411968582595082,0.12359997591259274,0.16030049363107313,0.14166840104731848,-0.039455271125452746
0.06222303707942321,-0.046327243186051234,0.042595852676966445,0.06871333094734572,0.0747622876793286,0.10401174145624126,0.08976672738785663,-0.011377095772863461
0.07565880331635648,-0.03153534261446713,0.06787070111244956,0.1035026054099592,0.07623936341964457,0.11364270422733645,0.08597756740795123,0.0069291123539957575
0.15949932449895132,-0.011162960934116,0.16193103814744259,0.17149819276367811,0.15484314404713093,0.17912424223731352,0.16928584280331066,-0.03160440051731553
0.13013969762853272,-0.005516974360937517,0.12335941748315238,0.14620890573475687,0.14275574655253914,0.15906415189618678,0.1728151080873381,0.08332141463023665
0.07695658763971217,-0.03566461444761641,0.06076117746115581,0.08247768265546077,0.09102129908765064,0.12119016216514636,0.0919994866937278,0.09226230906083943
0.007731590313232159,-0.05150533737636133,-0.0016847008316178969,0.01949597345298898,0.0402101519009849,0.05567703359102966,0.053495691971635104,0.1442258500526692
0.11889403597531002,-0.039250760662451555,0.1164753729007661,0.16112548890080408,0.1204133125396677,0.14712177718013442,0.15040763641556126,0.1671144300714784
0.14210381737298564,-0.018710052766760875,0.15588877494737363,0.17440737760897393,0.13797460938331596,0.17900718446642921,0.16078472695161478,0.12934364384853606
0.11448950817439703,0.009300685868734462,0.1286286025337086,0.14010309632910067,0.13273025780481196,0.15895425570290123,0.13874865738258318,0.13998617931447188
0.06133314469629392,-0.030033418675294424,0.052263096528533115,0.06684550287530522,0.07191943152960387,0.11324525181585582,0.0862708243385176,0.05664092740802353
0.053110703756058655,-0.05148765131285255,0.04439456919114579,0.06922502710231537,0.0696097189802535,0.10643833485738279,0.08227113464570691,0.09932536368355932
0.15254971718861565,-0.010001030361188552,0.16650264201448559,0.18048091928991117,0.1420974317673649,0.1852503694890946,0.1748843115032214,0.16816447395233466
0.1308424601945153,-0.005158670017865144,0.13569341563621246,0.1507067831138792,0.12672244680151876,0.16502890725885133,0.1632236953963236,0.1291049692964429
0.0882253054538421,-0.032515308413610264,0.08007590608009887,0.08564039302210572,0.10545122406177529,0.12767441830042314,0.10798559636878714,0.15935469759897503
0.037432789560484,-0.053321879591303314,0.03481873573791283,0.043516805987767526,0.04769097707014522,0.08097381976326286,0.0715831386731176,0.033590951667777924
0.14710297362414265,-0.03899355358676656,0.1488855417551093,0.18366922840955127,0.14103156420259752,0.17923753714267743,0.17258768637538743,0.048099991869697545
0.13530553448562538,-0.030382192735511855,0.13450570623602434,0.15058993983225566,0.13569144859393428,0.1857986749170773,0.16074656916276925,0.0051517413802282565
0.0955098688393571,-0.04129326019772173,0.10578037261251327,0.12130958331795222,0.10613874801858106,0.14307027102109673,0.14389647919869825,0.04073128429573674
0.05460233401808984,-0.027833436691067547,0.028437718916886068,0.04455329091324961,0.062362828687527745,0.10347813506668117,0.08061989888421334,-0.026469076203910633
0.14304265191548993,0.0019512930607063494,0.17192082207699835,0.1804999675783095,0.1490001323455339,0.1839413691899771,0.18047803820902078,0.12074366362112446
0.15809989446971065,-0.011966385839041319,0.1673337850302184,0.2053248725292356,0.16694364512323126,0.20620498073999194,0.2008006161634296,0.19144764925610144
0.14085751156385204,-0.027326452566125384,0.14087211988574025,0.17061781968676598,0.14600071334326156,0.19133704069333812,0.19375296188773802,0.14694563827561286
0.09881582466483377,-0.024438424749390522,0.0794891984902274,0.10686364751066199,0.0977341518763746,0.1378750580580272,0.14013898968469163,0.11301616212248544
0.12821014960911833,-0.020496116041253162,0.13535271487069,0.16511247728370818,0.11160316811211349,0.15895670402473738,0.17215837484487295,0.03796770421704567
0.20094827020353603,-0.004663977509830851,0.23330068021280007,0.23575969851727602,0.1962719470918603,0.24467179570020595,0.2498042462915744,0.03371956302959371
0.17847499744030632,-0.02382855282827244,0.1969323936180425,0.2137844283392219,0.1957136989221902,0.23740143953692017,0.2420351898760224,0.038325260965637306
0.12950498432502072,-0.034096448400756436,0.14158907159214776,0.13980574814068783,0.1364879160503016,0.18059316527006042,0.19731820712750361,0.03896592162713113
0.09231446873883009,-0.038720232346572646,0.10000933052318323,0.11394884760740315,0.11736660149220024,0.1417799503634199,0.14571283460025525,0.02418476157039922
0.21195225071996376,-0.02076417945400779,0.2190999305091068,0.2490796165059611,0.22192892545849485,0.2709817034247455,0.27080178170578434,0.07350998260657363
0.2074109561349065,-0.017616110251609786,0.22305273003426507,0.23823039820407968,0.2098549256377158,0.27196049838688724,0.28079620363187807,0.1270704350474168
0.1626728758683338,-0.031276847079666874,0.17608507804756984,0.1907295440783141,0.1817751343860995,0.24402274596102655,0.24325224605640644,0.07873685646436665
0.10858819152395935,-0.03440554964216397,0.1167175761823816,0.12230469479990419,0.14833563469600392,0.17676125934480977,0.20402634121163704,0.017345701531476142
0.13668114258517072,-0.031923851828112006,0.13816837412634983,0.1405157513031307,0.1355306524857316,0.18458938085491877,0.20466788943133213,0.005925693355814044
0.18966631842433063,-0.017311986590088257,0.22110166472807904,0.23456042723811588,0.20030657257305948,0.25443136382362563,0.258466089592801,0.040557127107812285
0.17607454987937005,-0.024160195247508384,0.19804620265286943,0.21894347301596234,0.19722390439681436,0.24843684881079225,0.2672167565118212,0.03288014041602505
0.13664661239792225,-0.03681227237964657,0.14497175595693468,0.15820989476237518,0.17530949353797154,0.21246879693816698,0.23100417841108964,0.01674324227117394
0.10072951167213659,-0.05189196668718686,0.0995226051419845,0.08789711207714435,0.1276386868099255,0.15382960250150646,0.16853853870212918,0.08196597902479777
0.1915741069340715,-0.006209185858475422,0.2105737871354281,0.22942043456935673,0.20546406641751935,0.25837100305709537,0.2774682701716269,0.14173361892779215
0.20008802244675403,-0.012696954424151148,0.20558493371118897,0.2215916988962261,0.2267608283749355,0.2662309244533244,0.27469296404124144,0.10294838535475329
0.17716479436942756,-0.015321764193068466,0.17529534027611585,0.18616279796746876,0.1982214126600788,0.24144925129060196,0.2593287961868774,0.11258102861493677
0.11874194513955796,-0.030527775308610637,0.12385024132991651,0.1215030316527802,0.15163864716220066,0.17955757083104368,0.19412925619375357,0.05064902063678569
0.11408767066000652,-0.02237802915505671,0.11654428388156457,0.12647639349426404,0.13549198327924994,0.16481222425919723,0.19481734351347615,0.014567084746027859
0.2095973060367879,5.1616192450698595E-5,0.22697936741948058,0.23829628112012285,0.22791096674045624,0.26809631048226756,0.2969027503912564,0.13488322855315654
0.19679628057002152,-0.01597346641731763,0.21978855894108806,0.23475472297201772,0.23454245718071676,0.27245262286466687,0.26583922097132284,0.023870985583329767
0.15783316419687968,-0.013078778537007035,0.16568437726130733,0.1767781739361246,0.18359444062627925,0.22677630058262452,0.22337741249543414,0.049618995502421805
0.10846078925925517,-0.050546252476915944,0.11221225610406896,0.11177144588480514,0.13814118023611982,0.1730077706323541,0.19180442267575057,0.026346360608829937
0.1457144312525221,-0.031604725141169576,0.1504474842767871,0.1790480319403615,0.15066638577792174,0.19775170977184425,0.19239863639152754,-0.03634857397653644
0.2011210122234895,-0.02298833066976899,0.21579617421737454,0.2273279994907509,0.22240652966082164,0.2624471526690987,0.2921584297617943,0.07863415357263404
0.17945267177967814,-0.016703809979096963,0.17744725386419477,0.19900264990302202,0.20577598459810237,0.2440938707458885,0.25220260471821687,0.10025332717996291
0.13192087807844088,-0.04736571391165604,0.137851193946642,0.149644987050978,0.15806868759462842,0.1888650809002619,0.1952040304078717,0.03650949980692688
0.08372155691224001,-0.04742125066006951,0.08081978391257866,0.07781104660234517,0.11686637330549576,0.1277473441253545,0.11234511487240924,0.007819234535267498
0.17841874626513202,-0.021857043780605198,0.20560205832677683,0.206049287525425,0.197641318678135,0.21996741347436427,0.20959036473057902,0.11194101864174313
0.18737536425697598,0.0015604767537475833,0.19927747590002068,0.19718082919927316,0.19747149103041584,0.22999199875452173,0.22634788311207527,0.047062033475497964
0.15763501776526018,-0.004015747248003465,0.17095897373764618,0.174652638822219,0.1770489097768862,0.1938470428787779,0.19104455922244046,0.037594808366492025
0.09571824190378987,-0.04812676688872141,0.09969323866172419,0.11410136044844321,0.10981006969597933,0.13517640892804655,0.1343199514539357,-0.029577464054933715
0.10064135116151118,-0.04740804534674117,0.11234625931919315,0.1308303676387776,0.10699853485474795,0.14439523122664616,0.12743206565977733,-0.056428969174993
0.20299861223099913,-0.035027138982307145,0.22621836713110674,0.23990669691791738,0.20150417511534935,0.23131962650891683,0.24320737082381783,0.006908794278652635
0.17735431633928905,-0.030476910651328182,0.20017481874343823,0.21361219518620844,0.1787261220961698,0.2191879718365419,0.207720837891693,-0.009714967672295616
0.1343795610392517,-0.05716170286512959,0.14292375028180024,0.1529540747513698,0.14862985231396875,0.1658035553484029,0.1731763168945893,-0.01867888581176646
0.06682193143785733,-0.060827168848214326,0.07138395502763856,0.0693185590441181,0.10171687550669117,0.10719115674866454,0.09251410859003525,-0.03775172755406891
0.16503021376493127,-0.051655609364189434,0.18417176765191529,0.200067416882811,0.17352408710669281,0.19795380350187897,0.19574496792479418,0.005872279453824136
0.1750442396748323,-0.04995847613084817,0.19383836674733512,0.1902328388604244,0.18420729698008073,0.23478168296584045,0.23313858664142245,0.005552966533810471
0.13645853101931305,-0.0659640784450014,0.15890660113001512,0.16827074619570437,0.17110406571499046,0.18996322650849712,0.17439688764738587,-0.03448810710098471
0.09621381577304554,-0.09540037654810414,0.10797882207672552,0.08378497049914035,0.11633213519463359,0.13152624580115557,0.11804771754833829,-0.18072605931075958
0.12176424469676662,-0.09950460055543031,0.15386335080444982,0.12067114378868815,0.1133157232035926,0.15094579151394255,0.1353970669128352,-0.15754674938706936
0.18158101033602406,-0.07738343255652848,0.19798593077944426,0.2124737078497747,0.17192309965135508,0.21556739342195141,0.20502045722516896,-0.15288397480857754
0.15545194007540203,-0.08565037101087464,0.17242581804697008,0.18719923923721687,0.16829373793592892,0.18258051447508378,0.17450667199970404,-0.15243115333719293
0.10729296099477699,-0.07169244007376105,0.12869550957329456,0.12571581830154271,0.10788629414062462,0.13609584091486615,0.12221442201419026,-0.15894682779133426
0.10166773322105042,-0.11772234784350688,0.11051566135312665,0.10743814233746707,0.08400934433503907,0.11378819715726642,0.08828863968796623,-0.13499534212885844
0.21350600057133806,-0.0772648427244047,0.2357452709476827,0.2575592369159264,0.20305179025698245,0.2337174685343379,0.22617421990274642,-0.08242783967524928
0.1896595919380108,-0.059244229700129596,0.21277954154354156,0.2282956891835562,0.19382025177941978,0.2204035689449589,0.2007592426615121,-0.1157140761171083
0.1540493381078581,-0.0948810560982116,0.17127533225423303,0.17267083021337337,0.13379399836656197,0.18261279599175234,0.1849588693840861,-0.23172027515450141
0.09889631528883754,-0.1244613339240781,0.11664092386223326,0.1201827399543049,0.08140372506174162,0.12534928611234042,0.09965863779221537,-0.412327362381321
0.2025092020705774,-0.11727063443826018,0.24371958142314654,0.2581698428960484,0.16680485657026822,0.21115363203674442,0.21338374121987036,-0.4240058821542197
0.20545213099372503,-0.09961602861557262,0.24282021800840645,0.2548153028608145,0.1721225086558821,0.2456698834128005,0.23666217905022593,-0.3004459016250217
0.17353683006608905,-0.09315607341512969,0.19993354523485748,0.22272040461846482,0.16862497733384077,0.21367254774203576,0.20176644734830898,-0.21694881119299197
0.12950075859014556,-0.0962520603869576,0.141641827020416,0.1417282771855788,0.11750948334573061,0.1435419430381213,0.14443740903856073,-0.3589589136638679
0.16514253722083572,-0.10754777381583844,0.20614143985615,0.20372056737906857,0.15613787351504854,0.18420213357412793,0.16187857226930852,-0.46199981229644993
0.21282384391206272,-0.11515644208756765,0.23840579699620543,0.2346727758978846,0.15748192135120506,0.23127646660266005,0.20932015427575645,-0.5376889349672119
0.1871465679506904,-0.10691150108550396,0.21206846194835052,0.20698848572365824,0.15007802188167507,0.19308305811197785,0.1668409349390792,-0.5809625335800751
0.1414746668045217,-0.11079820859735764,0.15609701456952194,0.1538273666639332,0.11425340397304483,0.14649810785863432,0.1389973678392048,-0.5677027420444993
0.1451232378647127,-0.09091454560915188,0.17832310532654716,0.1587484596194254,0.1117991558336039,0.1437008978154763,0.12594204932380876,-0.6244885184636388
0.210660322415747,-0.11094606772806492,0.2428404372066082,0.2381257570018987,0.1779706749691965,0.22072582389550463,0.20342962374129134,-0.6754529067076525
0.18814912876282908,-0.07603670145776532,0.21406904278806285,0.1956927538317509,0.16362616712653705,0.2054284597168105,0.19851749240265318,-0.6600262837388314
0.14913372903611014,-0.099580867467005,0.16035679087376217,0.1509585258642152,0.1353566950085461,0.16133396022210533,0.1527017413784243,-0.4764930211576305
0.10716075723469423,-0.1564910838862677,0.1153336724815753,0.11033896856322734,0.058013920541627476,0.10985227515042907,0.09748623566531517,-0.6288958076149365
0.20268059961954554,-0.13938289170589938,0.23215437773076367,0.22758534938760328,0.14556086778206243,0.18419562340687123,0.1834820472128484,-0.7613729326340402
0.2109812975600111,-0.16410558104868259,0.21874204783645043,0.2242396170999742,0.1356182108985394,0.18912604067680355,0.17167263980083372,-0.8402534023766906
0.1600714363870655,-0.1373246985716994,0.16899726385359015,0.1881707508575166,0.1236422948562198,0.15521887317133876,0.13812079515247283,-0.7413145303954678
0.09865411688205306,-0.113520292065909,0.10824418121768933,0.11276319106731503,0.07541104013625252,0.11165512165899086,0.09635242553112375,-0.6685311663544395
0.1183017776913119,-0.0890656558412823,0.15136812802566632,0.14334255364735482,0.08061140013234369,0.10711202833248873,0.10504867170388796,-0.5716853845130646
0.18865314465400182,-0.07638086602120193,0.221423348523951,0.21339500399064293,0.14555391171277077,0.18337612088944077,0.18400463552458451,-0.5641408305345207
0.1734234702999718,-0.04060476817663283,0.192247915823646,0.1819288233190044,0.1372825329164487,0.1622094361444865,0.15907678155065744,-0.4265953041010798
0.12439530750445099,-0.0602791370494771,0.12752913672203964,0.12370266286053772,0.10220244895494691,0.11433587475115255,0.11180887455955704,-0.49403032413795694
0.07385629981608062,-0.11106384381344632,0.07055692809900732,0.06028284284224955,0.03852799511001835,0.06103020762727228,0.06409724823441215,-0.598129575866493
0.17932835702813216,-0.09655298576262233,0.1804712391491476,0.18806123501343547,0.10663552054018377,0.14044447817218614,0.13606253257275672,-0.5732390020159573
0.15970112641483497,-0.029980936291705187,0.161420040996167,0.1543701015006264,0.12616726700379838,0.14925100334109012,0.14523588424965037,-0.5946352359205602
0.1386643899616375,-0.06562493421428367,0.12711049441347166,0.11822681516088551,0.09109369451216187,0.11117924703683589,0.09232685981359445,-0.5357436818747244
0.05559173227954664,-0.0774956853141036,0.05955075342090202,0.04856103622303298,0.02207845688506002,0.05697924204587951,0.022497405272219217,-0.516574237582492
0.06718802321259287,-0.06714572962805053,0.053656324066319705,0.03531661086625015,0.011767890217653315,0.025669210054738226,0.0067979320904781315,-0.5116407833315526
0.17278508402778964,-0.04319191968457898,0.18467628525803403,0.17933882864379802,0.12248057520817418,0.13924076331515509,0.12735603995055753,-0.5448089121686648
0.14605384917720227,-0.04957142563671192,0.15355655425409143,0.13936619455428578,0.09832679181753695,0.12660723055297265,0.09645402167242367,-0.6084153304906524
0.09972072552381295,-0.060818146532361776,0.1007373547107446,0.07283854750433133,0.060663922105989795,0.08389124931932723,0.07558277103162489,-0.6053669608047451
0.030079845337174477,-0.08237926707505137,0.016477332673782263,-0.0031898374032154897,0.01215141426986538,0.019186983146438852,-0.014300076312157226,-0.4946949778870237
0.05089179866529704,-0.05985724303633026,0.06842246341906066,0.05645633361223912,0.024078764080435328,0.040444760504493096,0.03638208776354504,-0.45016754143742244
0.1553368691619429,-0.06811384933861664,0.15346749102013865,0.1427403646973231,0.09333905970983529,0.12481549077301506,0.10531730448296647,-0.5164615662384803
0.12114971482211136,-0.06099753319488295,0.11568784061211451,0.10074657833668238,0.09604152497789192,0.1049543928332599,0.07593394108997123,-0.4714735682915529
0.06008790903674088,-0.05558940631610113,0.060283541814074526,0.03715434970611864,0.05815794799020235,0.06637623246335632,0.04957696095705558,-0.4456662018191191
0.016155836368373783,-0.05678981006171405,0.008999469969227708,-0.0185389846941858,-0.0014439825724979621,0.018937148996629752,-0.020220794112459833,-0.4442187741798248
0.13746918891273724,-0.03179118934387863,0.13627511879202686,0.11579815438454838,0.08250929182924639,0.11883238401844913,0.08254303925701854,-0.3906067472780469
0.1192487433540725,-0.058005386905042325,0.11235156873011087,0.07830709578726108,0.10338369364099353,0.1093263234998332,0.06395568252429548,-0.3803656642259144
0.08108012304138275,-0.0590944792202419,0.07950361034527614,0.03374939742232014,0.051612432870721425,0.07280776758374749,0.031104143281702024,-0.3950319187410934
0.013187878105655956,-0.06171070052376953,-0.011291398653332563,-0.036119212057131644,-0.007842430234633144,0.03551689760050532,-0.011256285268283789,-0.4977242200734188
0.07552075852290618,-0.05281087885217375,0.07274252374751189,0.034756785201052964,0.04599603775807208,0.06785981056047571,0.037439804177866326,-0.40799050971551065
0.1433271560332411,-0.055276125812017116,0.1408123323308927,0.11428809781262877,0.09563106563034726,0.13683109504552854,0.10217190103545712,-0.35450915845979053
0.12796450539332732,-0.08188233271886022,0.11514694971242032,0.06367044339750982,0.08229572539950164,0.10609840395020431,0.0802418598700046,-0.5277962210912256
0.07442059499061798,-0.11985859740544731,0.05773013740760849,-0.002482248014698041,0.029580756788816193,0.05608253324323867,0.02452391087080452,-0.7173391416384581
0.03304497130748982,-0.12611706512947535,0.0406103165493609,-0.0022640628998247814,-0.011810943999261594,0.0081507932726885,-0.006281822618684457,-0.7803937969040683
0.16196504113493493,-0.10083644364857772,0.180277126889544,0.13108436495076947,0.09099936972070134,0.13124399619272076,0.10641231407391413,-0.6016516878650051
0.1460028607281713,-0.08848394053803652,0.1463474357998272,0.11304507479864356,0.09272918171125275,0.1309933313482586,0.10949588899021623,-0.591039505039539
0.12335824834025742,-0.0967266738945256,0.11114483029261055,0.06019727037623818,0.07730989435352144,0.1195787168309055,0.09753037239825785,-0.4757680292896259
0.05993721449656772,-0.07670182197079484,0.052736823993378645,0.006604283130091315,0.036182171191383214,0.075060029917813,0.03797875087594027,-0.3640175360267029
0.16922414319095008,-0.04891906771567772,0.19066683082907782,0.13960089717703345,0.10524452861068043,0.14053667253405688,0.1371932058009847,-0.3211095593540571
0.1704054782928398,-0.04518655346033205,0.1929385021845365,0.14913713463310246,0.12022434202243275,0.18780331300366307,0.1478955359282946,-0.35499340303033416
0.15267373331535875,-0.05053406328233469,0.14262853069547735,0.12476530977357392,0.11853383259923281,0.16430526750589952,0.15617117286104212,-0.3303347099078329
0.11501518898535007,-0.04665670033654937,0.10165031767542079,0.05339312420102821,0.0639982366252572,0.11655088528155716,0.0941845600684158,-0.31721401218319784
0.14279526198896814,-0.04174601640730653,0.13794139999439403,0.10796651685648534,0.08677004916272771,0.14096869736350465,0.11921022359355343,-0.288064793694723
0.19343666748588934,-0.041025515748438365,0.2162526121729232,0.16661952978607397,0.1444746914914919,0.2076089914802178,0.18840406376780322,-0.3847216153327242
0.17772631539133715,-0.04597550813801162,0.1887174143959865,0.1445507432971343,0.11895857323847339,0.17969506847379035,0.15019068661719703,-0.4665867299719247
0.13356616515528835,-0.07607252502075766,0.12987060153737953,0.10537765353071737,0.09757628954715412,0.13925001200167392,0.10756406743530705,-0.4227385910824306
0.14508282418479235,-0.06190328526861556,0.13434366647780008,0.11066255974936329,0.06952446744174055,0.15693061708145878,0.11664977388921138,-0.3972315704166062
0.2186965030855089,-0.038967715253794,0.2313194753851057,0.20811196493316964,0.1705035157512619,0.22886535854222087,0.23555466999966584,-0.20457522944722692
0.19022672783159777,-0.03212316541344951,0.2111011783905978,0.17197106874301604,0.15546625385826357,0.2129120211217776,0.21433097793376588,-0.2936712162525739
0.16292397314707135,-0.018438036897462318,0.15252195289770887,0.14454546632741683,0.12599836809827342,0.18760357943547956,0.19204252086537524,-0.3510853781589686
0.1397077030116332,-0.05862835029517682,0.13105589403370607,0.11311825454624003,0.09139253598271037,0.15523799974098013,0.1446225330906769,-0.2874365292551605
0.2392453312027154,-0.04063151206331689,0.2536277603699918,0.22840904002587015,0.20923638809561693,0.27212649020379054,0.26695077966418745,-0.37000422385358717
0.2429496401644185,-0.04969060936583639,0.2563417203631681,0.22430732209491033,0.19618573001228096,0.26134844178884303,0.3066873034493187,-0.37454013551630566
0.2250255677891539,-0.03412120757064845,0.21519129025671505,0.19250443442789056,0.1721621551854921,0.24487451716564912,0.24770007255304827,-0.33117986202350463
0.16201261758700958,-0.0402113464728849,0.15802893020389583,0.13473906746336473,0.13146935794947004,0.21667839675484613,0.19654573895030783,-0.27936075925447534
0.21843545386979402,-0.041778328598491996,0.23016673026945383,0.2203828783318203,0.19898856601244935,0.27991156682516144,0.284338123000597,-0.20415797773854005
0.26263253793038477,-0.02766939115628008,0.2742850422871982,0.25897372768699845,0.2419722080529888,0.31461983613254496,0.331399181924131,-0.13008345893783343
0.23200285574550322,-0.0022091731581274365,0.24255362865815275,0.23071918242902,0.22034077365081245,0.30712590870364886,0.32037518745766613,-0.10953013298710186
0.19663020943852383,-0.015674316878120986,0.19984839633650484,0.1827075340988133,0.18637544504927084,0.2551779640134244,0.27772124958905703,-0.12492406488286072
0.17451074869134353,-0.005596075857026095,0.1574202667315148,0.13650948228589854,0.15752085028078627,0.21669795894810262,0.23718593461087165,-0.1334786173743331
0.25018776648029073,0.01157386162171041,0.286059260171838,0.2606820009015318,0.2543707322622512,0.3123353345015272,0.31971585443284944,-0.16618066620513422
0.24751329907437258,-0.018496428585180157,0.2671102709776867,0.24355518103503931,0.23571970231522227,0.32211654712636795,0.3445057139542462,-0.19212996540865016
0.22285817289087725,-0.030937288259616003,0.2274187048726165,0.22054822415456715,0.21052268955980674,0.28234831293827445,0.2783407045207795,-0.2808998794365058
0.17988623260419787,-0.032196504818608515,0.16857909340852176,0.13550383097772417,0.1536059044991207,0.196788408717225,0.19980628075784415,-0.3591307001650823
0.19546722262712352,-0.040326481778490124,0.2022785605267063,0.1833733174992604,0.19061824247061174,0.23874996630033657,0.25881663798387666,-0.23588487841898542
0.25890636021595254,-0.019026238057425787,0.26503334848088744,0.2726147286265772,0.26271686034297653,0.31504206596486617,0.34862931610159137,-0.20199289451753186
0.2341792940902014,-0.02228895774417266,0.23656002020082276,0.23035210965264402,0.27390580202998427,0.318197736456351,0.305781656702213,-0.22121109237807635
0.1911460663894328,-0.04531369418341557,0.19473944736773194,0.1686088442113584,0.20508074919508884,0.25939066480230455,0.2600598837489374,-0.13642480933772458
0.14263076358261867,-0.04575047743105137,0.12727311717398437,0.12261819466987284,0.1787067312799137,0.20520373472790004,0.1953228300721822,-0.1071380217285653
0.2056591510282201,-0.0055682907636542545,0.19518603911575158,0.20301019921016977,0.1918823879644308,0.25580276470966967,0.25390788020535626,-0.14370188575867834
0.2465846696079979,-0.027287886573626338,0.26931238528898455,0.27021943086869893,0.2613590406967345,0.3161082677819135,0.29291939578291204,-0.27734066490003906
0.2409431941752473,-0.03104606616160055,0.24437553694580716,0.24662491793479574,0.2595728557407886,0.28054295918676014,0.29692864688759735,-0.2566597504870075
0.19534419941766532,-0.024837711610001048,0.1849206319137917,0.18016670794734008,0.19954588963432585,0.2377207934667488,0.22852332658108787,-0.2340195559795318
0.1278766464932352,-0.02785835235829731,0.1447502679409954,0.13358019317102549,0.16543588069254747,0.1879013520865722,0.19058038917645606,-0.20650912156916426
0.2297462128736934,0.010099301038373878,0.26067071583330026,0.24971492210317192,0.24707582730146854,0.2913285403707965,0.2903929864976371,-0.12005776418508639
0.22268491317152772,-0.022022268735224178,0.25075617118720006,0.2555757272205595,0.24554702413284382,0.2815596063162664,0.29609360966694526,-0.09027787872854809
0.2004070720464237,-0.018755688790094677,0.2147483234494969,0.21283904903266004,0.2192912578060755,0.26364716743039707,0.2610910696018147,-0.12718285830705084
0.1326145782980136,-0.034077659108307914,0.14579605503630558,0.11998826396902268,0.16215458441290492,0.19818604826513775,0.17047366714947326,-0.13262688452006335
0.1473922891720026,-0.007721282658140205,0.15975345784846495,0.16449586241292352,0.1806029792440707,0.21284678494938547,0.1834923577036282,-0.1469532622727059
0.21432666046794802,-0.01890606553834248,0.2375284028269098,0.22073060173643166,0.24685929337508225,0.24614114632230938,0.26572220219976816,-0.13714194689219977
0.19252334417587297,-0.023754626674994596,0.22453646739198285,0.20496782736759345,0.21624611664804166,0.25647864522602337,0.23931916213717405,-0.09168536564361057
0.14049777520777285,-0.0354960227892585,0.15212047980994803,0.13101854797304724,0.16020875384738248,0.189326140496388,0.1658544002889751,-0.10884174633459583
0.08478203547298069,-0.02442162161034707,0.0968293126566144,0.05731083991347097,0.11494467659721186,0.13334646910610154,0.12302856458522293,-0.12773458176253066
0.17823548576877804,-0.002938327708677649,0.20528223502851012,0.16903038763689987,0.1948345149282385,0.22457406662850882,0.19488420807880175,-0.13309267418763876
0.1823157885822243,4.89723265150066E-4,0.19764133009119864,0.16267265409011328,0.19468295320688064,0.22216641363472278,0.18695063415802515,-0.010305221269807978
0.15529254882866295,-0.002136838616669634,0.16906151507927705,0.11805119023361971,0.18026233475188197,0.1940448331180737,0.16102827075652956,-0.009344234979907405
0.09448229727491601,-0.029376358842711184,0.09305696732619151,0.07076191635699725,0.10909080344720998,0.14002904015885964,0.09709116262267747,-0.07177838025876662
0.06029508166475908,-0.042379764139861,0.06742074814099544,0.033753806258179475,0.06421962839833656,0.10571584744498391,0.07891670398056616,-0.06872518255960855
0.1870779230432461,-0.02062990522124842,0.21278985777910517,0.18854236311452394,0.18364925144146366,0.21769049635352875,0.20562016669060257,-0.037590067185208305
0.16731694042091577,-0.03228571345450674,0.18345190632711897,0.1611593757048596,0.1506458156403772,0.19988870011993487,0.1625597627416442,-0.13273108252215135
0.12939657862902892,-0.06754438288043643,0.13076919222568875,0.0982104221725349,0.12933209158804876,0.15835447946134623,0.11095616897791585,-0.16838529481305595
0.059146888153802715,-0.04167090988175902,0.04770146844779982,0.018046862712700174,0.06725613105385915,0.08945044620825109,0.061597856710076254,-0.1254114112608481
0.09345651503496497,-0.04746747734316141,0.08755803948850821,0.07207581835499521,0.06530642179193788,0.12142175199309983,0.07852294190170442,-0.1443459570847307
0.17313424776474473,-0.0398550163359564,0.17007386885671025,0.14932332213081145,0.15162694892892525,0.19204589018789042,0.15748784054280363,-0.13254431463930144
0.13513827877246526,-0.05156102231691764,0.1390190941104635,0.1065538833041238,0.12524683497463024,0.1570656195458199,0.12138114635804217,-0.16972593456247345
0.0797138308046716,-0.06056600787946814,0.08131520615720836,0.0373956808139882,0.08398988145308521,0.09942811099367119,0.08705098483472767,-0.1718408701791389
0.021168669149378136,-0.07206248735774146,-0.013545056299433561,-0.03640233555328681,0.026266403250913464,0.05304160765367569,0.01391048475458273,-0.18785563682478745
0.09880921670011097,-0.028996856554071457,0.09127253293519288,0.05532023434098654,0.06978016231871349,0.11793310888634155,0.07229215698406972,-0.1363735475825028
0.13704877254323494,-0.035046131280349106,0.12172253250433474,0.08423319880701491,0.12354629189416622,0.15272437106211148,0.1004915034864167,-0.17942466097041546
0.11856481095433183,-0.04616933089403242,0.09041420433931174,0.0533024496636888,0.09893098038473355,0.12884125291084664,0.09198798366729566,-0.08886387007381967
0.05325382567421069,-0.0484437466816803,0.041224480700472854,-0.027223297228223142,0.03163103596059853,0.08286095482180084,0.04179350456090414,-0.18327623790996941
0.03525701896462856,-0.06989766147313461,0.01765872159582002,-0.029592314150587107,0.02165758411364456,0.044235992370582525,0.023675974440712677,-0.1625343660772548
0.15478577233644714,-0.028860690249874886,0.14964913056947585,0.11312144447590167,0.11077985534077865,0.14836392647405663,0.11836897211621389,-0.10107902511148523
0.1380822706475273,-0.03218812027763239,0.11759139948111025,0.07724280836375452,0.11514088050718833,0.14457985122748737,0.12319854988005462,-0.14280909677310621
0.09516678469190623,-0.04101723374677541,0.07487902400490037,0.019830034562538457,0.08054457933730154,0.11541995885183243,0.08318787790250608,-0.1538198174109559
0.040018181844998474,-0.046263418318481256,0.005436016845020486,-0.03920316266713306,0.02504149296979069,0.0500560057875188,0.0057637788207171164,-0.20165617301104227
0.1519375556098636,-0.05217132230883317,0.14161100905045323,0.10370925859580032,0.1043277249084048,0.1347319380936634,0.103164376616294,-0.23395966027865073
0.18481076075858804,-0.032180542226677815,0.1700166833301627,0.1400341428079347,0.14500158457514556,0.20595916401941428,0.15458078002233022,-0.1387256095921677
0.14538581408414222,-0.04505149963183429,0.15191563779242076,0.09568898418917887,0.12880469392146154,0.1691315858018053,0.1287302531622926,-0.12093316766602749
0.10631680240142159,-0.04666202195448715,0.08110956700691674,0.037458827058102884,0.0953715832061369,0.1167004850550313,0.09329956781223828,-0.08593380675888149
0.09752508941055907,-0.04883724739289194,0.07822985301797886,0.02847450838225324,0.05506566511984405,0.09886668887020078,0.0873587397878963,-0.15023054765767904
0.2028264162252953,-0.018987328760020843,0.1935493546178157,0.1493962152110856,0.1723678929615345,0.22400319082578968,0.189486905626773,-0.11205754667554808
0.18708327044237089,-0.025963366876392426,0.1881345736078513,0.12674324079561278,0.1601525712496769,0.2085832686267312,0.18978123984946632,-0.038434650103912275
0.16133876520047963,-0.018207612462367476,0.13131711379425529,0.09422471140241245,0.13525688419735674,0.17824108679278727,0.13534405440799724,-0.08748289337849552
0.10800034858141587,-0.053292014441155534,0.08313947539530162,0.041387936081725196,0.06714682161362723,0.11395294804309998,0.07388259804518764,-0.177375580173634
0.12983303078973996,-0.037671632468142875,0.11795518707088548,0.0820182325216362,0.09318098587773145,0.12640992437350562,0.10682013502093057,-0.17864203751941649
0.2018588695193593,-0.04022598111986049,0.18950125529018705,0.14719635730032615,0.17100565123630346,0.21764129934539514,0.19819230662419393,-0.1660234461399902
0.18320095215278412,-0.03859588414196479,0.18068259662664068,0.12828502509341144,0.16954560005549055,0.20280001261197295,0.17126806225019478,-0.15043199765986934
0.14517328441499516,-0.05271098931249243,0.12499262745408463,0.07684143224728274,0.11170364961973071,0.17406275615309721,0.14994065477860993,-0.11248205968674474
0.1001426870627605,-0.04422289315317861,0.05237935448312403,0.00832444423150741,0.08509329567947747,0.11408912586460036,0.08829111096549555,-0.10135325464349743
0.15756431499937484,-0.015458788495484155,0.14336815598767144,0.10569414535336835,0.14466945633254052,0.15574806761705048,0.15148940833199195,-0.1038950754903476
0.20821982199431416,-0.007240093292649241,0.2276475157599613,0.1775514282412462,0.21629905667016308,0.261239126477828,0.23161562978036637,-0.04353308990262689
0.1982588336992327,-0.03011121468777591,0.19441733167209277,0.17125089773006336,0.1954481158037155,0.23019998865294006,0.21858156076652932,-0.026600690954284793
0.16126728713997412,-0.03321779955076186,0.14056270053872108,0.10442302637480316,0.1620023447813293,0.17508463361010496,0.17659452200865303,-0.06277556128710667
0.10267527713113103,-0.03143552302110597,0.07764702482249655,0.02513524618595636,0.09866759411295127,0.13464290683693078,0.11593118615126352,-0.12123228625639139
0.1539803067817329,-0.03896766416967219,0.14751261084452022,0.09449051261344749,0.1357141131287652,0.16278969946306454,0.14752467865096514,-0.046337155318095305
0.22210900748772266,-6.833147552159496E-4,0.2278251041325696,0.18393802163479522,0.2140393853037148,0.24322518946743535,0.24214861672520827,-0.03935265060399658
0.1870419233928356,-0.01753049105146212,0.21043870695555472,0.1607248943677732,0.20767134279592284,0.24745072523582567,0.22401172830014968,-0.06390842458170905
0.15708482332268475,-0.04681519100415869,0.1404917641200708,0.0972617234278142,0.1609152778693943,0.18040059790846796,0.1649143035398443,-0.10947163062023484
0.08996821340447447,-0.04602856188589933,0.08953488433200843,0.032700941177395026,0.09718163806039935,0.1320719839650327,0.10859548317573667,-0.09275003326098571
0.07282766349844849,-0.05004973103324287,0.06484962918674714,0.0036107119980529623,0.06983849044223107,0.10165735326012787,0.08544868944390949,-0.05209184779585374
0.19946714312479127,-0.005602420152361412,0.2109134795305546,0.1394783970026901,0.19156449055945862,0.22504216294456686,0.20627694185143594,0.03135189861730369
0.16513752005554727,-0.010748659587350565,0.1898598306377784,0.13345247810916905,0.1961508076169881,0.20871063073153545,0.20195303069984796,0.027248737035508536
0.13993157589478167,-0.02136950362773956,0.1451387129486366,0.08364908681766753,0.17392947255560984,0.17593562356757836,0.16472603507902223,0.0051859974549989946
0.07808665724522787,-0.04002102632126325,0.08192629089607834,0.013865992519082881,0.11425388620007666,0.12714983174278288,0.11350512239206505,-0.08648376230823158
0.05160236157666749,-0.025328784017951744,0.03966574225003583,-0.03741142883799509,0.07336888992002479,0.0798841397319852,0.05960074205968449,-0.11871653044725436
0.17354990057972886,0.01418353533422527,0.19742538990618225,0.13212302947802795,0.1716283193447093,0.1897594373648382,0.18928062167848747,0.01989971014947462
0.1746392540600359,-0.013376609588295327,0.1890744917406458,0.13091127813190467,0.1850700139957979,0.21221773454026358,0.19884458644466074,-0.0426577519288296
0.14219021466646892,-0.02823838510876412,0.13391677811936878,0.09019060373226234,0.1531845527082785,0.17163081522328263,0.15597576940205363,-0.1273075124073445
0.08019991601060626,-0.05696711374803346,0.06931816141665104,0.022479396093943782,0.09035748546343256,0.1081243579115488,0.07271138780583841,-0.2240091212000609
0.022451252623961,-0.09146864579503453,0.0043350115634470665,-0.06389144634666505,0.041795825407025644,0.046759837802819657,0.016100480545646362,-0.21229168552856556
0.1138561589621698,-0.051274752917947586,0.12402522562502069,0.07345086051054417,0.10931201861371621,0.1210793077285709,0.11919229580345125,-0.12050143784683251
0.17161727323028603,-0.0014483721425277984,0.17257541314758926,0.11252283858461826,0.17131705220843788,0.1896257755511524,0.17100260816095214,-0.03787545879618916
0.13260019940210768,-0.04002585194044273,0.12960826915364118,0.07190265174422728,0.14060306929099836,0.1569427527194332,0.12385268406708447,-0.04437958484220017
0.08363880078961337,-0.033964367611992674,0.06313979325320235,-0.0032878271287001826,0.0849739783703149,0.10297269343536591,0.07750456138433773,-0.0716467435322927
0.020214502680375182,-0.03968883248030175,-0.004110370547698555,-0.06318975619337841,0.04143315712133877,0.048552400067554735,0.02622399855318855,-0.08566927329356754
0.031051681517554455,-0.04054332796091077,0.012737688086414928,-0.05849115447889944,0.022922829119224317,0.043319334991792954,0.0252676334445079,-0.08807418209464682
0.14323663336360107,-0.01075504873231957,0.14356664796252183,0.07332867741825744,0.12244175439870433,0.13903764061732715,0.11402543259405047,-0.05325862522694615
0.1273980317170696,-0.03165156653021071,0.11000278320102369,0.05491017485638716,0.1085493980406606,0.13183956792820622,0.08981104257072699,-0.0983871998330048
0.08532980820092402,-0.03342239107169487,0.07117916414479092,0.005538926736533389,0.07666570242617143,0.08327857832191178,0.05648380576001866,-0.06000437300430141
9.026780314571325E-4,-0.05670617769984881,-0.023738862951757644,-0.07938838177081381,0.007430379474222273,0.023765547611229815,-0.0016200159202202358,-0.03129591936692458
0.033200253398747215,-0.028383527670326508,0.008860326112454547,-0.05035798806774411,0.012910294994631047,0.02578632481079013,0.0018138355239114556,-0.06447111178830064
0.14958798942153775,-0.009588740521226186,0.14537997274989392,0.08777479061682597,0.10242862429668458,0.13470427927431303,0.10129930428223125,-0.06569463431487028
0.1202488039530926,-0.027910475257979378,0.10191956287661563,0.048684884046837296,0.09546927696136173,0.11671394878647415,0.0818978663978831,-0.050973099369147436
0.0761685943928656,-0.031710702850526996,0.0659923074543759,-0.006694977653594503,0.048400316361447995,0.07832707497270942,0.04185610994203898,-0.061197994059935784
0.010124357537516102,-0.05087373846346055,-0.006491086968708648,-0.08710934482919994,0.013001353621659925,0.01484197929955862,-0.021933649480793557,-0.027918347477309507
0.002867144990415779,-0.03214021845054743,-0.02110109401105073,-0.08319053165635618,-0.007302346297384479,0.006486538688284957,-0.03203050112196808,-0.14010795354294564
0.14343045554195666,-0.036657493970516056,0.1303107228538547,0.08732124227451954,0.0814531353372161,0.11142320757273767,0.08760418939865292,-0.17863872657679414
0.13149892347772732,-0.022272462463659222,0.10943753400035541,0.06139065730665366,0.0825688116514345,0.10205204770663676,0.0677135137649875,-0.10097125797526191
0.08302352246647773,-0.026849733672869497,0.05843624454568183,0.008324953453542672,0.04923346858881694,0.07235635980744161,0.039462848017136315,-0.11169703064502225
0.013520399061631369,-0.0685203746410559,-0.015246653667935928,-0.08141641075524436,0.01235605193426964,0.014753867723256181,-0.017941886413286423,-0.1284373406039111
0.007287619996296429,-0.07928412194545839,-0.025456698740583428,-0.10346338836490127,-0.029515786940433483,-0.009991356956997904,-0.04965237175322623,-0.1635826583518763
0.1453820793953669,-0.0488505907349045,0.11504453922862676,0.04816660962324165,0.061364087529996114,0.09786961263636258,0.05180821626395965,-0.16535134179083552
0.1186428345165297,-0.05757765838112702,0.11175311349965886,0.030356484542528372,0.06372112403067248,0.08990790251464587,0.05178434634382528,-0.12950460089551102
0.08060265012451985,-0.026687761450877215,0.07219770396023059,-0.0013385772565064347,0.048313497673943245,0.06257626040042517,0.04817392715626018,-0.11403741516992719
0.03577006196517797,-0.0813499504028882,-0.0018168595229015594,-0.07697975518839595,0.013793184897929259,0.0021094189404206876,-0.029971265453560117,-0.26838086583962095
0.04607226308402161,-0.08604381685024558,0.04203166325887883,-0.02751683345593381,-0.001293938797131855,0.03257724022058145,-0.027102394685987977,-0.26215456189748365
0.1437779095930548,-0.053701008254372726,0.12888551015509972,0.07689081641551276,0.08824679670771272,0.12277776372732664,0.10102099442957611,-0.2081316752140272
0.11829290418675978,-0.03697276940113281,0.10145324361243968,0.050883389579575056,0.07782890003154924,0.1060896847791096,0.08561996849551891,-0.17266283593899617
0.07062601530369861,-0.03990220864668457,0.048788825788360746,-0.022815591661916795,0.028787821859246637,0.062349777125905365,0.03799485804662678,-0.12744333964810564
0.01390226359450518,-0.04638276176703676,-0.02328252924782745,-0.09075510649221544,-0.00939589892348544,0.008886508084077968,-0.026590595104237474,-0.16871948243657087
0.0980314950331479,-0.03175384809486118,0.08156603464352932,0.022794443288268074,0.029756698657380537,0.05327096703691081,0.02400639401012325,-0.27005000978363103
0.15469849835099775,-0.06184616922444483,0.16661159413394433,0.09581675039755899,0.10033271678142541,0.126478817600213,0.1063413223399095,-0.39467551530898937
0.13981743781776157,-0.08158288240616735,0.1423014529726674,0.06788271884859781,0.09130783611507895,0.1117998603743505,0.08388965775478577,-0.3859182315949947
0.08579469077290068,-0.04583146811531782,0.07328226821397071,0.019190163353774325,0.03714815903847296,0.07193920677984991,0.04245414118853222,-0.3238937489154352
0.032785408856871784,-0.07174553985087741,0.003765947002790676,-0.05780861718883601,0.00492603860979568,0.026991264495973236,-0.005035245007574435,-0.34779979490445295
0.11135753798014081,-0.10190820849539553,0.10536897683797108,0.05334754091297572,0.04950799326617851,0.06798970422007847,0.04409257487770893,-0.44157351805185324
0.16932355504290153,-0.09370392572187433,0.16867226148457629,0.10751388825852709,0.08519004001319243,0.1399672345403204,0.1011801619457679,-0.5147645551663771
0.1418639240685936,-0.11425974411792228,0.12387726584308556,0.06649490390181984,0.07878679453612034,0.11954099940929476,0.09280491151141709,-0.5246716525207951
0.09844536639442202,-0.08937609260625654,0.06532360629530037,0.02394012364843573,0.03978226286253529,0.06394900905379193,0.05558807169569788,-0.46315093749249264
0.04149203272991925,-0.0933842596732069,0.009253387458016682,-0.055856744130880764,6.985980308117923E-4,0.02861114984660948,-0.0013336021048565017,-0.36859811419989974
0.12695551337658906,-0.07228747489884846,0.1235568777861506,0.06356946544938558,0.04277126868960046,0.10003501090809981,0.07634487381190674,-0.3747737572875842
0.15707490347802955,-0.05229748889461472,0.16052905278863974,0.09779347596708216,0.09793470140375847,0.13826519940227572,0.11944349495056764,-0.3767751223865092
0.1365773637523387,-0.03689953130312585,0.130607011065447,0.07830554595297767,0.08394253814734393,0.13687636011266027,0.10476780510503997,-0.28284630729333005
0.08986903803115263,-0.042619884716806715,0.06986829758831453,0.014140717661921987,0.027969898341331775,0.06862019157133475,0.05942885389833555,-0.2957306220225206
0.03274348714117997,-0.047989594729289396,0.011885997916393665,-0.06237768499746199,-0.011236649755857031,0.023943152994164288,3.4002055977688794E-4,-0.3398366347677164
0.1503685501242075,-0.05242390948973831,0.14477381044136223,0.09244938135002495,0.06940510430724314,0.11263963361909712,0.09241810078361376,-0.2884175608644854
0.1718004306796705,-0.01916274498043022,0.1842659314096589,0.13642924057104477,0.13635032638594508,0.1569498734033294,0.13355152991015345,-0.2639797647807343
0.16257736693123584,-0.046711673622476746,0.15551731396120883,0.10724917270485684,0.10936374920044603,0.12890716987815995,0.1374264550164252,-0.3343135260968027
0.1105111093799347,-0.07657628239205828,0.08090926607684587,0.021161446916008353,0.04245101356472433,0.09021457673666133,0.053943788008333715,-0.460879010971957
0.046696173249515,-0.11623453472026686,0.013060774072847336,-0.04309143908830454,0.011930188943858847,0.0330058348839124,0.01410684205712609,-0.5594187128198033
0.13920749810121238,-0.05891947397795161,0.133407194972445,0.06423042542764484,0.0632162999435078,0.1099146322166747,0.0710112339888554,-0.38757183272255125
0.19635208298542606,-0.03405013294128081,0.18346651979592601,0.134010730063561,0.1372388815389437,0.15859613868646366,0.16463404278589666,-0.2651368285974651
0.17055216718406185,-0.009287484532987583,0.16643149233790394,0.11013343294641165,0.12826949177802668,0.15004354975674628,0.1607933565118165,-0.22615644231831206
0.12450813920511114,-0.025025347433094786,0.10822528109932639,0.03142273011065322,0.08475436301797329,0.13110988754053635,0.09887704351543694,-0.14322352820159462
0.06950625632828492,-0.05778511143017223,0.03536129809543845,-0.026683305994842033,0.03395733918258392,0.06136080572225967,0.0361246225424261,-0.13661763106664632
0.06353114350075163,-0.06387512371899895,0.0464033768942107,-0.01702147662586667,0.020525478208555686,0.04131963684560416,0.021546480789099043,-0.24473566995113255
0.18038972287873895,-0.019119960329799034,0.1822099627491007,0.11668963370663976,0.12422967691619266,0.1643041727587467,0.13593343740958985,-0.21604315140477526
0.17117890653444623,-0.007456748971928023,0.14386513776837404,0.09387314591229667,0.1121469746992737,0.14137909763028544,0.1235998486224743,-0.1352583254011352
0.1295689818362525,-0.028095569923997074,0.10030161876397736,0.04046537360555763,0.07811877754014736,0.10195711287723626,0.09981295996159853,-0.2637089479495334
0.06715107386172639,-0.05092389431775293,0.03440358197747448,-0.03482135853894455,0.028060801785935702,0.05193064859619903,0.01712315917468543,-0.3776286097705596
0.03866524313775872,-0.08605488065271019,0.014553470475795777,-0.07220194135823679,-0.018923403408444547,0.006136921142491078,-0.005821092667732425,-0.4014373173749203
0.16476868316007184,-0.03026852732784599,0.15907236584239767,0.07020050515118692,0.06927369999107863,0.10839974277902957,0.095780488546861,-0.380874232224133
0.1553572629746927,-0.013594780540724924,0.12430065280294098,0.049051677198831634,0.0899138166666052,0.1179665777365973,0.10148460576423768,-0.2335016759913603
0.12206416883336221,-0.04732527215285877,0.09933907515465715,0.010080072132727325,0.06968932403036088,0.09375498406387,0.08449857844098127,-0.26525471361825925
0.06244515795979075,-0.058314360874263005,0.026795693445308216,-0.07990722611023104,0.006175344006764338,0.03578669063790696,4.530744112632712E-4,-0.21263194790442635
0.010595974804692987,-0.07541905061793033,-0.03439453454574529,-0.13366036945326673,-0.0384435491891099,-0.01772436617382142,-0.0425627275301769,-0.3696813398875596
0.14811051584223173,-0.05857538506597675,0.12790646849092796,0.056587626267076585,0.04104127488465319,0.08840983610921768,0.06651367614012263,-0.31454299902091165
0.178211957075548,-0.01692377547893143,0.16083341203342552,0.06815024774579903,0.09810001166442069,0.11654159899954526,0.11909508191635024,-0.2838955094634913
0.13637500753718712,-0.05411389531962704,0.11466822389816328,0.025108471042698588,0.06934272526448258,0.08859835664661318,0.07761283265343766,-0.40404210645206606
0.06991778518240484,-0.06357748922719217,0.04551488567023332,-0.03299681141205699,0.017791550915998267,0.04064348909405377,0.022361588419463868,-0.37314316946515524
0.022206777138391184,-0.06358422111161514,-0.009741964435992512,-0.1210939768325594,-0.02074353379095585,-0.003203115314854829,-0.024417224309055505,-0.35592409438315187
0.11560907416615514,-0.029208322535647382,0.09537840042983581,0.0012725481865220045,0.035635434617987766,0.049507934185865604,0.03329481054909407,-0.19319144601429264
0.1739530047352625,2.1544841089989053E-4,0.15012957374098151,0.07820306641362884,0.08907308717406966,0.137571232745235,0.1035557921269317,-0.18908578242015694
0.14960341112228126,-0.04019862970431312,0.12188900823168256,0.04143108974882348,0.08364391340540095,0.09915177721385302,0.0847949119763809,-0.28923901372805544
0.08961715205031064,-0.07938829560885519,0.06428273903355392,-0.026558941649191092,0.025761030537368362,0.0408958294130532,0.019402577088570655,-0.39022267109494263
0.03264188774196321,-0.07027389833183399,0.003287249028170902,-0.09538104844990827,-0.020432786202088604,0.0027861670222020657,-0.02925073550615416,-0.3820905019686636
0.049022502583046676,-0.06461236874317211,0.016981595516947473,-0.059505870810528105,-0.04375629262132226,-0.014453412166326493,-0.03428077551370627,-0.33208095735275334
0.1714937673483389,-0.053211632641500396,0.145945894146002,0.06472252319688387,0.06867185159633621,0.08187074977180438,0.05242865865111951,-0.458547820716971
0.15604793181465132,-0.05390410460525305,0.1423355150057677,0.05667433659881782,0.07356409888203462,0.09181320580912092,0.08845751450736805,-0.34337145474115527
0.11175559856541938,-0.04904401827049971,0.10260359878898914,0.016043136534820868,0.03413256791178029,0.064061954144553,0.027962771597931813,-0.3630568568975394
0.03786854670458767,-0.04669960097193396,0.02455920103103343,-0.0645654045996969,-0.012643049429470213,0.014151055676455873,-0.003858355968829996,-0.29179167533887435
0.07005543602519203,-0.049378163814589385,0.045203972489629984,-0.02416464013832542,-0.0020237515352088675,-0.003240473173248312,-0.015259440006145236,-0.30539229004365276
0.16898164959983097,-0.04144379970283662,0.17862935249293796,0.09416858800640115,0.07147178704079658,0.11533781039190771,0.08710945910871104,-0.3134074883737475
0.1590198857145017,-0.021937442376427023,0.1634280437737229,0.08254718784406823,0.09595753235196508,0.10495992188822909,0.06756250396730278,-0.38534266500121256
0.12106767232298955,-0.06173928176458704,0.11145341441832662,0.03434296118591973,0.037219951794818115,0.07613248020479635,0.03364769537435584,-0.45379945022415497
0.0592586655725606,-0.06427164878708005,0.032134669627731816,-0.032401692148471106,-0.0031793643234933333,0.028649948185510032,-0.021841856788510805,-0.4305630132765643
0.06219563577820447,-0.06786999053906123,0.06283351552505351,-0.013575588111144399,-0.005308379701517943,0.011092212284296493,-0.03935497322893605,-0.3112081484418929
0.19618365890818962,-0.03222184281058766,0.19335258177754988,0.12971842434749437,0.09782447157074736,0.12786534999926571,0.10152491397786383,-0.3968592481323618
0.18845702850189655,-0.05285826981035338,0.1807424756573357,0.12059694853781444,0.08101976233404234,0.1314303553951503,0.09819260415499068,-0.3889536504718429
0.14549272108940728,-0.0538172865865794,0.1410524276403348,0.06271440606135609,0.07384802288946114,0.1023408583706305,0.08585758375070003,-0.3578217693289106
0.08655490703415886,-0.05727635184285242,0.05755248714848901,-0.02275037238099159,0.03138115837713598,0.06823266492035136,0.03162696829407788,-0.2847752567053705
0.059514819850566725,-0.08505335178221199,0.05034194063286215,-0.05436787489434569,6.302331440474762E-4,0.02113429756735491,0.01040219621516933,-0.33419210819122175
0.19428745489156846,-0.0205669286230121,0.20507748999350786,0.12363997859305337,0.08601326387542649,0.12074333425073701,0.09595209866263629,-0.4408444955639531
0.1874231366737532,-0.023978854345474802,0.189705828538788,0.11098430334522252,0.09055959003442669,0.1364261880765746,0.11577109298833885,-0.42885323889367777
0.1541316749893697,-3.4097000565849744E-4,0.16580290171036013,0.10174549359705587,0.07287004461460515,0.11271785799487043,0.07934120971877737,-0.34897067362578127
0.10633464562168987,-0.029611754783245015,0.07908817829721426,0.017273152115556856,0.028158966921830314,0.054167792790259794,0.025600575334652348,-0.30479432841441584
0.06414829253403584,-0.02104691209091969,0.05664846562069312,-0.022848500423119034,-0.006241761238988536,0.03131962885921512,-9.171082785965068E-4,-0.31612900491220436
0.20645911146133172,-0.01249034712627968,0.19773958502906974,0.13214964049055444,0.10241553431957932,0.13686945317944438,0.09720282525796045,-0.3352792721065172
0.18538901015752002,-0.029489898619994834,0.16926079096738744,0.12057087610146244,0.09756440463201853,0.12416560143451838,0.10657600768900523,-0.23374322990493937
0.17229094055132238,-0.02167754971928265,0.1554428175616689,0.07822406173549423,0.08461002295325194,0.10772351929607271,0.09532238385450845,-0.22547045213767533
0.10062135141962619,-0.035879954274221165,0.08715299789215183,-0.0241609454136405,0.03103470293577991,0.06551412187593077,0.0394450833369078,-0.2482652997295067
0.08377352232035395,-0.019921904823461997,0.06409922341798555,-0.030818811467527463,0.02273371564455194,0.05146388575079899,0.012431002015300438,-0.26801205885323487
0.21870239717407514,-0.007916841005155412,0.19616594898909012,0.12511474171171427,0.13388263085027974,0.16100711045682148,0.13558236386717415,-0.25730311245168236
0.20561383314447657,0.00903896745957461,0.20212194442886192,0.11351255427674722,0.13468542697683197,0.16763625787982833,0.13984658344376805,-0.2611498982466283
0.17931659113496118,-0.020517298417481497,0.15203716745457693,0.07378181262968625,0.09363912379086702,0.13180668088051353,0.09802499934032809,-0.3610173649933693
0.11114634858073237,-0.036087537562023195,0.09551112547049637,0.014524587680968759,0.03336131848227121,0.08136407792877982,0.06152640586698946,-0.4126854786083916
0.07687695410774537,-0.05599718002219936,0.06043108204311848,-0.023634768349281465,0.011410155989384108,0.0229950791430759,0.024274663919023026,-0.4283876216319065
0.21979024914809725,-0.015417199250437247,0.21882109091188628,0.16651748754825324,0.12082165415233835,0.15094180261209883,0.15111432402297453,-0.24466256938090056
0.21273719552599824,0.016225661321858792,0.220036582457276,0.15766792655548933,0.1585603932772639,0.18944092407596327,0.17301181178637565,-0.13901613714079125
0.198901116155907,-0.034480038895914236,0.1694368365524424,0.11459286161991022,0.11533780017603457,0.15434609572203686,0.13370478829882554,-0.2543475016507156
0.12697550472908925,-0.0435869189672125,0.10274604114352417,0.025490193622237534,0.06987330411041777,0.0934956976730206,0.08314267057133795,-0.3428858487372917
0.06958916037247291,-0.04527052926723468,0.041591070287651466,-0.03242391623244206,0.02610216455412405,0.044256728947926746,0.015867823248520846,-0.29834996996032
0.17747404010330645,-0.02722093361732887,0.16551989743789905,0.09272759652607354,0.06352246240456957,0.11024668127181013,0.11768228073640044,-0.2893234899416698
0.20960922185389358,-0.03238047084548298,0.18821147121490886,0.11281695080860937,0.12430574186949467,0.15498844891885644,0.1482537299776507,-0.28394359466203134
0.17977765828896708,-0.0495844889612653,0.16167656860902954,0.09012133652673426,0.08502002665018087,0.11648633674312873,0.11870544686073797,-0.332369663963692
0.11509763206467917,-0.05906477918538539,0.10080176038999694,0.019884510531215815,0.07367301926965793,0.09345683977409285,0.06428768590460812,-0.29512424378222246
0.07257837665181611,-0.05533431778142404,0.03226368214778108,-0.03992307186779526,0.02370327741915526,0.050793718523250334,0.02717957928598541,-0.32054433373403085
0.17872405244485012,-0.025275115162606263,0.1603623689151653,0.08750834294147719,0.07731876557076434,0.1206714321967905,0.0894960079510694,-0.3081109316432157
0.19081199384068676,-0.04217743203215629,0.17973504701368284,0.08730272531963001,0.109260780309998,0.1378461201259088,0.1313975763257922,-0.40287016108397955
0.16666058392496474,-0.03762854101789279,0.1374762957332148,0.04895136861280214,0.09682683583131235,0.13410397828900666,0.10968797451366877,-0.30677325551873635
0.10997883061654919,-0.06099450856690401,0.06166436769846617,-0.021290605964871645,0.04511543944196718,0.07809081147969622,0.04302481557355034,-0.26693562089704415
0.041720908853166566,-0.06170685462252129,0.013313850251239046,-0.08389264285903503,0.015398569897706743,0.04064985678824548,-0.001730693389436072,-0.326016791553792
0.1640533147693245,-0.04144044312130662,0.15489394590565483,0.0641313018358542,0.080740271240369,0.10888832763486388,0.10205766132026667,-0.2230330393526007
0.20134048599275384,-0.03000012966528725,0.1864233533215661,0.09718476456510944,0.13559631504347622,0.1816509505686259,0.15598087128638474,-0.21638591517526531
0.1778614119821912,-0.045899149380811174,0.1691588524657642,0.08039140999882793,0.13395496428318804,0.1824181115879345,0.16509674337033556,-0.21114543016300014
0.12427736054926881,-0.01988267501528676,0.09431495123050773,0.0058957870840204984,0.09201676723742307,0.1272511383286643,0.1103443778925818,-0.1964456003163954
0.05898967707785514,-0.040196171320571766,0.024422746596397815,-0.07173040350331467,0.030906386260420415,0.06948697645345984,0.05000224751095392,-0.19138248515401032
0.1298161644545519,-0.042645083180556834,0.12688381444959268,0.054470103677385084,0.08712631934828319,0.11346585800687707,0.09571766366865118,-0.2326093200329244
0.1842209285375505,-0.027211713512789774,0.18036231028894203,0.10245772830416977,0.13090021468272522,0.18751747961424575,0.17581605218867075,-0.2541478130462918
0.18291094573196776,-0.030726634109103472,0.1674805401737812,0.08104160966934015,0.12317982725905148,0.177619854077192,0.1706029958419909,-0.24796260928009717
0.12996680045449466,-0.04275784070794002,0.11084992774593017,0.019099751391529585,0.08296866749454446,0.14946166910646602,0.11702395739067008,-0.18165883075347763
0.07770401449565566,-0.030527868557767415,0.04293446191029965,-0.06611593234856761,0.04191843207384571,0.06833874655016446,0.05934095634993347,-0.2153786337048639
0.09998308846344173,-0.023840097780577676,0.0654727640549422,-0.017927000263505022,0.03132902347523345,0.08097789366701388,0.0704293283894821,-0.1947426908754036
0.17717008616824031,-0.021017023635470672,0.19387670948451594,0.09559503750123721,0.12245191532486964,0.18950702555894963,0.17547868762327928,-0.12417412757903465
0.15728274639116352,-0.022291641842175816,0.15936499403525403,0.05577332269695229,0.1459108038654524,0.17645610683371887,0.16184995519395973,-0.26135051728505354
0.1252109834201411,-0.028751881958801823,0.11771368786635727,-7.58610395917847E-5,0.07383040634288865,0.12821874951882195,0.12185659364577162,-0.26411248720088815
0.06694707932042462,-0.046644487734082446,0.029069144786401324,-0.0664729161627215,0.025855451656009068,0.07985325272966012,0.05276743915175933,-0.30253903852369096
0.07555143576023432,-0.05118400381555584,0.05525430317954505,-0.0355643818986181,0.016031188844104996,0.07048937728635823,0.046893401530537504,-0.35277301159097874
0.18872477379807268,-0.025760745793136808,0.20668141832727216,0.10768799073126478,0.12749232161379784,0.1895729640902899,0.16390534885731045,-0.31545745513270196
0.19994888971436128,-0.031722514215161444,0.17272629765667805,0.09112883794301879,0.13646198259946457,0.20025804249651014,0.17583615911810632,-0.3048358333828546
0.14550908032510868,-0.04260329276784434,0.1324691320111987,0.033243224972992425,0.0967770692238315,0.17058176713154916,0.13064236785985625,-0.20601305078765714
0.06944631936297797,-0.034401673172008665,0.06638814490057887,-0.05572858586551949,0.06297677926519943,0.11655473216190462,0.09298942326915119,-0.260164798780196
0.04384657824679865,-0.044825501294779094,0.035575336875736385,-0.061296869521118014,0.0161157835702639,0.08249484836446744,0.04068578080453625,-0.2481108388253037
0.19266457176421337,-0.0175019983552281,0.21284028453477846,0.1155159927235706,0.12737700714284866,0.20155734093964545,0.1772177269236189,-0.26667063828043935
0.18692394895324552,-0.03373882353059077,0.19511800000164403,0.11061998269700729,0.13419571330276608,0.2039611009288113,0.19032567314277044,-0.3391114127229899
0.14420582389633435,-0.04127595161584383,0.15238895295901486,0.0768369825869537,0.09945088473935693,0.17059469316072257,0.16330592795445534,-0.39431157095724156
0.08712371756606807,-0.063424745480851,0.084259269828591,-0.01775357302676045,0.05947269600973225,0.12686593122645867,0.09764565631249356,-0.3616950832260306
0.03145458842046649,-0.08509818625979879,0.02461542609265005,-0.08543712117380581,0.007496956901730009,0.07409274956491027,0.0416827333885989,-0.3263541822716733
0.14143877981543423,-0.03975702544507942,0.14204148350344636,0.05645514109588928,0.0621269044731208,0.1334018345918681,0.12460169936484713,-0.34149700297929836
0.1735208561087146,-0.047087400020605887,0.16631282654351315,0.08636944496799903,0.0983951053428754,0.1781362510137775,0.16212984313821055,-0.35660007620518247
0.16119050149891484,-0.04749135957714036,0.17108829320455965,0.07310742308818446,0.10897203985537919,0.15895061541747363,0.1568124595640047,-0.2833005206584171
0.10828836027492472,-0.047651130315971256,0.10282226131503197,-0.008295202965731219,0.05873452138365168,0.1354877990296332,0.13194040448730845,-0.28023340575219047
0.04478410319169432,-0.061319778291575186,0.04623149562264167,-0.06053033586818524,0.014232678304511193,0.09344970941916383,0.05892493696727452,-0.29300978902099883
0.1480092077095777,-0.026103096793201594,0.16078000030680023,0.04865593593755474,0.06837766022066073,0.15396663469711058,0.1364938556314219,-0.3365159686010805
0.17225239416606603,-0.02343630210615231,0.18563079408790864,0.08356242852853268,0.12657954289693696,0.18554793267216985,0.18821296154460845,-0.3017994135299039
0.1543471836444655,-0.04619657263476577,0.1447653116869282,0.04610670988789445,0.09787020702229604,0.18213617993495676,0.17090106452680304,-0.2766901282454767
0.09054474667789422,-0.03908709927025869,0.10287447935290248,-0.020542069824589504,0.06261959150960314,0.1409157951749675,0.11941810314250362,-0.2680146343664276
0.031849216791275226,-0.05937691450245137,0.04391588564733234,-0.07935908052353324,0.010483985012669741,0.0835911569506547,0.05762669700447401,-0.2929242852063154
0.16655988392218132,-0.01873648497979656,0.19458259958790625,0.0949700684159554,0.08909597437378027,0.15684452158209866,0.16375507771634923,-0.2981312018451198
0.19547305964032025,-0.02067858041936947,0.20336417021372863,0.10921644059581831,0.14325316112157804,0.22544647765061993,0.22012523969185954,-0.2753324036872486
0.17583526445425143,-0.04739947947387043,0.18455292790674907,0.07701007285300071,0.12403911851470639,0.20718461813470307,0.19583798344750333,-0.20696460986599438
0.11376262808348471,-0.02401195308999056,0.11727496675288446,0.0284423469016723,0.07474503945047016,0.16234765083434782,0.16215825316899712,-0.2480372875717064
0.06331908036483795,-0.043262091402913594,0.06323631971516885,-0.05433637342667136,0.027561216961558707,0.1181490960022157,0.07989021504507804,-0.20818007052030485
0.19765127845851865,-0.03450432950853479,0.21332662911471628,0.1244153095050356,0.10888432151895426,0.20363409202121424,0.2088796955378298,-0.16500038930014851
0.19958680399111073,-0.005091772461512364,0.21933297793533219,0.12268114425581128,0.14776940394143548,0.23256185325707043,0.23451127479198597,-0.19030447310743917
0.16873745036870247,-0.006959151199648794,0.19025157404011564,0.10300343040400106,0.12758469745084144,0.2158046044325173,0.21994371271758462,-0.16296782603619553
0.12737273086651144,-0.018215636439829236,0.12284969650529137,0.013673424426988545,0.08255316559261681,0.17008850044013582,0.18391944279606784,-0.06172630241956795
0.07780738620228618,-0.04489442548126063,0.08297269603887891,-0.038273959551525905,0.051142526701400015,0.12680373346063284,0.12015387054781804,-0.18570592342424486
0.20526332785651397,-0.026819282163568416,0.21621832100727525,0.13234719269926815,0.1387002905979901,0.22687951459455732,0.22028038578127376,-0.20108527243678825
0.19143791306817864,-0.0028855450836653834,0.21210147288364284,0.12084056295749113,0.1430383456483103,0.2353828378320118,0.22983296432895844,-0.17980353896429685
0.15813485948409564,-0.006961153683783514,0.18573310379544516,0.07938368466950935,0.13006816348004357,0.20066807997503405,0.2127369632306911,-0.09342180059621187
0.12035768724152228,-0.00774317614700723,0.10374529725769316,0.012163171434828424,0.0659369363370016,0.15711654786588009,0.16201840982603652,-0.12074186240375434
0.08292169887483213,-0.03182028031573372,0.09905724134590504,-3.3919138034832486E-4,0.06497367641571039,0.14675358003304015,0.12853395602325637,-0.10043056214696791
0.22445487882073056,-0.005831696578995335,0.250605886432695,0.16536379084479258,0.17095530410037985,0.2602029557763995,0.2655058653584854,-0.04107886549225464
0.2105448913849145,0.0010268943630682287,0.21813395164956018,0.14185987281966783,0.19552342752944143,0.25922203932001936,0.26454362048960806,-0.09668897292109091
0.18278192749718186,-0.03109034760509672,0.18907604635994213,0.1135889176604376,0.14972859800470334,0.2228464452780252,0.22634391069409296,-0.2727011279729953
0.12369841949962769,-0.046507186963368904,0.13065806964715623,0.035618157121361904,0.087504131126966,0.16657226861599325,0.15498061520344433,-0.32309208227536507
0.1418437077829191,-0.04096926126113649,0.1348495993845524,0.04406746314388227,0.0635015162844883,0.15668272783839277,0.1378142785860625,-0.3803026536342305
0.23310259174800146,-0.034509581232884286,0.26721240477965696,0.18221848679208774,0.1836873281352141,0.28471299411296164,0.26520983607071846,-0.3283228750176965
0.21958869229908884,-0.03231213543536958,0.24072151872931785,0.15379586453190164,0.173596218897212,0.2727754282724446,0.27306939859985707,-0.2783016528982384
0.1908850765804109,-0.05028883756172398,0.21273291135546368,0.1149318237185083,0.14423209963940925,0.2215602556574574,0.22091442351810353,-0.33393619927372353
0.13296322450593667,-0.030216950281741192,0.14639315758143867,0.04557911961705674,0.0864058153528579,0.17744287111501142,0.15274604199606168,-0.4055867598912801
0.1362415293469184,-0.0630465475019575,0.15912501530527604,0.058454793146262674,0.08740431466036987,0.1488933737247089,0.15490022333801903,-0.532765468575493
0.23356212504023177,-0.030860048475299433,0.26458635803768427,0.16843062027104266,0.17653294975584893,0.2568825334801838,0.2738995246728341,-0.566780860872991
0.21622072109234614,-0.027477797299613957,0.24903422957872912,0.16036559301081954,0.1702895594965666,0.2425477596102342,0.25271352726442486,-0.3730671178073972
0.1833715535948156,-0.01402396181833944,0.19460331293338815,0.11047063075772856,0.13576508872456888,0.2275634479851814,0.20083582784890064,-0.40699137350336656
0.1413399087366871,-0.034522045557411306,0.1351968468452551,0.03856045616716142,0.08672290996256991,0.1550828206007593,0.15629011633415396,-0.47571841699637235
0.15136961185854447,-0.04802145715286135,0.16718573781561769,0.08047677453977192,0.08845443993947374,0.15330073854409637,0.1653019623561644,-0.5164924269543979
0.24077561676303896,-0.06674666852780164,0.2614124566526229,0.1665573225457166,0.17714876205512334,0.2416653981771565,0.2621347629921911,-0.5654387710339503
0.21209919468926708,-0.04565315481333216,0.24104307069625044,0.14158020200130828,0.17182774146532198,0.2619525053397887,0.23044956435696945,-0.45089031030310167
0.17472379560194087,-0.05817924613145741,0.19332279982743936,0.08732873788652451,0.13002956386230774,0.19817508802830297,0.18870361104167568,-0.3963492137002066
0.11436518223146347,-0.049346647984508205,0.12309747949673147,0.03514121078195098,0.08406247226542927,0.14251524193608894,0.15114373136991366,-0.4060721558668865
0.18095267306063004,-0.03144828381899652,0.21460851821934826,0.12644682158716725,0.11911222069092732,0.19355639708485123,0.19805872836271673,-0.45240869811592316
0.24772541631110134,-0.013533312462300988,0.28903391958951563,0.19385750184414402,0.2049231680324583,0.29492173395429866,0.27350841384400865,-0.3799492263745109
0.2401408443710549,-0.01669294536062854,0.2753458196894375,0.193426427000353,0.19668335281656585,0.2659791233706042,0.23692361465604445,-0.46807705604360217
0.19727461021641052,-0.023988866127285617,0.2160107476286035,0.12172932534010233,0.15499157306924705,0.21471914740766812,0.20899434761153873,-0.4440379698891223
0.13237538070674618,-0.05876038311492262,0.1405337476244967,0.07062908963476228,0.09049465719570716,0.18510917406958832,0.16580871001302097,-0.4061230729237582
0.20179662679897697,-0.06766343281842092,0.22551206554657846,0.1481848372338634,0.12208009506079161,0.22759428113648728,0.23276592732854068,-0.47015934027893563
0.24689970183106774,-0.045441483096207345,0.2930304571494195,0.21117762216168318,0.2019601705313323,0.2887019144914187,0.27325921700292205,-0.5482935962152566
0.22420066058999127,-0.03861118002622546,0.27706816000300355,0.18871514781437398,0.19247618759447993,0.2756414702555588,0.2617214913443868,-0.48173684099055825
0.1770458731187297,-0.040539972204148685,0.18678093902252144,0.11988497340196663,0.1400552965914607,0.21807496675258967,0.2086380068940895,-0.39770183635230505
0.12500256809746174,-0.08560577049512351,0.1391471736002939,0.055507640812073156,0.09587976923915302,0.15589230839793866,0.12131423444305461,-0.5019255841839012
0.18169085525929624,-0.05349589239283298,0.18759768555148246,0.10807453671318795,0.1028525519065199,0.1878803114603056,0.16256149517939766,-0.4850381718778219
0.22444889029759757,-0.01209564995220283,0.26581109973580586,0.1863024869063578,0.17922306223913548,0.27154051749867497,0.2367001691731932,-0.4019504477800371
0.20936782304444132,-0.030225350273590815,0.24438317566433235,0.16644835394390395,0.17927620406037464,0.24651603074453038,0.22566393684495034,-0.4013276027018326
0.17236010362356477,-0.024350583675501677,0.200541942386685,0.11165189664295744,0.12331842509807353,0.1906790667787001,0.18403776983215236,-0.45960021639875587
0.10667318972195934,-0.04771767978542692,0.13047735224213142,0.02919110861627411,0.06094682790825487,0.13757105937555508,0.1278900362346313,-0.4686172300102983
0.19773791545170954,-0.03769491411237308,0.22296334848308244,0.14513240619426332,0.14207926403009025,0.20804605270304222,0.1795359532727211,-0.4208251372936749
0.2414588688020733,0.0011010204214391833,0.2622766768730699,0.17666123007477647,0.1799482406816596,0.2570767793819864,0.23016888874984182,-0.44270349441758994
0.20799601487148175,-0.02622131546892218,0.24053608645679392,0.14301016666154087,0.16496944419157958,0.22573055434670763,0.20467593140647572,-0.33935013651358514
0.15524018215862234,-0.03856950375879697,0.16186319671826963,0.08577700344450451,0.11835397949621433,0.18483217322276058,0.13677764531750525,-0.3955353362983976
0.0910870436887073,-0.0747537217267461,0.10307562983094093,0.011153487671878681,0.08054762104388964,0.14920121233795303,0.10204741336235305,-0.3764585980718172
0.21125563149904047,-0.016860214326153006,0.24017599451291166,0.16668263806551015,0.15715362656332954,0.22836293688647358,0.21627553907842867,-0.32996957368518665
0.22450096183371318,-0.022485896982654553,0.25130233593811363,0.19086976126196725,0.18996744227594947,0.2619188784118498,0.24701959891283648,-0.27100182290494673
0.2088488436275789,-0.02705231759692353,0.2415305896118396,0.14913610955880902,0.18113575786533415,0.24363954601278615,0.21538814194089173,-0.2753328486181864
0.1516599976315206,-0.05758328638829237,0.1685293350111492,0.08665412262075262,0.10491830838010394,0.17596566075261966,0.15613578585156312,-0.3670228609409157
0.10295947062323998,-0.01606446262637881,0.12496075556001746,0.02508875425454765,0.08566914672840104,0.14073711382792864,0.11560630276850362,-0.32812747777829687
0.23385770983783818,-0.026435000792757256,0.2650180385981844,0.18787992999210762,0.17395813413314598,0.24795131429999595,0.23748108404616483,-0.27438246992651005
0.2151247916234654,-0.01912429979315869,0.23816139742501366,0.15820832874124474,0.17004231757400654,0.24991919780052824,0.2403201584744858,-0.25733682482004344
0.17831636304827198,-0.03430860508691934,0.21697678124185732,0.12778624865027816,0.14078302314435767,0.22689152849908378,0.20193282128170423,-0.27516415314914955
0.12590029561253863,-0.05200090072062791,0.13301695834896804,0.039708247138497355,0.08432345149234215,0.14013044993828183,0.1367416286630772,-0.27501222573842654
0.15282765811682184,-0.009978923045011703,0.1684800551131066,0.07829783118579031,0.11177181043890909,0.1635769182452697,0.14551244742508504,-0.2402231701768011
0.21817108789754666,-9.19354510001788E-4,0.24883863724611122,0.15175785695614769,0.1713213086408857,0.2546794568302861,0.22736975536975765,-0.2824299864284585
0.20230278565480986,-0.03737069166993167,0.23436060438189077,0.13060526296272063,0.1574699647256701,0.21696859863219245,0.20328767759655986,-0.3013941982334322
0.142298311286864,-0.014981616402089934,0.1775114222348949,0.07396707614657705,0.11845953094445982,0.19301812446389657,0.16793700364861405,-0.23962903250215423
0.1183411289342632,-0.031752288805961315,0.1149469376658459,0.018663795409533612,0.0871460191639959,0.1408414796194384,0.128381100991462,-0.2942593709856305
0.22073777946333406,-0.018851526710947558,0.2547511504696315,0.17119488978730812,0.17574276999249977,0.22575552654480657,0.22261997769107442,-0.2469678478483246
0.22206560700401956,-0.013781168738022195,0.24997164820772644,0.1524990488140014,0.17238520402522517,0.24123482539770907,0.2432532997604594,-0.3787616829840351
0.18839243979520404,-0.020731301323081014,0.22133760113235473,0.11605971880950289,0.1402380018511366,0.22084941126047697,0.20255384296653872,-0.3811137741433408
0.14630367783062218,-0.02708725416906363,0.14641006623263808,0.03690046198512803,0.11100911169324093,0.16462438267712542,0.1467926218659567,-0.33929954980055743
0.17755028607324594,-0.0051581923139709385,0.21507234865407154,0.1104145694238341,0.1253081903607034,0.20898202616576117,0.18917916658486933,-0.37683339624432555
0.2538505044269925,-0.002643433783945215,0.2976121662522014,0.19869206046742216,0.21582782151934748,0.28811659781136106,0.27663793050794105,-0.3943565026591989
0.25600403198343646,-0.01961702100007781,0.2811207003594181,0.19407921735728334,0.1949233956504053,0.27499646159098706,0.25386958358913325,-0.3556475839079102
0.19726665528845116,-0.026757142132646253,0.2081621923724712,0.13730449346999613,0.1556028654701589,0.2318034783875573,0.2292490048108114,-0.3165186770037106
0.15201889856900835,-0.026642205856244563,0.16071291861721332,0.06003854679002363,0.12705936097300985,0.19271562643913623,0.1768943693968475,-0.35165447529828603
0.23369361239833697,-0.007060314827569594,0.27632927608079866,0.17336933036984564,0.18305526850909148,0.25218999579255447,0.25097367370951806,-0.3068473456553202
0.2663399583555179,-0.003932311207550082,0.3112169651115714,0.2131937523009625,0.23298830051213046,0.32206381221184704,0.2998346450920051,-0.29298416399385985
0.2506314086900613,-0.01849752549548999,0.27658821289488333,0.17801350440517127,0.21362997255014166,0.3010680465743537,0.27222629148648503,-0.33901046556608533
0.1862175022625498,-0.03366094032001131,0.20676195055736524,0.11187231856691315,0.16788322979420173,0.2413463191764534,0.22179905044704953,-0.340625453516773
0.15418726635424332,-0.053630227716191664,0.16496475767914948,0.044925891500770754,0.10868874880380756,0.18391629402832613,0.17646425735693738,-0.4169469414074289
0.2484796395825809,-0.025659126107035066,0.28150653619773996,0.18584037180148494,0.18632976226577042,0.27038160470055045,0.24986623287492435,-0.3998607918946152
0.265941142868484,-0.010090247664944707,0.30457108941897343,0.18508002032103227,0.23259819164725137,0.30111443380034975,0.32431326569050734,-0.31618880947669775
0.24976518632611638,4.90055221657168E-4,0.2840308367262509,0.1729840595954159,0.22179777294179145,0.2988242532877577,0.28957770958085305,-0.23393487911803745
0.20039679581660136,-0.0025712437186471843,0.205963966419055,0.12010551245813139,0.1490138979314446,0.22886548603688148,0.22629656957061595,-0.2592676924183123
0.15561472838184273,-0.036424584486155806,0.19072497771939462,0.07077270459521295,0.12741728769975436,0.18966449004238495,0.18051101535552858,-0.28479522428772847
0.26771723700158634,-0.0059069476050601505,0.3133176293523283,0.19199373918812596,0.22889989464798483,0.2869175881227077,0.27320140597886156,-0.3658166379997479
0.2543734956934256,-0.010373134051879257,0.29470346552877713,0.17972659649064304,0.20445574387256127,0.304042175016598,0.28620464137314894,-0.42690800936042184
0.22399924975688332,-0.01996903744747361,0.23521106643845396,0.1323122036683257,0.193254865605336,0.27036951316483615,0.23638378064792415,-0.398762151798996
0.16490957812048795,-0.008037969787421051,0.1781560499231266,0.05883476175497332,0.1328586431209457,0.20831186619889586,0.1745828927748233,-0.29354678355077557
0.15784543515246852,-0.028241630986382396,0.17123536459206207,0.048706018095733106,0.12183176985854287,0.17100113578554155,0.16518928792963258,-0.36177881540982987
0.2790089838703498,-0.016986108166824512,0.3102637363845377,0.19005462498432407,0.22292895360679432,0.30649618642511756,0.28395895109624536,-0.35923578476168716
0.26278725335916536,-0.00630565185676478,0.28690288632770905,0.1847944759314455,0.2424629412569233,0.30629962990647,0.29174405828299094,-0.27818712602859325
0.21553847359444422,-0.005764680640625686,0.2495259156715815,0.11350541624702748,0.19985982351491877,0.264081150497387,0.24641418334149515,-0.3071913460944069
0.16411785555214134,-0.053609242069621615,0.16663523710057693,0.037391604417561564,0.1458264029106527,0.1895729674978332,0.1698500323103967,-0.40942450957098114
0.179673345461291,-0.06228505191032482,0.1895119958270473,0.06408729359539356,0.14952341645712708,0.1877490718764212,0.16644911382759353,-0.4080201478688094
0.27926136595271855,-0.030439740111566402,0.3163348557616812,0.1621825988415196,0.2359244536950979,0.3000474209092262,0.2829339591899449,-0.4447043740612585
0.2592327984072097,-0.018459044358506538,0.27630332782865225,0.13991440289112045,0.23499472601843158,0.3032390687027518,0.28370907634005704,-0.3447245585434506
0.21281910582743313,-0.010114013129352686,0.20237684037883236,0.07066813812415423,0.16708451804713503,0.27671178817803155,0.22357695316334456,-0.31449567548897694
0.13590318585402086,-0.02531027637260544,0.1320945439374288,-0.02507360945996301,0.12426828329482507,0.19756351746404202,0.1506732478803917,-0.30177290035050847
0.18349444577754745,-0.05162043984636372,0.17072012878486964,0.02999716819480336,0.1416983403726556,0.196775819063774,0.17240358163241165,-0.38199125879116214
0.24401827512176288,0.004483292804319083,0.2555009087604795,0.11531327265762614,0.22750951028716504,0.28274244794355063,0.25198183830344034,-0.2904159915201984
0.2205310484063182,-0.004572721577987826,0.22391979526050276,0.09719576313145323,0.20880689740576353,0.27111712246900577,0.2563444039819135,-0.2355720548267429
0.19376690368877084,-0.03284905272535264,0.1659069257523696,0.01478191413817953,0.16949943791819252,0.21898552020123885,0.1920056775063313,-0.2897652051462111
0.13037721380825693,-0.054281335302061265,0.1248551227482666,-0.04212063228010504,0.10066253409079967,0.15498214675909586,0.13539085486733066,-0.40289041876404913
0.23740108448563896,-0.009863105811651132,0.2356631693364174,0.09933866525154555,0.19347486239502454,0.252854372879707,0.24316101985251556,-0.40773268069312196
0.2242817872342314,-0.019319021744762327,0.2149206280573357,0.08100344590824188,0.17373767143270813,0.2586106333044222,0.22912778795847144,-0.47218749570940555
0.20272626353354778,-0.024648047352292132,0.18581193872657759,0.03906369592754927,0.1619841693913693,0.23263244637071037,0.1940813380269597,-0.4386114838125815
0.12076870056134614,-0.05567330942648889,0.1115283982097307,-0.06285368322652929,0.1113728397772001,0.17013133219388094,0.13936605709238564,-0.4837440943641643
0.18487320732393026,-0.051089723489136527,0.1889012991558625,0.033005294185000256,0.13323667665474312,0.20305342540522786,0.16974835144000544,-0.47560972904016335
0.24586494357944466,-0.01011102061404534,0.24636590906655415,0.09974669106460221,0.19713119435954912,0.2686501462407552,0.23925139231486392,-0.4572238741661544
0.2212491273769578,-0.047372827789982724,0.20338614783001285,0.06447871835691721,0.2048781563932674,0.24712109029952628,0.246569811885375,-0.4037665915220079
0.17032512044109147,-0.019207246769588793,0.1569381835361328,3.5885451647593714E-4,0.1525155261311249,0.2083316263693601,0.18606238172275294,-0.32261871851169915
0.14912510961872996,-0.020147299805639285,0.14075027077434055,-0.007996316803413728,0.11812322141374472,0.1873937962863863,0.1341244271270226,-0.39586267863977903
0.26481432933669186,-0.022839185742265233,0.2763572992222665,0.1277721284736567,0.21553738196797936,0.2787813660427275,0.27606906553865806,-0.3927432010690334
0.25807559236709077,-0.02506610811800658,0.24857480211507998,0.08886797591488071,0.19935597429851662,0.2790904041142028,0.260111970998636,-0.4262120501122879
0.2118118773239791,-0.039694873277954804,0.21561906635723455,0.03645422752284522,0.18295026649486812,0.25459781255726177,0.23091000346157936,-0.4427927793348523
0.15481226561132277,-0.07959148739479946,0.12794079268814118,-0.02552753333256863,0.12162859277854444,0.17915743730380473,0.1571102089721971,-0.5490585945495309
0.23629694078689217,-0.06588456636692339,0.24444126401083205,0.10168471746028535,0.1778880648918486,0.25956164527554165,0.24250448483094098,-0.5816550054925627
0.25986217186882443,-0.05482179854221937,0.2645673285855543,0.111713363561329,0.20997144149309016,0.30637908424811866,0.2745046552443492,-0.5239862488454965
0.2397186786834035,-0.051025893719485446,0.23032182152058883,0.05896070566616074,0.2143001896314447,0.28600499832520276,0.25323114306103534,-0.4882105727172491
0.1970943876457835,-0.0410496429068755,0.1645169296033802,0.005756745962855858,0.18192264340541364,0.23296330145925698,0.21474818993086062,-0.4095700946036289
0.19850411298724363,-0.02900361011390279,0.1994706117408968,0.03592547914553357,0.18851754957311256,0.23853353872567948,0.21789500343965418,-0.37606018706194455
0.27017304116392415,-0.03095092143534041,0.2761646644456362,0.12991752261424955,0.24389832575890402,0.3268563070813045,0.3108004784967985,-0.3824343968619175
0.2543923244053039,0.006486167119071906,0.26678689244683396,0.0904323900145999,0.23015211308633632,0.29206284036470664,0.28396767093592884,-0.41183100988363125
0.2204633575102225,-0.032507142984949416,0.20457537776532386,0.033077403965418195,0.1885100951911729,0.25448172704389066,0.2611668695997548,-0.3816893442139353
0.17734559755199253,-0.047836372120191886,0.18488675819774486,-0.0021728141106663323,0.15852832572607714,0.21700063780874518,0.19505321225820918,-0.4746068255790343
0.2842864312483503,-0.005334509734884044,0.29721459131936284,0.1444504591096168,0.2527458108653904,0.30843019712120295,0.30075336091618077,-0.5130279335613408
0.27043334806437147,-0.010412891352853476,0.28655730603465157,0.108524753601074,0.23238507731369626,0.33013648923121425,0.3119378407253315,-0.49743366899148544
0.23803818279537525,1.0895933280839765E-4,0.2452580309205415,0.07306522958975958,0.21522859457301882,0.30525812216789483,0.2901968689436094,-0.42458893123885444
0.1837169067776744,-0.026969876577667584,0.18271595310476502,0.0027505623472275365,0.1665887259892035,0.2390359884621411,0.2195086706224416,-0.35035045580927016
0.2339219052572692,-0.0182218656861763,0.24792095390012625,0.09505528384102319,0.21543406095024925,0.27959269831988254,0.27305371611892537,-0.3682593971335699
0.30353564766146435,0.007453503205199316,0.32247464041066115,0.1375003989709152,0.27696420833805785,0.34888411049634704,0.3541475517122099,-0.3970457653239935
0.28393487061449696,-0.015549526684771955,0.2863831200029711,0.11156755698223403,0.2622111735797939,0.3420360790268403,0.3224569981298644,-0.43315222588258007
0.22994421002418852,-0.00321794787518713,0.2393376176630863,0.061883272383105925,0.22402643242701265,0.25990096524335604,0.2674908677115219,-0.37283453540791717
0.1712858616828161,-0.05470520220874271,0.16882956893195822,-0.006485108153405028,0.16806188126231503,0.22404978572595868,0.22656856030186967,-0.45643586959688043
0.2699327377353695,-0.03749928770191441,0.3053681583973241,0.14713045146782733,0.25007775326383946,0.3261025023586695,0.2989803748425349,-0.5760214135778012
0.291703772661965,-0.06261704335524329,0.3054124500503669,0.14143925006846836,0.2515238723779961,0.3372271330228802,0.3183745031882652,-0.6211662035796273
0.24712658191035974,-0.07587597979245889,0.25527405316847246,0.10808559266508816,0.22834187064953773,0.3056610861436757,0.2755503069247402,-0.6455193371551065
0.19002703430371293,-0.06443397019533013,0.19132374914737427,0.040897661292416454,0.17161159302530776,0.24200284581476444,0.2519387119593678,-0.49461837518797613
0.14079479037007137,-0.07193100759977056,0.1514080608356101,-0.04831974296651237,0.15269463903725933,0.21041908943492008,0.1825025411667041,-0.5221291083918898
0.24720688996183635,-0.05856828097021089,0.2655991292793612,0.10936467862218224,0.22084075265054115,0.2784197783089868,0.2797154838278546,-0.4328219552183523
0.2430052610886923,-0.05188784575823913,0.2653701739521824,0.09434114438856323,0.24506906127557804,0.30748642881656985,0.2992867325080748,-0.4045353043640705
0.22345841330227495,-0.05310959578877633,0.23294069573614862,0.06195757432542803,0.21721602239773458,0.2968015908856593,0.2741120411355761,-0.36348024151497815
0.16639754717605948,-0.0685429225443789,0.15685981989548964,-0.019262253471568958,0.1687619676917636,0.22555011462603106,0.22937220667070424,-0.32666407632089184
0.14368306941211434,-0.0683766996446446,0.13587748996263876,-0.02266977838714046,0.1388458342533062,0.20542184380926412,0.18076442312326788,-0.3927357580963942
0.24134690468426842,-0.050455598982131776,0.2638522221329332,0.1148245134690436,0.22379235307280435,0.3151658853890762,0.28933878662773904,-0.35069388545216895
0.2229266733683743,-0.0666255898933705,0.22641183763338346,0.08047222576617258,0.21251254666696334,0.3013914070611115,0.2822211725496704,-0.27764161699523443
0.1796977103688911,-0.0936907718604067,0.15699874834573618,0.011100104367634589,0.17873966472388175,0.23200369321753847,0.22253714142834857,-0.3054881883622968
0.10777442587008565,-0.10494476294959473,0.09472867863454937,-0.07146276331375484,0.12061122684168182,0.1839348093820967,0.17281818210220048,-0.33077991872850643
0.1464777710380195,-0.08745899762287639,0.14967682206404131,-0.01889357240424422,0.14094043683086827,0.2082138359909116,0.19043027053237832,-0.399916801171834
0.22666433203339909,-0.06957494742467868,0.22787128416204805,0.07061780791682082,0.23829275729329452,0.30127037508173005,0.29323186242057775,-0.33980617507506256
0.19818866226964207,-0.0744191817258614,0.19648833076226568,0.042207639117671225,0.20668033048041975,0.28418360228858364,0.25285386764636564,-0.30702327218365977
0.14329753063043904,-0.07764588320768828,0.12938360555103412,-0.038593039602828894,0.14906009729112285,0.20074542879850732,0.18573476035331155,-0.31507297304112764
0.06386982948674991,-0.1136392838304616,0.05089889418825794,-0.12893239671453832,0.08484562175106462,0.16179200647445227,0.14934922850695853,-0.3925687717980637
0.1751326916396355,-0.07364590731558283,0.181060371681863,0.014095903263524445,0.16215659730398263,0.2333079447288834,0.22438020115045174,-0.35508567466863494
0.2061654637040244,-0.04941636327101202,0.20233770704717013,0.03089487464558638,0.18486966120588894,0.27091773160317845,0.23657129703890925,-0.28499485333718233
0.16892824537870338,-0.07199076244323711,0.14832048550768234,-0.008680746657630467,0.17152196482439402,0.22013662980265597,0.22221690487437049,-0.32110540959308015
0.10500230064353036,-0.09292089854794425,0.07937512270523617,-0.11182741694460052,0.09411027039980567,0.186685469884769,0.17562014113978192,-0.35986727473457764
0.08152971619511049,-0.11089411679971933,0.06963114696430217,-0.12295765951710508,0.08290452053820836,0.14739400060783553,0.1212279868216255,-0.33326312315036816
0.18683549149280385,-0.0900378278253351,0.16918254353008988,7.646262055342468E-4,0.17309640247086017,0.24582893120385899,0.21682995155960433,-0.3160296748711224
0.1471707593686889,-0.09261235318556515,0.1500589014981128,-0.03097144612229208,0.16287899274123696,0.22013727177521367,0.22047001490657456,-0.31124624778991783
0.10187947092049401,-0.1205631694682513,0.07383885702735887,-0.10116091452996023,0.11631238732372641,0.16351546853350785,0.151532925490308,-0.3948222675783756
0.03477148566004559,-0.14600269445935177,-0.009724423597088139,-0.19430703683178097,0.04417625481089259,0.09802093555981453,0.09997712557568969,-0.37191751469270073
0.1461168453480509,-0.06672273114936046,0.15668437967458315,-0.009598336214175718,0.12885616734097022,0.20164381267351536,0.18540525964680543,-0.44833939757981844
0.16998159605665078,-0.1048122549207127,0.14913890672576047,-0.03355646254857053,0.1510527392864311,0.2259864170606144,0.20747233495177334,-0.44790767015962857
0.14587203795117468,-0.07375618397759548,0.12268986746598798,-0.06777031673544298,0.12658715817069333,0.19249808310756047,0.18826182034276095,-0.3325952917197437
0.07674256597710913,-0.09203389607414178,0.05474258619575689,-0.14146384448665106,0.08548578912234162,0.15360393148486234,0.13565119971048525,-0.4137250582760424
0.10309327317042732,-0.10128383157210887,0.07090809907414308,-0.11016562840291827,0.08020050606272922,0.14047404371232602,0.12113360091744677,-0.5100851965044475
0.17902051909895977,-0.09180133214545295,0.17934488580934094,0.0020203803960736066,0.1575626965844474,0.2331332058187686,0.19897256907897465,-0.43529416533922194
0.16546535304689575,-0.09561130561511777,0.14803584754495197,-0.03283509153561737,0.1450845119486605,0.22400314387957254,0.21372365758430711,-0.2571632283245957
0.12093642991175521,-0.08454621824497266,0.093498355915766,-0.10629276586053904,0.10948850928473858,0.1695921485808336,0.17092136814443826,-0.2985606386293672
0.05606466444551331,-0.12601985834409873,0.035339383070679076,-0.15586100682813286,0.07204164112941906,0.13308850082171872,0.11841555381325061,-0.24216217053152259
0.17166797798088015,-0.07488148347469316,0.18246120962048695,-0.0022567072785386055,0.15677376083994277,0.21404453388553757,0.19983038356769142,-0.2964850169081542
0.18312291601860536,-0.09420412599114193,0.1748162878223113,-0.015811370985464535,0.15166535691148436,0.2130465482962917,0.22271467025174782,-0.2635159931163057
0.16311417322631563,-0.07245778844612955,0.1281410228798291,-0.05165468834286169,0.15210938314070427,0.2045591573794379,0.1983210916705465,-0.1662291023295945
