0.0063565816184275965,-0.013710598331808701,-1.5190343670743885E-4,0.002837969546365218,-0.00912715417608841,-0.026582031008848973,-0.0378053503147391,-0.04485707479013317
0.0076461379470573266,-0.014916710853013895,9.47467936110711E-4,-4.104307306626713E-4,-0.010457592695860832,-0.022647244502386366,-0.042679716457251986,-0.055968561699272903
0.006910153768303423,-0.01792859458540811,-0.002200380417212506,-2.2185149046933478E-4,-0.008849222486263613,-0.026720379199473086,-0.04099328436598694,-0.05342514774960051
0.00799804086554631,-0.018611355802603837,4.4112600081549586E-4,0.0030715266198875464,-0.0093644394304026,-0.022220168332342784,-0.03414267153470743,-0.04333950811653305
0.008757077807609925,-0.013280231232382792,6.822525590537148E-4,-0.0012383676112259039,-0.0038756123219287485,-0.022617179438810947,-0.029145552667885096,-0.04804935413230961
0.007614499899817578,-0.01214002350278944,-0.0011986170751105618,-0.004504914984793066,-0.0012164766490104333,-0.027467771422940518,-0.03717384063147029,-0.03290089058974891
0.005964954562890159,-0.016472668575984777,-0.002806864761312375,-0.0012436502233079264,-0.007628250534969849,-0.025799878247906406,-0.043443868964137544,-0.032120931911223984
0.0071479492779563895,-0.015508877986156612,-0.0020350649032736703,-0.004619048053918495,-0.008921897686594661,-0.026600042208247913,-0.03582811049971275,-0.03198122962521377
0.007437294888572445,-0.015678504163941547,-0.003063237375368469,-0.003318685998968908,-0.008053726991951116,-0.023841733208723508,-0.03670702664337748,-0.03652544259292115
0.005479994212208057,-0.015067140261190095,-0.0034295907490791465,-0.002654593442787197,-0.008720739356837152,-0.0224051339207114,-0.030501221278579724,-0.029263387554382483
0.009156044993391172,-0.017800515367011938,-0.00184783801509144,-0.004297608864575953,-0.0034469164480494703,-0.020530940230888348,-0.03159629955244466,-0.03803349536931969
0.004223664815534517,-0.01715153619679896,-5.033329045976796E-4,-0.004757729562199621,-0.006786895224679094,-0.022645985440049893,-0.03394350112055654,-0.029526157722806243
0.00725082705881716,-0.014769844813735788,-8.71562099484726E-4,-0.0038585171513712195,-0.009447277614147603,-0.022715013340961928,-0.03457774154704514,-0.01649729284894754
0.005312291044825158,-0.011256418060807228,-0.0024036908122094837,-0.002394460919435254,-0.009765649169702436,-0.026779586705984047,-0.035238814552223253,-0.02245640586967369
0.00520163745729206,-0.007483263466043024,0.001039830603304753,-0.005538197723626191,-0.002551258483198077,-0.020446729674119705,-0.026413402726389895,-0.029065990311834558
0.008609955360765496,-0.013334991856517878,0.0021210506286183316,8.539484449158989E-4,-0.0045295724364770905,-0.016269487170818137,-0.020676177653773088,-0.039861628195535535
0.012090292875341946,-0.0078697300219924,0.005483513847542314,0.0013846740507463607,-0.0025874114545336303,-0.019618228657273154,-0.025865290458103277,-0.04725136852245553
0.013281982411575773,-0.018340699642756055,0.004033748132716036,0.0018546289053574458,-0.0041415152755922965,-0.016456068859432276,-0.026651488513281994,-0.03898056453698075
0.008184157611389128,-0.014939392688417458,0.00615395088326352,0.002146327293480141,-0.007514533167931221,-0.011429878818342903,-0.024060666099254453,-0.04867894201101091
0.011287200791906427,-0.009611716259309988,0.007948965418752712,0.006248286677414422,-0.0024557714046895373,-0.017320516943093237,-0.017046875798015244,-0.062473005471805176
0.01202562007084172,-0.010051228721013383,0.010597033870990983,0.01171957557003672,-0.00372546474252124,-0.003542247366687129,-0.02009416773374077,-0.049264773006145006
0.012740134661569232,-0.0058840115929028785,0.015343424838993239,0.017833621967085923,-2.6732126305117757E-4,-0.009445698349825712,-0.013496744656245452,-0.02629554674480888
0.010028382757968583,-0.004568758719024661,0.01413931660146096,0.01718747663187064,-2.706219382547772E-4,-0.01034815449677634,-0.0157173228532419,-0.03379887194509451
0.0153133710004661,-0.005509650471729927,0.013299584825531915,0.01430991104048641,-0.004124983901018411,-0.01180304287488871,-0.017894400704182085,-0.037262717411358205
0.012016362183698994,-0.004686893500791836,0.014204806225146844,0.018458817311122498,5.806973229749118E-4,-0.011369789830098974,-0.012774658512886745,-0.039621541208499665
0.01427508554008585,2.625317164387468E-5,0.017728108812995785,0.0189015040042211,1.8734588087746903E-5,-0.005164395844596948,-0.014844213407260262,-0.029390732995835642
0.013734151818314042,0.0019424936867175149,0.017046017101501502,0.019450450860840924,1.5932224839083754E-4,0.003557815511402175,-0.01115628658394891,-0.003472444211459185
0.014138426270338135,0.0038354125645466085,0.022528052944292595,0.02512293660969876,-0.0031625022448182947,-0.0025940928904096385,2.87818665756898E-4,-0.015722077281761383
0.015173776049990114,0.001173401979303169,0.024170413829808383,0.029503087715142023,-7.53078800640206E-4,0.0031005666129676206,6.133768942232848E-4,0.0013634019032866184
0.014256426188208457,0.006816536677719076,0.024500666867483614,0.028788553240273265,0.0017468814648898285,0.004498294662840091,-7.245037857100163E-4,0.006024908542094772
0.011699418728890765,0.004177701355292206,0.027152736227663826,0.0286899152496656,0.0029582609229256897,0.002804112475560786,-0.0038195490077870867,-0.004495742948974865
0.016529419187429836,0.006179514692731674,0.027539168869569433,0.03684668734317408,-0.002275239251155816,0.0038989286363527694,-0.0023237650482848494,-0.011612439773944794
0.015614077612472016,0.0021246369969893184,0.028519653170375667,0.036490438309528944,0.00861075100696899,0.011516427358980718,0.0085066360193474,-0.025756360438630475
0.01711801848111897,0.001467834224713152,0.032547741563451145,0.043102901261031945,0.004129181445423526,0.015191694231406407,0.0117757952404291,-0.020584412582529226
0.019374957076867948,0.006897224480010321,0.03473900681310727,0.04408344316524803,0.0022601857735907232,0.012846965144905478,0.009704266311678592,-0.015009170518546961
0.015671146758696602,0.0057653374680321145,0.0348495862843375,0.04177703766014505,0.0068848018579701934,0.011893459200016849,0.014904912346452534,-0.001318153671175935
0.01952958221041992,0.006192820723358257,0.03596843543493676,0.045206014958861146,-0.001756156134824721,0.013996453842226616,0.01638946663397743,-0.022210601598785823
0.01700799279785847,0.0048881983073552696,0.03722490529276707,0.04667848650661994,0.003611416141971811,0.0201117077773455,0.019902060230272606,-0.023044439145434074
0.014016621113591185,0.009336575345922403,0.040435962447582866,0.05007798634350554,0.004934063581619884,0.024860454262084466,0.02176881056067352,-0.00939235820317007
0.015917244819227752,0.012232594780973379,0.04457107743935361,0.05461757090168106,0.004805393251336876,0.02504450046225944,0.028171061558608452,0.005648562366456003
0.022009567031523767,0.014676118960475184,0.04336796527792481,0.05532078187524929,0.0027985018113298554,0.023407491797660277,0.023490544808806992,0.004220285374362221
0.02049711242500581,0.020549868829154588,0.045336134956457684,0.05410861770173898,0.008003008063275282,0.019598731799192116,0.028301766353858337,-0.015752758920646474
0.02166189849809986,0.01915338960209667,0.04500217505096505,0.05559985912364578,0.006321042752938611,0.019167414776588176,0.022566245385920895,-0.0225084717845833
0.021326232125902102,0.02113455428766671,0.05049393742211207,0.059545941871931504,0.0058904033654108255,0.023279732186533973,0.03046936908179822,-0.013952748595815224
0.023789016029791304,0.02182029012979601,0.05028107733065413,0.06071956580268931,0.0035741195798947474,0.024223562801371498,0.031421811707397516,-0.009337613111891012
0.023909776670310547,0.011994895265579198,0.0494962169004159,0.06427633612220199,0.010835812924613471,0.027499197188890375,0.03396944766119091,-0.010150026893030744
0.025162035955366226,0.015499653450838443,0.05016213655010993,0.0677556304092241,0.009012613987879168,0.028076746874785286,0.034590257687744985,0.0018646107274423098
0.027712701699095905,0.017486496878776736,0.054284220656163416,0.06167759939222036,0.011800910507141405,0.026036538471715207,0.02584516090459523,-0.005305978835986369
0.02507213036363887,0.01857407734898097,0.05503678213661222,0.06623505592817606,0.010405459777268948,0.024832003910307487,0.0282640405727586,0.02468459077770461
0.026531895271554213,0.019371704419532097,0.05259886732995304,0.06912981498387323,0.006394549072889855,0.028369285169383442,0.023136441908388792,0.010404181381970447
0.02883599902534769,0.02400545615103458,0.05689400970896775,0.07330741490875115,0.006964966276574859,0.03219297736669777,0.04206894121350564,0.018936269104020974
0.02832234090519285,0.016863797843441213,0.05776508279649308,0.07889819567481977,0.01009874346611498,0.030446318995091367,0.03929776641434568,0.0076286485355440345
0.02762859931631373,0.0247675219818455,0.057161472790431135,0.07664095394105384,0.008896460619531985,0.03430706851243066,0.04201535120207806,-0.01054317531726557
0.023827435950087298,0.025408399469729347,0.060247280714736194,0.07618134763080882,0.007380003816636031,0.027089329043948288,0.031051532357958052,-0.0019988890848461863
0.026310197443076087,0.019570569891673554,0.05747488690861848,0.07456237909901896,0.007035050973701522,0.03096284107935425,0.04027262418586599,-0.019582905122207547
0.028880203726901893,0.0203099889235135,0.05572335448531253,0.07489871719006898,0.015366058219035915,0.03159208841700766,0.032360915255183274,-0.01275986162176785
0.03041133932869313,0.021237723661420085,0.06039578271177515,0.07415749841637735,0.003945840238975117,0.03125116659299336,0.038222424018595096,-0.01613302607519581
0.025417807699984335,0.02475085947840291,0.06056613746108839,0.07955651291521554,0.0073530998366901044,0.036518438606629275,0.04357794250586792,-0.011295326311716817
0.02740922638245427,0.021419600168915323,0.06330240962786025,0.07960938613588808,0.00952203387813459,0.035837623137323374,0.04239924457794882,-0.0011659604952450307
0.02750301776046506,0.02982395278048205,0.062200018749262787,0.08076238016339575,0.009618277039579579,0.034747547763400055,0.03767665980484527,-6.406846580748904E-4
0.029014909262774235,0.027363346671564835,0.06410851304570821,0.07562892744751762,0.01190826810007785,0.025256308458290248,0.03813909433094283,-0.0025723262553696918
0.028092900583202778,0.025566955142176415,0.058210015113868384,0.07358889052396542,0.006196105339337555,0.023774483445210458,0.042723549626419666,-0.02061294358263997
0.02679119542252595,0.026814901339009194,0.06162959695985668,0.0805550521400448,0.007966883139396964,0.033388363399399136,0.03985091766666498,-0.022961060229242925
0.02661142999558303,0.01996051418764065,0.061054960031728424,0.07725834917472903,0.009507204320789645,0.037705414472911744,0.04171288293637626,-0.022342575000201637
0.025508365546495174,0.020651337339361437,0.06336915148781222,0.08084751493412184,0.011080345048223358,0.031899332979785144,0.04522783599315622,-0.04082195092153475
0.024710685590171193,0.015936097889757427,0.0629757562100743,0.0810964362929766,0.006368932848367179,0.030330544455793442,0.04920871712451664,-0.04570847840482657
0.030862807448318496,0.016779776002678097,0.05908759624598835,0.07950396451623644,0.00968430301458282,0.029237775393695594,0.04183101904408024,-0.03297358470224546
0.028376279352542423,0.016465501904690188,0.05807310391280943,0.07977247752622926,0.013400123817196593,0.018001979037005733,0.0421500286835052,-0.009540499965671575
0.026753949372803253,0.01593671911958011,0.05815271440841946,0.0743483736691972,0.004768005299801748,0.023375848239369484,0.03679369526240623,-0.01502886008111249
0.023255545887653405,0.016806697036681806,0.05859354749775892,0.07563114726171521,0.00553712761164534,0.028056950983576478,0.04138512390149452,-0.006006716248210518
0.02862393855145813,0.011300617366980363,0.05868826153740277,0.07894006016461103,0.0062184038010177555,0.02917421104774839,0.028462872493759644,-0.02486982349096028
0.031176768061027087,0.011287737342747572,0.056952470191105706,0.07287724873099213,0.0026522445011427126,0.026283127855500316,0.029774861341935913,-0.01986552028389988
0.029630157318501237,0.008521634177589549,0.0555763886531226,0.07490520570186755,0.007529360959917277,0.024795373072127924,0.034849377064358374,-0.0234650068745025
0.029647242816475766,0.017381341374968776,0.05567532502231897,0.07494148351038385,0.013190291547888523,0.020798990557238193,0.030051212915415657,-0.012024688175606061
0.027830937908808792,0.015738042875750057,0.05770001568207709,0.07451382372262488,0.01007555452492762,0.027534830860521095,0.03354450180718122,-0.030261123221117195
0.030002692779099647,0.013812727206458666,0.056639464320397855,0.07563108588292325,0.008553455362829683,0.029934288514357622,0.029821799714510384,-0.037282224745014365
0.02555396715770883,0.01657332057369557,0.05430431447378218,0.0733200629374621,0.004390539474019102,0.031201572465458596,0.027906173222064075,-0.031009334406746313
0.02423284549171985,0.01868396151665796,0.05068348926994688,0.06846831282603644,0.006365573273661331,0.026343691735681168,0.02619516661234704,5.765649303860691E-4
0.024293576910763216,0.012410005744264473,0.05040944546677446,0.0663380515277293,0.006397824817496582,0.017491702320576338,0.0204700978198399,-0.003317212258213499
0.02699706010294718,0.011868103736148519,0.048040150572177615,0.06661977316965638,0.00563504471891204,0.020717711385130403,0.028856785376683878,-0.004271092341613933
0.024864452961629813,0.013037287663518141,0.047514247737884735,0.06451929094416436,0.009908980472938074,0.017606121702089098,0.022845448921838974,-0.007891524903135352
0.02504167862556262,0.009747110692929406,0.050085894571625364,0.06662979058549069,0.010078825510263512,0.019374298062709062,0.02642047632406046,-0.023235113703842087
0.02624496398317479,0.011536821180737145,0.05048183151597414,0.06880004259688681,0.01231478588917198,0.018306661423431188,0.030326790775435594,-0.0342812984777616
0.023253952651809642,0.015229734115194094,0.047039762240751196,0.06033304297772587,0.002518360572531933,0.019269847310425463,0.020975431433424452,-0.0496318399816586
0.024257728258811964,0.01361602809767417,0.044998408705822356,0.052907684125181216,0.0035783606567420015,0.013514975906145761,0.014050115591925526,-0.0469397601115024
0.021623611690441823,0.010074094408625391,0.042071518680886384,0.058818981000341004,0.005125507504232178,0.01442030812096432,0.017729502214444522,-0.038979667760970775
0.025174575868857886,0.008682919868726853,0.04301982300705728,0.05579192183079235,0.005584189739314644,0.006994770292824049,0.016746589724459658,-0.049638558214850054
0.026260693433240324,0.014382788403042693,0.04607559496901658,0.05645542715677401,0.005613576365356958,0.024803450478756137,0.020557158217064993,-0.0415243875482072
0.02202520234170987,0.012876270932516181,0.04467183899041961,0.051899346344206676,0.0028418801466935473,0.01095744550801913,0.011630828857636716,-0.04864340866573215
0.02106058249684826,0.01182014017560376,0.04183289538393369,0.05148319047169173,0.006281316731027588,0.010150295830494597,0.004887407680666297,-0.03893797142040782
0.022420624031917566,0.008689712861331694,0.03854927874674,0.04536140345454415,0.0013046676165869241,0.0013463977651183674,0.004740574298901745,-0.04271338595901432
0.02366079689681948,0.013430679294237599,0.03840616116050687,0.04453862710965494,0.0038517471524589443,0.004610382284694948,0.0071626599682093305,-0.054301639187539524
0.02256893943505804,0.010349996017795952,0.038649265637044634,0.04423030661182101,0.0056765663523132195,0.0059822300554208995,0.00905681073482907,-0.048237839298680696
0.022958235256199073,0.013918582051710758,0.03650216360387236,0.0444589094993372,0.007200002180825249,-0.001183123384863471,0.00419586578926627,-0.048447588364227426
0.02339673112794219,0.014828288297800536,0.03388913658516056,0.037454825956081086,0.004158597344548311,-0.0027934582311090455,-9.874664236055885E-4,-0.04304250359993739
0.022382686253639896,0.017141823919523895,0.03365287558853527,0.04233544463342848,0.005599214577211347,-0.001667684315655083,-0.007217736244254465,-0.040860489065873626
0.022216874054623054,0.014567954880933091,0.031467446639729446,0.039848673369500626,0.0036819029271497905,-3.813665982217303E-4,-0.008195033399340832,-0.03298844319700246
0.020927601349782287,0.01700657846121868,0.033807951698564216,0.0359735235151015,0.0053082837627997205,-0.002818821001738113,-0.0011758435706688542,-0.02754438143393739
0.019978437056666618,0.010640698276249867,0.032756077611268905,0.038785813003076375,0.0010619989088503407,0.0019297976397290382,8.096338798064702E-4,-0.037175747119957483
0.01827592757999965,0.012558567370704585,0.030973260777179278,0.03751874473067426,0.006152804885370673,-0.005833462649949257,-0.005669101555053547,-0.0459782175733742
0.018366521911938664,0.010491753117509646,0.02693648235310184,0.03901541940002624,0.0032750778424218987,-0.00675622340668605,-0.01016412221026973,-0.057222790905898026
0.019527963494674453,0.009422715287209955,0.028138478446433815,0.03448203268069252,0.0014154777867359742,-0.009558302599169467,-0.007053987110043866,-0.07177499729203046
0.01815912866678379,0.009067368134733701,0.028047113572443653,0.031965698358543175,0.002122035219731267,-0.007496159178188711,-0.010148993798579335,-0.049032540611788925
0.01765554973385302,0.008218192768379465,0.030379309255531183,0.029192161818491335,0.00435949135928966,-0.002969732681349554,4.64728668486682E-4,-0.060846782204482384
0.01639663853654679,0.003446366385711063,0.029755290476157024,0.035864845111448385,0.006130545925589135,0.0024025348357363434,-0.002369121442520367,-0.051902064075927165
0.016375872298316604,0.010497096615791665,0.029085231714965035,0.03315891652614234,0.0040911800632871,-3.4239550285595203E-4,-0.006174932010521504,-0.041438406911482345
0.012949445444855181,0.015957859073811354,0.026043411342694486,0.030819441913241943,-0.004926545019077618,3.3541429315288974E-4,-0.013366488375485971,-0.03306265373366301
0.014761215805319085,0.01337335605344098,0.02530991848123792,0.030028373205318388,0.0023599198059339518,-0.005597323996566454,-0.0035727336599838695,-0.029339871542343233
0.0156488370991227,0.020733632358402303,0.022946288727493297,0.02935002223829112,-4.109003009120127E-4,-0.005966363699323895,-3.005008829120421E-4,-0.028075323186474096
0.01455819874685068,0.012931107503415756,0.023204419788912686,0.026919288458693156,-8.007941071433477E-5,-3.0277282560532855E-4,0.0022050130830804193,-0.04557123981581254
0.01202789601104957,0.010040932811849613,0.02199859392268867,0.029552801277632258,0.0019168555771359758,-0.0023434706049258905,-0.006709448534296237,-0.038109907989703415
0.012074989003899252,0.005927500913662303,0.020507541295841078,0.02662171712608624,0.0027493230863907176,-0.00142784134120037,0.001893164327244051,-0.05530123118087989
0.011074355455941475,0.007094373152836951,0.01799914758172071,0.025066077095470235,0.003131603882708957,-0.004262078167773224,-7.559274438135013E-4,-0.045113650052960357
0.011747440443165788,0.009222252513104337,0.017748178251743876,0.026187327882971283,0.002788239390355291,-0.005029424819589611,-0.012778305255039356,-0.041044657780886624
0.010961976922735518,0.0036063832375595704,0.019154331773668487,0.024689653621668434,0.009447840565238548,-0.0068385427858330015,-0.00965657022412379,-0.04473674358800096
0.007536220226118969,0.006070881917746484,0.02010849629489265,0.024958950746491848,3.2691867077556296E-4,0.005779956585997251,-0.002835116219763873,-0.03843778292075422
0.01133219474313914,0.011201497728384503,0.021539113522653485,0.023602869818487558,0.002810383844926863,0.002549260343719981,-0.0010190224523141296,-0.04267307177844136
0.005818826276635038,0.0016029158064748844,0.017943929702976702,0.02640425108796776,-0.0013931235152350987,1.616276593828207E-5,0.0015263433043001136,-0.05318662493447682
0.006869081183755203,3.587977745643924E-4,0.012988129706660002,0.022588365987676624,0.006924333261719967,-0.0031000648993641812,-2.1047256506064214E-4,-0.044873336352189645
0.00797860289302144,0.0016796053412292623,0.013119287703147853,0.020994659443630288,0.006318761822719987,-0.008657703893471048,-0.005244898294589138,-0.06156115516341775
0.009015917976707135,-6.31783509491995E-4,0.014064572550414193,0.02062867713399621,0.004406489845226549,-0.007251611443975894,-0.0067594480895719275,-0.07006323455499193
0.005890350242797855,-0.004729312944435007,0.016375388130710936,0.022472441850442573,0.007219874563900255,-0.004945953411781533,0.007574049351025839,-0.056265828445856515
0.0034327379858046206,-0.006688591408216673,0.0148533108100132,0.02490687542286331,9.259189006873229E-4,-0.00480206746584594,0.00200000765798964,-0.052063924085741516
0.005851621039823573,0.003660043091902446,0.014986426218550205,0.02163152902258132,-0.0017053738282412217,-0.0034382235832944703,0.007907982403316449,-0.04957518586877911
0.004808796097927134,0.004801585876103291,0.012678993627116171,0.01625157254731621,0.004386451346898939,0.0037626407845611494,-0.002558154756644351,-0.033945853316841905
0.004736432153263902,0.0028773671300862396,0.012706090731046402,0.02076817877706473,-9.618680177035317E-4,-9.458303003882657E-4,-0.003632141835889346,-0.05040957226591542
0.005837545119475762,0.001210321038482856,0.011704223419203456,0.017030303498986394,0.003981390728278044,-0.0016137369378888874,-0.00225906518420385,-0.040015419415270835
0.00624219279697661,-0.004007686807478575,0.012418092331232498,0.020645088969686448,0.004975425928852961,0.003002143646894613,1.871915545853192E-4,-0.046435976766269677
0.003988343603111865,-0.00411211590536677,0.011136220929211859,0.02064454409739606,0.0050332792608213574,0.001998678282662002,-6.915844739926227E-4,-0.05122164427753986
0.004844963506225921,-0.0032452839751791456,0.012612103428288066,0.017365459072627782,0.0035731012130982066,-0.0013157846858636774,-0.0014303238505251853,-0.04571685721989458
0.0046825244521123514,-0.0071681316275911166,0.010195216235773874,0.016498553681025478,0.007379251157852799,0.003480130416170687,-0.0057647450393247665,-0.041126118477587424
0.005272916560659244,-0.0063181352103238485,0.008887954478000193,0.015188996367850968,-3.0476516353744414E-4,-0.0018771995200239995,4.2135066287439244E-4,-0.044098629022462074
0.009249667612252772,-0.008638913992098755,0.0060389814888290975,0.01473435043330403,0.0052239320854390965,0.0035904562955492787,-7.136484410466999E-4,-0.05645777690667495
0.0046611091847707465,-0.00718851628749126,0.008426078906585125,0.016557399915025122,0.003967161306785087,0.0033976487945993846,0.006844301998887286,-0.03646528560392023
-0.001220506560353999,-0.006554227453651573,0.008494665646288086,0.019047589124534945,0.013526910622722196,0.0054303508038527305,0.010454504706112632,-0.04812304171404877
0.0025811061166599552,-0.011646280587348306,0.00835257916848794,0.015397529816123402,0.009356293127979911,0.00514344412536276,0.006730797960824738,-0.04333708477874984
0.005327550137404828,-0.008099722387812943,0.006084612275756891,0.009015427704731413,0.00413148309716017,3.027142672020145E-4,3.440473530555215E-4,-0.0435876492311894
1.2347711981545493E-4,-0.0027229195696942252,0.005181357637555211,0.009966767354610329,-1.2402122089701686E-4,0.0012047464212735527,0.011969399025540011,-0.046890404030256363
8.006066837022423E-4,-0.0066821764574728935,0.00505076576861893,0.0114092440035476,0.006661682140712303,-6.745344287928935E-5,0.005630146039086087,-0.03975958064682764
0.008208774175961404,-0.010017653531773613,0.006631382373525767,0.015305970649832638,0.007222424138941224,0.009765069244336034,0.008379745194436183,-0.04858640128301897
0.00632148332411964,-0.009330293207948872,0.005806294472614242,0.012081541232698292,0.012352476575963814,0.012465676654376753,0.017760381903235093,-0.03823987954455908
0.002234316627560012,-0.007022453205131378,0.007306771659046089,0.016596759749629496,0.01265029817527673,0.013597705713324785,0.016576062883122147,-0.040521550413484216
0.00730665951805421,-0.002875345747861532,0.004704141352958117,0.011964771876456832,0.004936989684282087,0.0077351441966621625,0.006390031332949549,-0.03907501135182328
0.002658323049835693,-0.007111470143080055,0.004421961676886501,0.008757205227940188,0.004935424812988393,0.006832661482713625,0.011109679365704428,-0.0299367553151314
0.004662817635737768,-0.009362111878921185,0.0058107118950200334,0.009555733762456506,0.01002023342795205,0.008172510317302675,0.01371513087267869,-0.032674284787171916
0.002771231007179533,-0.014112656539478848,0.0053201898362037195,0.009408173080112619,0.002756446353746649,0.009339299280121043,0.018354568056954124,-0.049861955869896946
-0.0010000643410719256,-0.011560814031266246,0.0038753755086728485,0.011987260264629913,0.008046001406300745,0.013153512165356191,0.019678338432835632,-0.04798402726704755
0.002925236247242733,-0.005777541289232722,5.544633617302825E-4,0.012040643375758442,5.168427129922621E-4,0.007208165853707895,0.014957781788791268,-0.04746465260903333
0.004858080855047334,-0.014737723099550439,4.069187676682099E-4,0.007818875350628174,0.005792607695220823,0.006299735379835446,0.01008807203621983,-0.035127679524283875
0.002430956370077732,-0.019298600191826314,3.0504432424875163E-4,0.0056361412167378055,0.0026092901864272077,0.008886017210795908,0.020006437031375182,-0.046214113239167416
0.004036676347716149,-0.014527217795548475,9.496249849479304E-4,0.009625437407625751,0.01034081328933227,0.004090912003662602,0.014541790478593818,-0.052908377289814255
-9.284781988995504E-4,-0.01255723625566,0.0039591803452430265,0.010396367869460448,0.00398672866048823,0.012359641912128887,0.01529174686005011,-0.03398041213012684
0.0035800275585365976,-0.011079509181379597,6.289019152742663E-4,0.008958475131346186,0.002891859983614604,0.006140566549837379,0.0072874713555039,-0.039742760038992866
1.1568910117660473E-4,-0.012638041621138258,-0.001804487556011216,0.0035459050026680474,-2.5895254278205835E-4,0.0019150906472967654,-0.001242759678725509,-0.02166726825700299
0.002250694628388966,-0.015958128310894805,-4.919960492563799E-4,0.004306058547307923,0.003020868809225953,0.0020048603127083807,0.008296430615067378,-0.024890964088864594
0.004443671523050557,-0.010559760665160907,-0.0019138339384212064,0.004620635880168308,0.004073762995771117,0.002782545203488292,0.0015458790510221399,-0.03332304210904196
0.003446676812289939,-0.006761076625967625,0.001731673145628043,0.004215201748415955,0.0038625133440784213,0.0012645048644412376,0.007976668391735008,-0.03972079371213599
2.288248915357266E-4,-0.015492349834888607,-0.0010829546787191487,0.010077507801934402,0.00451564444327474,0.007054639044630811,0.011290444177030462,-0.049011112448655976
-0.0010524574481222408,-0.014971627776375271,0.002192311628485896,0.007322316855589959,0.0028617582503722002,0.005412236031761382,0.008809412394737032,-0.05548391422735728
0.0017739028049797423,-0.01088228298769789,-0.0015567306192885003,0.0030619473900464884,0.007557871517783015,-3.5070416103987086E-4,1.870061923582244E-4,-0.047225706971849246
-8.094826518063898E-4,-0.016786034874672943,-0.0031268930016904142,0.005034041493667578,8.531947044475136E-4,0.0010593069163060715,6.195039209981506E-4,-0.04841393724448556
-1.1376627416322296E-4,-0.008865743878265558,-0.002616358122266358,0.004130531038431505,-0.0010179814676249872,-0.002058750081649812,-0.002879879849430673,-0.02994496025743021
0.002291335094126824,-0.011817223479719596,-0.0023700218911111054,0.006286332578400378,-5.256912405864179E-5,0.003291469371838203,0.006908416314480657,-0.03393607499433766
7.96068748683948E-4,-0.009125472430509056,-0.001634077366098327,0.008702669930827512,0.0026461694171995395,0.006482793091530996,0.009930218427570832,-0.031757922636883026
-4.793277537631051E-6,-0.017967909457350908,-0.002479933197753116,0.007665885994228008,0.005731569597092288,-0.002401722166805763,0.003908800255504718,-0.03829582815874317
-3.418485981949828E-4,-0.011425149446896115,-0.0029219058370342976,0.0039057591618980596,-5.610493445536229E-4,0.0034386479291301686,-0.003403223109451655,-0.03277819313112687
-0.0029146954440672727,-0.018544924705784293,-0.0052126615065439755,0.006288001415683617,-5.694190689684666E-5,-9.316082501838549E-4,5.273507744760369E-4,-0.03392565233514505
0.0017387161552857053,-0.013129587360270301,-0.004040329375441096,0.00528471830252877,-0.0022112717232404167,0.0017204294937351952,0.0012156635753346678,-0.049149123362516374
0.0012147308255761203,-0.01925519396062996,-0.0027664731645308956,0.00771721208146043,-4.19863165800795E-4,0.002401496950975646,0.006314966446810664,-0.053813411713089274
-0.001094309900721401,-0.013708209419827363,-0.0031395323596809543,0.004486170376756184,0.004453513394002348,0.0026933618000961894,-0.0071448511658475464,-0.05215076440978917
-0.001542485483205296,-0.020595636524013965,-0.005616840318290056,7.442882324538546E-4,0.0025138234483982652,0.0011622700556800094,-0.002008297249636717,-0.04291960469041673
-0.0015914590475888102,-0.016811508573670003,-0.008807595884017975,-0.0011531578634831686,-0.005598281423116732,-0.0056308293118032355,-0.001882341691604649,-0.0489469796515591
-0.0014812756753488992,-0.012098332953253408,-0.008705801089771899,-0.0013475009169112743,-0.002361156327578072,-0.0023387070716338948,0.0014291274559141164,-0.05472436328446615
-0.0027702800949718767,-0.01625124115050361,-0.00876132818451845,0.001280257354962251,0.0012229457577887458,-0.004670766730437159,-0.002187548321646169,-0.039384381050921666
-0.007228954464849254,-0.015187863068850165,-0.006159304046765345,-0.003253252267765692,0.008019482504388446,-0.010938501412009471,-0.006339896779547507,-0.0360730679470679
0.0018679407928360301,-0.013518295975464983,-0.009509456806333527,-0.006212125765972949,-0.0029184943872714595,-0.007723788214025529,-0.015455390982752382,-0.03050850156137325
-0.0030754262689187428,-0.009297143307757624,-0.00869699189401143,-0.007585799898689423,-2.4760068432226254E-4,-0.009606284712922204,-0.010680387494592889,-0.03504189170049498
-9.29772405284956E-4,-0.008869775285200242,-0.010105952192657034,-0.010505444709260917,-5.31211068525764E-4,-0.007900304398829406,-0.01010392292865954,-0.04008085913155701
-0.001303713459671579,-0.02036323759513812,-0.00828426593157951,-0.007487521904188184,0.0020972164423563853,-0.003806602211077177,-0.004762646057204602,-0.05059297003924347
-0.0012739895428184158,-0.020740389004522502,-0.008355127345664704,-0.003776093556269243,2.3600094923628679E-4,-0.0021867104836640924,-0.007081281557008869,-0.052513374520714126
-4.569020295765524E-4,-0.022914196098098086,-0.007977870216239915,-0.004379685980716009,0.0020435045065645805,-0.01239273914321676,-0.01032809501809243,-0.05944729046149239
-0.004512555585132604,-0.021511161982471803,-0.009585517984879477,-0.006872767065606987,-0.004853976738162529,-0.011861667781440674,-0.002468314430336434,-0.05933273323529729
-0.005164169199409539,-0.021838959460337752,-0.009998145918074975,-0.00821335234297703,0.0029603676274919197,-0.008242852593369057,-0.013082910079725313,-0.05553969546412847
-0.0032236580882515106,-0.020238181036543904,-0.010033227171202282,-0.0065996159680885794,0.0029370058335175054,-0.010005307487328627,-0.01634092990114659,-0.055796643078253834
-3.074232808285512E-4,-0.015350948854713763,-0.011210749427210199,-0.008002419162795862,0.003909016490059087,-0.006413090376120144,-0.0028040552413442516,-0.05076010161876864
-7.581836365617391E-5,-0.02469334096799308,-0.00656941479134413,-0.009390346469562032,-3.912660407103656E-5,-3.5681622994470166E-4,-0.003977777067736885,-0.06042487432361282
-0.002599177501693171,-0.01560035348458422,-0.010962963087433431,-0.007551924940445948,0.002674258251881714,-0.005186106725388756,-0.0050416725408662325,-0.05521650236192897
-0.004384303945581433,-0.014704554662854273,-0.012537053491138829,-0.010795454305097303,-0.004566901555566344,-0.011941123617716137,-0.010833886017067524,-0.051525602981276813
-0.00436481021658162,-0.013545446066692491,-0.014052470800955478,-0.007233470118196665,0.005389837981789599,-0.007187373699596719,-0.013028458819770359,-0.04995809004467924
0.0018946453107430473,-0.011019811120763829,-0.010984238972963165,-0.012213333996798312,0.001979080175861653,-0.008991313772578573,-0.015774329552082814,-0.05510258068094263
-0.0026710634609988064,-0.014635481369563687,-0.008741608728101405,-0.009658201801626165,5.176851671977832E-5,-0.00395703608975619,-0.0067728385749278,-0.05734245667694987
-1.2760232034327243E-4,-0.02463446723856175,-0.013006789407639555,-0.007622592350762637,-0.0049692746979455435,-0.005345978640707159,-0.004013354682128507,-0.06160765206491007
-0.0031725375596602517,-0.01694312313174619,-0.008903599356396206,-0.006080612400741662,-0.0021005334315687663,-0.004225534472423859,-0.0033445210863738044,-0.04031581196607011
-8.138413551611472E-4,-0.019002256811805094,-0.014653571468113726,-0.011189991119896511,8.133963358524098E-5,-0.005862398356339232,-0.009654567360172263,-0.05154913201886907
-0.006194504919996759,-0.01974340132029655,-0.013059594561230783,-0.014041791699467579,-0.0022778933039032116,-0.01267265873753451,-0.010451608879845432,-0.05645959473303575
-0.00691945403820359,-0.021052412716752657,-0.0136670366235038,-0.011327526666205411,-0.0049309449935815465,-0.007935953627868924,-0.005137766785361624,-0.04848654557782529
-0.005177994464334187,-0.02309638959054927,-0.015546556950166428,-0.008687055301640574,-0.005454033245647403,-0.004763570693977916,-0.004219538081332229,-0.053191047322928904
-0.0018883799734502338,-0.02293630333514628,-0.012799779987975714,-0.008681053633172052,-0.0013033797285641178,-0.00313837919117728,-0.004989229455509838,-0.0559470007362105
-0.0012483898158729845,-0.01636057696317499,-0.013255009039557156,-0.013714775559627957,-0.002644135708697699,-0.010236283930496632,-0.013365349869631452,-0.05013722280458997
7.956341892484668E-4,-0.015153631833372625,-0.015975749191815204,-0.01353849912605597,-7.450272906999329E-4,-0.009507797992069885,-0.016715977833562424,-0.04943215414209748
-0.002897157588262498,-0.016221841454213338,-0.016555866333479736,-0.012980942663131167,-0.006073639364686141,-0.0081092216443371,-0.01737093210003644,-0.049193479499760086
-0.0030212554281332103,-0.02206030417659367,-0.015095124961551912,-0.011808277525076596,-0.001915163047977175,-0.011627698953368827,-0.013748890411948477,-0.05642293532009326
-0.002382034871142078,-0.025779268301508857,-0.016328643538402934,-0.01230340193317444,6.493616856775024E-4,-0.009019224678493476,-0.006007265300689277,-0.06280142963305727
-0.0027488596830780813,-0.023293582725036042,-0.014610677725023625,-0.014197517102089956,-0.004749683779172832,-0.009449525276171399,-0.009106581676222974,-0.05492932204506259
-2.61204805217753E-4,-0.019663128318794933,-0.016690005255948537,-0.012146885286980373,-0.003850888081342088,-0.01081154768696379,-0.010255703352538332,-0.06522726397702829
-0.007085096857261114,-0.01733658318616856,-0.015291441369175035,-0.017620257357424056,-0.003183534343760213,-0.011369858973237694,-0.019123581273156415,-0.04631116397478382
-0.0010943739787186311,-0.01224206668017013,-0.0173391678904146,-0.01820552754045939,2.3244885120955893E-4,-0.003688315293525779,-0.010390076232809166,-0.04850641012606931
-0.003196678853069203,-0.019404212065109228,-0.0175325772250592,-0.01606756790853246,5.444500619629166E-5,-0.010383595758876792,-0.015400443009669048,-0.03738601765241677
-0.0020772710400650198,-0.024135181842512354,-0.015165865551872732,-0.01642144249479805,0.0031488735814372104,-0.004137547630770965,-0.0062298719837139485,-0.04535496512746617
-0.001389345029935921,-0.020192042579741224,-0.016058370576842278,-0.013782283034184377,0.0022977651078708635,-0.008333864933533022,-6.044087009644981E-4,-0.039410948302310206
-0.003381801739675607,-0.024833849162086773,-0.017592985605817502,-0.014444631395188296,-4.3103739459061273E-4,-0.004821882257593225,-0.001409453349670488,-0.03363741146549181
-0.004275600034071223,-0.026541870649077526,-0.016641059145631767,-0.014448419134894029,-0.0052645434178654645,-0.0071164171491708995,-0.008004037118339694,-0.07722224512941626
-0.002985317048290516,-0.02913843495743487,-0.016168048788122055,-0.016856616082188157,-0.005912999192397914,-0.007685931182137629,-0.010675428352501065,-0.06218589293454762
-7.720067531479249E-4,-0.027594769147971952,-0.016445859355529058,-0.01605757879609936,0.0023707171560657108,-0.00892432782504017,-0.004771532632840094,-0.06912057838892971
-0.0010206421092153702,-0.02674114782009689,-0.01744954062921054,-0.013304202573893415,0.0012793459607932133,7.116790363009913E-4,-3.7099503463390896E-4,-0.05177852057284384
-0.006928747992007616,-0.03264730683184297,-0.01656821483098535,-0.01396787606511501,0.003640004754371146,-0.004109888321741587,0.0068816857821130525,-0.04439847521943932
-0.004226923453120879,-0.020785584065245607,-0.017076112389944893,-0.012062010945110531,0.004415292454174972,0.0011277958410058858,-0.002218415515443243,-0.032681994875934234
-0.004149180353421457,-0.01341515294425927,-0.016124573160993246,-0.01734763873168128,-6.137225486874791E-4,-0.006460437635517482,-0.002279158710220581,-0.028485640227468367
-0.00489781777080894,-0.00846229671583876,-0.016010530255600872,-0.017525280572192284,-0.004271974046706928,-0.004547843615480512,-4.977789200522703E-4,-0.0265327611695808
-0.004949307362036465,-0.007669235621823135,-0.01624693748602658,-0.014437180440440636,0.0015972809816679448,-0.00242890330946335,-0.004527643323757001,-0.04180048862255124
-0.002394360448820082,-0.012942870313793486,-0.013206099215892005,-0.012790939853606196,-0.0017190033490900615,-0.0028985695293054837,1.448168674690784E-4,-0.03053138713280247
-8.535438285543862E-4,-0.014670479836220954,-0.014100784765891805,-0.011808384513486245,0.003516951385051616,-0.0019545635098108076,9.134780608739897E-4,-0.04757325274782142
-0.0024297966079545293,-0.011909296386741049,-0.0176196117803429,-0.016075428361847225,0.005800978994092069,-0.0036437775067341065,-0.0035932206922756416,-0.027078781160286818
-0.0035976310071173688,-0.020891396130054606,-0.019075922398950205,-0.01475537773186137,2.185591931481066E-4,-0.0034985786322414844,-0.007806153840487951,-0.05360479632566442
-0.0013452782774393533,-0.02470964120305305,-0.01865933732743201,-0.01764069493367547,-0.006368423737684231,-0.007516021583040545,-0.0033176270111878905,-0.06662703267738332
-0.0027097377045325766,-0.02035401245126557,-0.01829361264142181,-0.014910592674888154,-0.0031811167298347164,-0.00489908383295567,-0.004603082757615682,-0.051247787509145305
-0.005816956106040419,-0.032953156273204214,-0.016355533533867737,-0.012049423555281649,0.0012715252164555678,-0.004796028246829784,7.794232393183608E-4,-0.05534453777974142
0.0018775096209444687,-0.035245539376143824,-0.015173070245513674,-0.011753393782642462,7.620379938983304E-4,0.004010103291079494,0.004583430660573558,-0.06184592243784567
-0.003072185932606483,-0.03399603438070646,-0.01716184779736252,-0.007500983413404422,5.825544429844219E-4,-0.002918767950206476,0.0010789534884344883,-0.04814597683081855
-0.004670268580471844,-0.026078173355077207,-0.017552894319645043,-0.014562560267123112,0.001463039197439716,5.953110772922222E-4,-0.004639495728057379,-0.058408341820964604
-0.005013363649792349,-0.02064324240840945,-0.018068094564486287,-0.015263021161804786,-0.009581294567935498,-1.0025766442015947E-4,0.0017734969212947328,-0.04692477302320201
-0.002008450974249183,-0.02690410169521586,-0.017422832260506123,-0.016101382689990725,-0.0017435984867393629,-0.0012235866791690385,-0.008527907327304879,-0.05029354967844599
-9.1713604888281E-4,-0.02839104768532476,-0.016409055871083884,-0.016080893460687987,0.0041385245642030595,-0.0022087205811304614,-5.112552060759327E-4,-0.06125485013518088
-0.0035285578522731924,-0.02650454683444919,-0.014060187670698136,-0.01065369504833741,6.430003379557016E-4,0.0011495279054951702,0.0048433236502415525,-0.05458097683981888
-0.00270668546712884,-0.020252589313355555,-0.013745845356526981,-0.010234580955780958,-0.0040237470563796235,0.0027213901106876164,0.010165174721761107,-0.034201262768681656
-1.4073639821219716E-4,-0.019789699829515995,-0.016339713812429258,-0.015180694799067402,-0.0021563723573945486,-0.0052140703511478585,0.0035269071046162407,-0.029876901628783533
-0.005798394760652803,-0.021152110834902996,-0.016255447447477256,-0.013157639573676888,-0.009476149636847803,0.0017606906674105867,-0.0030834237792058444,-0.025534489079959796
-0.002978692387874334,-0.023509187501921176,-0.017829973278272494,-0.01717587046057138,-2.0782310418994705E-4,-0.0028962063479899074,6.603900197056255E-4,-0.0412747387642397
-0.0020486466279056466,-0.032189355670748904,-0.01581072465909386,-0.012491959063433327,0.007718268854090336,0.004332125650182628,-8.27129466401695E-4,-0.043947044860914775
-5.596653183003876E-4,-0.033493249690578965,-0.01512658279485477,-0.011100149699155763,0.0030035147226819504,0.0027702683092514085,0.006671316128482574,-0.05511597622765857
-0.009039842109353814,-0.03486098401666927,-0.016314792558530328,-0.0148498160117615,-0.002751618962994676,0.0015407368426918827,0.005543454043718157,-0.05102186416287581
-0.0012430614734811132,-0.03704540662149377,-0.017997907829213004,-0.01467011778093345,-7.470590151218934E-4,-0.005390047065416864,-0.007621126345801244,-0.05371923694816253
-0.004265575444587519,-0.04722809044669487,-0.017338787122525016,-0.018144423354791567,6.851467389561525E-4,-0.00356021700155181,-0.003588358466969179,-0.05459442269324271
-0.002342219944257088,-0.049321525274643944,-0.020725765708923427,-0.016433256549150427,-0.005480023719571938,-0.0050387177154748875,0.0013598040973463999,-0.06364012670073975
-0.001155307580748818,-0.045337881888309936,-0.0188767355976496,-0.014249900409380886,0.003295987316417942,-0.008237578839063297,-0.003979432669484268,-0.05535580731053041
-5.589158981077534E-6,-0.04896076407439775,-0.019322886014886177,-0.012192079669868579,0.00295311736762922,-0.003494964512828085,-0.006890674566751299,-0.053131004845294115
4.6472140724520124E-4,-0.040257220082386594,-0.020335552318995802,-0.014133365564074948,0.006448895082158852,0.001955933416292315,0.0026668160718723998,-0.04784980677514914
0.002528812652469293,-0.045042517603184694,-0.019249239031384372,-0.016453091727315457,-0.003986691125747933,-0.006813663806822886,-0.010795037688607387,-0.053164521444220576
-0.001676387094372421,-0.03654655273298551,-0.022647344870229125,-0.018040579264814678,-0.010266856554039755,-0.00459498229638288,-0.008639040375386837,-0.07308357031130207
0.002402778205240571,-0.03457035198581863,-0.017874429117940793,-0.022817362355727025,-0.006709232015768183,-0.00790881571525704,-0.009518830877292437,-0.0615125562486771
-0.002662094009523312,-0.035812006025947855,-0.01681292606503869,-0.017136652299710436,0.00448234589876415,0.0012136714054076137,-0.005385825077759596,-0.05973018179160732
0.0010765405643130622,-0.03422203436768948,-0.018595260402080035,-0.011832052374966926,0.005737685771735162,-0.0015298004879495362,0.0020306698562415166,-0.04992128209863521
3.89808249965685E-4,-0.03260884765073832,-0.01987528035128826,-0.018020342982022194,0.004441206047825002,-0.005094236530243182,-0.01002016116949236,-0.022264875611296624
-9.299144212714804E-4,-0.03849792833091157,-0.020167153935294543,-0.019672546020080724,0.006223622910375558,-0.01339873056452365,-0.007163040701892058,-0.02692077160405193
-8.844021542888982E-4,-0.04045851700961211,-0.018256345061357135,-0.020173943874569493,-0.007314285249042175,-0.017324252220129007,-0.011022894954463217,-0.0328189687190861
0.0023544083291529914,-0.042347349422772775,-0.01880096047677905,-0.01819738432483952,-0.001537746984201381,-0.004773505566483383,-0.0139320647397627,-0.04379973764873336
6.166263687222934E-4,-0.04958007713212288,-0.018779899614808103,-0.0150970187584145,4.866445981493201E-4,-0.00706797736821765,-0.01057498482565311,-0.060564450070634754
0.0013648808343220663,-0.047898704166629544,-0.021139508440708048,-0.013359062741642466,0.0020509020869201463,-0.0066894077302649775,-0.006634689837000289,-0.07092434865798611
7.293861538151603E-4,-0.04960188715941899,-0.023034853169967104,-0.01824216448507092,0.004904371070089761,-0.006584952880580908,-0.011894702316855174,-0.08164843086398461
6.446674364966969E-4,-0.04747192253119667,-0.022394759651849203,-0.019980607195830134,-0.001392668094300148,-0.015052014877332192,-0.01865849098066644,-0.11850224039819725
-0.0026871630362343144,-0.03968415140411992,-0.022599677214503816,-0.0213800954147312,-0.0032368782010553333,-0.015902358607478254,-0.02857973206985392,-0.1012177537697818
0.0037737714701557862,-0.04361110071629949,-0.01701340021360945,-0.01548892146604336,-0.003107742409576547,-0.0150011295592733,-0.016711365504877652,-0.0905966053835853
0.002941103338887526,-0.045788591286788916,-0.01931748293372189,-0.016058737070963496,-6.602066843775173E-5,-0.010815520919545909,-0.012443546489884024,-0.07031049172741366
0.0013005618094264896,-0.04510261274583045,-0.01801132586830015,-0.018045859193236934,-0.0023391282844549112,-0.011533581236774844,-0.008999101187459129,-0.07088432692512227
0.0012018168811415192,-0.046400866628512984,-0.01867142206510777,-0.016467393941709957,-1.712164923260147E-4,-0.0136635295725161,-0.014869583130946818,-0.07418356703424131
-0.0019090267642308742,-0.04529692887628438,-0.019189347950774552,-0.013333155773612153,0.002124539116231694,-0.0178290056123494,-0.015509178073450518,-0.07746981032737389
0.005277653904169054,-0.04577858411963962,-0.018846096327599017,-0.015702344366333422,-1.4276206893100562E-4,-0.006267155710054059,-0.007333473309527749,-0.07354067393644814
0.0011760845168259269,-0.049624664717217784,-0.020003982495793684,-0.013938011262670975,0.002831993046264623,-0.0036692617733745905,-0.012671423271368087,-0.08106243215729012
0.003502513966279527,-0.040101938401514325,-0.016960103325837913,-0.014601614567924703,0.006157229921771776,-0.009406335639491331,-0.008861574631033707,-0.07447887254987552
0.001784987892058363,-0.038436105698998566,-0.017787117477269885,-0.014761401459457965,0.0022859424312561046,-0.010906690522011464,-0.004221608705667277,-0.05987776710459882
0.004150803637402218,-0.036531722019841235,-0.02056095181223993,-0.01716990394816977,0.00712625002399139,-0.00953813609205034,-0.01040829674481481,-0.06809724226532457
-3.8743670541676505E-4,-0.04372689336105534,-0.022102551691820686,-0.017985339140522905,0.009611935037207317,-0.008366967912259864,-0.01854419142012769,-0.07055757815797566
0.004765407752796437,-0.04214241764225816,-0.022376914305116437,-0.01570178185092299,0.0012202082929910355,-0.0069805225413692076,-0.017528372282102217,-0.06486180077090767
0.0025489128661838095,-0.04419429732153275,-0.01915486803917118,-0.012622159523450941,0.0032527775482877504,-0.006273628056672149,-0.01084682768035388,-0.05775614753344893
0.0011670149412030682,-0.04218747774224023,-0.018655550363407065,-0.009768157350816374,0.004283280952371702,-0.003391914459819079,-0.012149771593015524,-0.05836160232213015
1.8256619028636872E-4,-0.045024232637616866,-0.02122688354874441,-0.015845785008056237,4.7238210896925715E-4,-0.010739225866042878,-0.012132888697804102,-0.07328531262279357
-5.61824051782563E-4,-0.044081855471027324,-0.02390914936961786,-0.016270075750220676,7.706495233747848E-4,-0.005471411102480355,-0.010708162742897539,-0.06318890677106105
0.004000849587636883,-0.044590752121766476,-0.02210972300264154,-0.02156734749604062,0.0025249481108112885,-0.010393090807677896,-0.017556433214389332,-0.060142626551318364
8.146721728194185E-4,-0.04424614720582618,-0.020986916854664583,-0.019493780167326405,0.00725786168287062,-0.003753666937011649,-0.018154568143916066,-0.04303038995285965
1.8635073113010424E-4,-0.04146300971374795,-0.02039615162060829,-0.013091261248742072,0.006019387959587063,-0.006305528151390171,-0.005188417244624533,-0.05154301426306824
-0.001292095157358544,-0.04429154166701917,-0.01927111086574903,-0.010088648086459383,0.006550195787326915,-0.004246754537734142,-0.0010161577211053382,-0.058158239526292954
0.00225518566101554,-0.04092725736977855,-0.016272994183624212,-0.015157961954973495,0.0020053801514213314,-0.007626565053444916,-0.009197976835243052,-0.04546604370028207
0.0026991710403050403,-0.0385008439258286,-0.018896666331199078,-0.013299601238469398,0.005999751469248421,-0.006697771553052651,-0.011249805943253838,-0.050103149034655015
-1.184994272119637E-5,-0.03612529323531316,-0.016199728665993375,-0.011445029079029292,0.00120316245622465,-0.005688804295490424,-0.00653210339702695,-0.0494315196114
0.002467134803858943,-0.03685251701113096,-0.016670104544236904,-0.011305150618632213,0.006785390806593498,-0.0025541824037366516,-0.007266542694510781,-0.05932677215179288
-0.0015397144324351406,-0.042123926852919644,-0.018587281334834296,-0.010513152910616115,0.008006579276804308,-0.001181590765129415,-0.00618893652542075,-0.07505719187073198
0.0020397486737032946,-0.040631891225916573,-0.015533033337810738,-0.011468440453211522,0.005387471985576175,0.004932920399394642,0.005432695051900127,-0.07822387361046147
-4.86798283327526E-4,-0.0435150321290849,-0.014504612733978737,-0.010653246726342417,0.0018936991203806943,-0.0011149390266920016,0.002935210220654318,-0.07598901025110506
7.036431663710229E-4,-0.0376414246203821,-0.016154736941433503,-0.005866394220799364,0.003459590797385782,-0.0073872544298709646,-0.008409939980330232,-0.060784405944555066
-0.00557936897493395,-0.040278061718060434,-0.016916375251238902,-0.011089263458423697,0.004018315692546714,-0.001290631431953505,-3.4849174398060687E-4,-0.05612317496053808
-8.637638364791405E-4,-0.043842189571734816,-0.018716063461861405,-0.009367968097795151,0.008800960816406704,-0.004090449383289521,3.126941269919925E-4,-0.05213155924544551
0.00116888927771541,-0.046831649313659234,-0.01785751114970767,-0.012508473001302513,0.01088804030163743,0.00204645849458816,9.526830301210209E-4,-0.05594285314043892
-8.849356499947212E-5,-0.04977648939334092,-0.012749382647511234,-0.007854287104973766,0.01331001451645601,0.005783956184498765,0.006468133333023586,-0.06642147449417984
0.0020406522924224036,-0.04471756217140239,-0.013692447425170892,-1.7192279857974812E-4,0.006622886073451729,0.0050254313611145735,0.006249464376665951,-0.05925674241127409
-6.622628927360063E-4,-0.045334047970659576,-0.015458434054024691,-0.0051592175402720795,0.0011378921095075614,0.004808676631320902,0.007590751213406237,-0.06094854014068082
-7.542450127619011E-4,-0.047867930422177,-0.014191810371095464,-0.0059345201161568875,0.01211297518291554,0.003939064107262361,0.0035048970022216407,-0.06433344605251401
0.0022626363368717767,-0.043953092025340854,-0.012192619051392855,-0.003055154716691594,0.010951009459444489,-7.867843637254634E-4,0.01310079070522135,-0.06047368109412369
0.0014483859171540443,-0.037946289898353844,-0.013799661808684608,-0.002919842534266143,0.009714142359193623,0.0015283955332871494,0.013940481229632509,-0.061870044255737666
0.0021286385313437667,-0.03749803952584124,-0.013187639696850424,-0.0017697624798289034,0.010607364135277877,0.012356266957299593,0.017178187870184734,-0.046411662098926026
0.004075064109459015,-0.049853404592637526,-0.006706576347964596,0.002154714214724749,0.008551557518264759,0.011426940035289202,0.013235903916334066,-0.05565170666638213
0.006351345553211465,-0.046796686169299745,-0.00928736535933839,0.004809667090797981,0.005668004069455434,0.010556031355769043,0.018834994268176364,-0.04375954297977412
0.005089591790337287,-0.041456542237756466,-0.012404950645398899,0.0013597004349460995,0.007958780435986532,0.012636175372806386,0.01673714155088089,-0.041706273390539464
0.002304700577729852,-0.044072494423221656,-0.007891688567285794,0.0014688276879328578,0.007092790620494201,0.01464458712819989,0.018901107803702098,-0.05246764661764443
6.203241078621887E-4,-0.04111557958418922,-0.009888994881471632,0.0023589113021978687,0.012245624799174534,0.014752306764136844,0.0147906710655305,-0.051176604157192336
4.8638851156120444E-6,-0.04584326462766683,-0.007216798899391221,0.006449936131885201,0.011323647014458767,0.021212670194157988,0.02310272204332646,-0.0708708200415119
0.005101826624102199,-0.045103003798416336,-0.0053704132107648996,0.00930403851827821,0.014455344022556618,0.021638285122063894,0.030826470909481853,-0.06695751242998198
0.0012427480576118401,-0.048770849440677895,-0.005831149324884007,0.010784909337192687,0.012899021405236478,0.022538586931657455,0.027281626881067823,-0.052292299416427955
0.005548945241045975,-0.04638681216859613,-0.008291954115734627,0.01116952522058677,0.006489960544375237,0.015663584456929024,0.026761148582787213,-0.04424219495229124
5.6998644882434E-4,-0.04259050312600779,-0.006325989255899511,0.0095860603433502,0.008448473253813503,0.01690113345089686,0.0197154243797921,-0.048099121756040704
0.003684179771612401,-0.04665727767272153,-0.0056645361909118605,0.007458244415204931,0.008380547798014096,0.01711458132861723,0.01906588362112154,-0.06041973175419495
0.006505114723066743,-0.04115846635921275,-0.00493372470091169,0.006687783911265216,0.0039037384548463645,0.021639281277464024,0.02546086689754548,-0.05922413671282222
0.0025947465062785605,-0.04073271241904088,-0.002710225219602734,0.010803641268678471,0.00847070982806503,0.017897851669187545,0.02558716508083232,-0.048606925303425294
0.00869045247720364,-0.04488002759069057,-0.002349360994363323,0.01504372102246953,0.009455605975749496,0.023102074506748494,0.027972793419667918,-0.04526183090027118
0.006057733600918478,-0.0451128509663658,-0.0032460342457242704,0.014459652213231587,0.009844652756732844,0.02215206647915852,0.03494049654721036,-0.04199260901571972
0.007601195958461525,-0.0401002849174936,-0.0023476908565693466,0.013635212261076887,0.008738303762169039,0.01932615493337605,0.023843924182324446,-0.04569452268002963
0.004915764887917441,-0.03707402265129668,-0.00455156620586559,0.014801791723892635,0.011328958795215264,0.01775368196000815,0.02445020102030244,-0.05384632143311765
0.00563778201036384,-0.03151226336837422,-0.0017599536707207754,0.012342051679062794,0.002146709379911285,0.01901693516068594,0.02053730634553711,-0.03617596488874898
0.006480133939243101,-0.030666255419683725,5.685957346574187E-4,0.012590367462377445,0.013734051921882203,0.01798419872466648,0.02184578024239353,-0.0362498674110963
0.008483395146882724,-0.02517534955487173,0.001746854929476358,0.019250420425116693,0.017218180205281028,0.02284342475407221,0.02901448622182958,-0.04501001727483017
0.0016480338626869964,-0.02176435944661492,0.006849300696318097,0.018980517561369613,0.010378812686585486,0.010988297230336683,0.02835380071181645,-0.030947698175208267
0.004266272688827056,-0.018676278759996955,0.00395632190195277,0.01771374029176016,0.007770208328670169,0.013416526560967049,0.01863954955940031,-0.03448501810256164
0.006791142231238816,-0.026318719184106745,0.004686214823375611,0.015058722415298492,0.006776823499305841,0.010570391659362108,0.016977458955604614,-0.0420064108006288
0.008292511127092332,-0.02323762917177018,0.004480995814966199,0.01756540487018856,0.00783041316205404,0.01587782135854909,0.024690229952382375,-0.03587594807299226
0.007435221778986406,-0.018657591552683758,0.0053586458221791325,0.01902630601532223,0.007925439901984688,0.019628503214775047,0.03212912341594163,-0.03846771885635717
0.0065846450698208905,-0.01953855208904244,0.0069063200362237676,0.019162664021397248,0.004851804285238978,0.0182575102969959,0.024890708273596178,-0.062268703053048595
0.004446762781951545,-0.018490344189302656,0.005369228716812176,0.01989703774233019,0.013052213540862398,0.013083561032879084,0.019348948162371985,-0.04529131891194136
0.010825588190188244,-0.013996294865671733,0.00405675889821657,0.016537798134570188,0.008995018353775487,0.015530231939540687,0.011031171125875133,-0.04756622644673881
0.004877022710677461,-0.008907252396641866,0.007429604781468968,0.01441160992093481,0.012348435171724145,0.011760896699620845,0.019763358936384784,-0.020244381876727925
0.007941644900043473,-0.009733662722467666,0.007657986894632515,0.01913302307247179,0.015229027513690414,0.01809671521631149,0.024210102063767506,-0.02865557416574495
0.0116891816058549,-0.012348862621200413,0.006409851004198476,0.017307149579988263,0.01588435496528027,0.009318975282287879,0.019873872907018968,-0.03268167578528086
0.009040746354295272,-0.01077422225883694,0.004989304663641925,0.014686706075260531,0.007162957662151146,0.006419736331704601,0.01827640688304877,-0.032568095351180375
0.010228574726490644,-0.008226769043840147,0.004852838171751431,0.01267195738571151,0.009113365482232901,0.013076947142356991,0.017025270313444342,-0.024715913800337455
0.009565309229020038,-0.01271727820627944,0.00558626741544695,0.013693478532400319,0.008660456861981742,0.008351662092023041,0.012226170077547862,-0.021385844861365647
0.009606450720720177,-0.012082857728804046,0.004836079424328225,0.016866204579486847,0.007729867381721928,0.01513910617500681,0.017281391084314174,-0.04786874076608764
0.011522290014615782,-0.011551652604607393,0.006234777171184421,0.01919954645117528,0.011767190600822547,0.012696966474249038,0.014314405694436583,-0.04945896525621623
0.012196682837710096,-0.012386615106427516,0.0060021958980917885,0.017560479764899273,0.012794468295764508,0.007771516840195869,0.009779934436340888,-0.04295210784605403
0.008198933677392432,-0.0065406254856627865,0.009043607075686647,0.01723664432049215,0.012493869279077825,0.005230808543495604,0.013845393119017413,-0.03157286407728204
0.009566644353805866,-0.008685248669402929,0.008522028764937718,0.017035830359894748,0.011468964865975113,0.004969692138654958,0.006725778080337064,-0.04721426860208135
0.010788571952213276,-0.012614920626857144,0.008224875438287869,0.021511860991613813,0.011359932529885104,0.008684227482001294,0.013424319892385106,-0.04150294822650767
0.012722697556217716,-0.016695485365970538,0.008414808151982214,0.020128225290412843,0.01670383532572658,0.014893433582151885,0.0184910309933295,-0.05621734729160617
0.015386673263391385,-0.01562827140332734,0.00902224359262946,0.029206108030143164,0.015267266958940805,0.010845956325536706,0.018509478082215147,-0.05875794522507273
0.013419041140831386,-0.015991169020233082,0.009777100797366671,0.028014778709097174,0.011140789375918066,0.0055811031915064995,0.013019506307069299,-0.04104838289255489
0.010551100773390422,-0.01518333559540142,0.009547457280579059,0.029325379852495392,0.012605984732584981,0.010716283372956145,0.014553386672824369,-0.045018870100202515
0.01419150647936462,-0.017112031539185425,0.012292146701783038,0.02738752838426938,0.007862812697648752,0.014242880453552426,0.021147570263726184,-0.05854891227007711
0.010520662222627984,-0.016300857126272165,0.009867056143319139,0.03437444536223298,0.012835536949316596,0.011461300973684887,0.02082778548988082,-0.049844330978782346
0.014251813470419112,-0.012619912544804948,0.013282694578933158,0.03350641036025693,0.011216371531417352,0.021181589396609163,0.02722358384698244,-0.043421736870154014
0.012349863166461608,-0.015319554518530317,0.01568370084648241,0.035393237113052506,0.021489812477424205,0.021401430065435312,0.03434956763378129,-0.04682195892845586
0.013929137318059772,-0.01564388974182449,0.015407125595711842,0.03304825355208734,0.02042087547002915,0.026347523310602035,0.024261523031693707,-0.050296017154111826
0.016198492310784567,-0.015499331812379563,0.013412281311654476,0.03193406912252095,0.00964584056118633,0.02046150946032433,0.02220546034490954,-0.0399624767216013
0.013034181182037806,-0.011971344517232259,0.014208637782340678,0.03245482323714462,0.017409381071707895,0.023559410707837927,0.033012520244057944,-0.021545736095826995
0.011374345573801866,-0.014881360190352676,0.014440703555383887,0.03338845907413506,0.023200674463992457,0.023804786282417962,0.034319811253290027,-0.03760516889448092
0.009100410462227926,-0.006844867959618877,0.016190673537174047,0.04074610573218741,0.013775496479944834,0.023157847125349827,0.03688034026260295,-0.0344427964720533
0.015621924200457396,-0.015059117388678175,0.014570729761575,0.03679045490345223,0.019793028668409034,0.029295834443207866,0.036803629019195386,-0.0347203028394179
0.009808904305993441,-0.0109611129998371,0.017117963039925264,0.04217980846549974,0.018471395021433596,0.029377141444928007,0.041853782884729275,-0.042559591191151706
0.014344641377732491,-0.015965999834947908,0.020235438449463735,0.042511489080544126,0.019600000996119298,0.035124166208593766,0.04285461764578283,-0.028638445665265626
0.014219808679099312,-0.01952154159918929,0.020627040760954594,0.041316453185214305,0.017687055671275057,0.028319417498177787,0.039084006657006176,-0.024770259883460717
0.009289527530313441,-0.021686938983461485,0.019448698690575836,0.04446647180097093,0.022990238694653695,0.036514320931775104,0.04619036627555931,-0.004976940941917494
0.014962490953022793,-0.016558543044174933,0.02448213129695362,0.04612065063429484,0.020136627904804895,0.03200440137294243,0.04560089632151959,-0.022084707161163706
0.01875192150756729,-0.019317186365433503,0.022653744086936198,0.047547562172075904,0.023940441615979514,0.04046862344432573,0.057503911287306,-0.034232347347004866
0.015641905031226724,-0.022241629799083482,0.026421109874786845,0.0445334059816535,0.02530169583255126,0.04692360839241924,0.06652154578040112,-0.031247987202352823
0.014266969016489559,-0.02163781010687063,0.024396024313245643,0.050772437018938694,0.023468900962569546,0.04124785399039752,0.0629535842811717,-0.033818080333046015
0.014876256455055619,-0.018356803678800587,0.022431169187298938,0.05106757657237148,0.02778647650241787,0.04462091731290853,0.05668945016644241,-0.037199492472004915
0.016511639821387022,-0.0110517703383039,0.024805061029186486,0.04974413463690763,0.027263464437041047,0.048762895657029966,0.06602510490566546,-0.046092458984537565
0.014184177550612662,-0.012383115085174564,0.029421263459425407,0.05511817834493171,0.02561002135887896,0.05115276700653077,0.062809818881222,-0.039191032897930425
0.015415012920085649,-0.012076506795084855,0.031213612053735348,0.05947577766025476,0.02938064601483726,0.04946987941229961,0.06961014259031367,-0.035970863499570634
0.011554507843673706,-0.009177774069039907,0.030731286335683554,0.0557412583489256,0.027324678386701377,0.04782593235487715,0.07719216231786666,-0.025667108970357073
0.01358126386984783,-0.012338593534807027,0.0294523956615676,0.059196540736628084,0.024970277909642666,0.048873867557955496,0.06932427440636786,-0.01771314059250737
0.012736188597740035,-0.017027731917201513,0.02931429839158087,0.055743332388379384,0.020297781274554578,0.050533171484308845,0.06404773578153675,-0.039582728558160515
0.01592216720111071,-0.01008508417274874,0.03105820658054965,0.05884499750567587,0.021036818827846443,0.04904468411483666,0.06870754581486918,-0.02200617732280934
0.015769466620504484,-0.009180920680621343,0.03348099017879293,0.05935288626858756,0.023691717892274367,0.053607632418148046,0.0668489701822696,-0.03353461527135502
0.01940770992540077,-0.01615979725224543,0.03456367153704197,0.061025037427115104,0.027237928525154505,0.05416899102390081,0.06822791891870826,-0.048295161060381876
0.016911874517565477,-0.021343987364014584,0.038112527934118644,0.06724362475327546,0.02948311463325714,0.051512094607751614,0.07594861690854529,-0.06319182171225489
0.015981724310144507,-0.01809886265646185,0.03760226421194764,0.06763112901890238,0.028689263558968933,0.057361898098508175,0.0815421015730521,-0.06015098607110792
0.018461359397289507,-0.01221452288412352,0.036156854916193665,0.06322761739641782,0.023957464048872418,0.0587748044152489,0.08231140752531337,-0.05535933941245194
0.01849480078655091,-0.016506838060406162,0.03541162312246381,0.06313196259963512,0.02150089840876557,0.054179487896748084,0.06836918836277461,-0.050867819513054
0.015572015565936926,-0.015150339412409146,0.03660484672600402,0.05984564383054267,0.027191207554314943,0.052668836777573926,0.06820923353863807,-0.036648754216309205
0.020508139813695182,-0.015774397205153706,0.037748210841401154,0.06277149141191676,0.021963808451167046,0.056316644476132605,0.07398550407721487,-0.036668863905835125
0.015034035642917366,-0.012468992185724222,0.03943188837008047,0.06557886838402807,0.0273238232777979,0.05191441067557746,0.07829077957935843,-0.03483289935072658
0.01940394246315658,-0.01099433778527897,0.04009528578037418,0.06841961565865556,0.02186361920992372,0.057577117369879645,0.08362108614211494,-0.0368324749791416
0.01828872671776163,-0.008900394322823654,0.040185144120943476,0.07087902628003634,0.02457788637032043,0.058389476735112515,0.07901478275792137,-0.02713065805158506
0.014573771815073416,-0.007572515485089262,0.040814720965817335,0.06002493216495805,0.0299203591243151,0.054859322415503946,0.07155817980671483,-0.05138884247608705
0.01737502516819997,-0.00426473656173949,0.037937898272893164,0.06423976433894305,0.022305795863194585,0.051796284888556546,0.07774064442203887,-0.040442340965244586
0.01581543150259641,-0.007007343932553159,0.03962451207706408,0.06807805156390326,0.023574148830267733,0.04948576336693521,0.07186659531929479,-0.03710023927740353
0.01705529107893758,-0.007649794706355008,0.0397861143806458,0.0639450367690286,0.02939045396436609,0.05724709280095704,0.08096451908945489,-0.03669246854720659
0.013222231344749627,-0.007553631837489726,0.038320876433213365,0.06586837572940946,0.024665005500733608,0.051995450450941366,0.07827157409875272,-0.0204861824900103
0.014147099416250399,-0.00894869114248662,0.03675671986794371,0.062309031105046805,0.027230068066492367,0.05606346109165646,0.0747073394915549,-0.03008246451713921
0.016958515361333092,-0.008615279198965941,0.036665350163369956,0.06333040004283755,0.023747431713762385,0.04973021910518263,0.0760026221659456,-0.025685072307255995
0.017706303563333668,-0.009693273282592728,0.037116428666486755,0.06104591128946378,0.031061352580289463,0.050401246522390135,0.0725799138404144,-0.036137706780399924
0.018923584882682754,-0.01039625222386638,0.03835945558078372,0.062102616913877064,0.029068755471327798,0.05271038775666931,0.06869320093337956,-0.0351911911224492
0.016009504981643337,-0.018167881238931857,0.037904903906434056,0.06355300074831409,0.027054582100781915,0.0564245566651905,0.0744634612790924,-0.04793115711737386
0.019881213174580577,-0.012147639540426195,0.03707000199089272,0.06273094238065464,0.023801519418142035,0.04954335162827759,0.07623846048325918,-0.049267912594978966
0.014700274179700762,-0.01259039383380557,0.035381081939729365,0.06121113159274231,0.025567928792643864,0.05067266893393836,0.0632881464079748,-0.05694401418913152
0.017793491315507632,-0.016910748039320748,0.0345446034284772,0.05849308035577411,0.02663207476842995,0.047034912231287224,0.05750464257935031,-0.05457850878661482
0.01306680934630969,-0.016080264711065544,0.036406907217954004,0.05925277296701495,0.031004272669519873,0.04792053055767696,0.05618970721308846,-0.042561572828132714
0.01514250639850833,-0.012289938154763747,0.03535671032055843,0.06281291682764237,0.026234059809172476,0.04993926574827576,0.07323875098156687,-0.04182601242527017
0.02085984138960127,-0.009949593243441043,0.03554645082050753,0.05705472821398134,0.027521066935293645,0.046848466259529556,0.064917805741834,-0.02190619881134226
0.017899590962273303,-0.006978186068676313,0.03744386819672707,0.059951636279355576,0.026132552629325068,0.04562932935843793,0.07102265769117076,-0.02907226703690939
0.01584379722461943,-0.01051072419332413,0.035765315992268794,0.055603276730875215,0.022989540143390292,0.04332542095897796,0.06486168758624769,-0.02765643229681063
0.01800872984399818,-0.012205245903920105,0.03230867671582234,0.055035465874390406,0.026428480977354077,0.04311330220589465,0.06304189133474121,-0.034570681592620243
0.013107613921735572,-0.011663018669694845,0.03426902010918268,0.055333446719686236,0.0182529699380096,0.04231086162604073,0.06354302834981088,-0.04695161530160167
0.014147317119601899,-0.012831719943949414,0.034230641725057326,0.053536926852054495,0.02548632398857525,0.04105758608687098,0.05733581272083837,-0.03635486822408528
0.01351572038598596,-0.01402780845388279,0.034986011492487847,0.055383558644746575,0.02540325251668904,0.04688858399889094,0.06431994386485976,-0.06103652864521279
0.01658556390474704,-0.016699813514085067,0.03155256114955574,0.05533483067015446,0.02452531232901206,0.04697324631617185,0.06156228841812515,-0.05102596031879407
0.01595352080647682,-0.01192557012474336,0.03164913710447498,0.05206271890681711,0.026173499504677646,0.04152424425904674,0.06427688534242162,-0.04136753449696459
0.012580184177591349,-0.01276761588690862,0.03196746117783568,0.050628664465255026,0.02780407935946286,0.03839757593652991,0.06362996264518739,-0.024457853429913103
0.01572145549412398,-0.01277952119103101,0.027972138471076106,0.04846182621888479,0.02415616428650305,0.042376971494149984,0.06116331070594559,-0.020497877115179183
0.014912431995313563,-0.015876057375104103,0.02804024630686185,0.04656497716629842,0.023705622498459897,0.041172163861202,0.05690469837209226,-0.02517028563265352
0.015121547333307174,-0.017678268572240963,0.03097718810670876,0.05034694162107046,0.029402560408767327,0.03848185351851752,0.0592164527660969,-0.041225770920313314
0.016213665076707247,-0.0182236315114272,0.03120382708147558,0.0540723784303149,0.026772350426814213,0.048070241472555994,0.06573971463947655,-0.059336498150945695
0.019449494011622145,-0.01688108355243916,0.02881557768020801,0.05022832887991377,0.0285609631225185,0.050029001360888815,0.06336022863600921,-0.07224995647910659
0.01529255824150485,-0.020398447580343534,0.028408270308309617,0.05292267005865478,0.02434546693628104,0.04068289952201312,0.06061944585161532,-0.0565713281043804
0.01846757750025444,-0.015600207345290397,0.02779918981375262,0.051438688048408454,0.029040922472433565,0.04195286361097284,0.06199703102520741,-0.04928789955618479
0.01703679579041047,-0.008606510572586549,0.0277195178451302,0.047811836107800286,0.023284662322819158,0.043049974841797026,0.05535186220643541,-0.027622437362018137
0.0158330355030328,-0.01640720072722754,0.03054854015857134,0.051107587580517345,0.024566261460695325,0.041388120358614916,0.05585100667617442,-0.017251497466390688
0.014271380524912964,-0.013811756199009767,0.031106281379766853,0.051023093051963876,0.026294106388503793,0.04749607530185718,0.06559138658332107,-0.01707571443399707
0.012515391713484512,-0.018857626615861045,0.03139635923690644,0.05121133066620549,0.029727946374093497,0.053970351880400357,0.07003883966592012,-0.019906561627948145
0.0205517673308659,-0.01657143568437937,0.03306178593203073,0.057148590024248144,0.02840883381964037,0.047191368719398795,0.06385678520272284,-0.04014454880046344
0.012470274982238379,-0.01365190578724142,0.031935351195830235,0.053637061939804144,0.03389928974434281,0.04263832097344741,0.06680731709829275,-0.04081054324225762
0.013383791775753101,-0.016934776753900684,0.03347669812454362,0.05145005437746537,0.022510899620816077,0.046655555941146086,0.06726679430828436,-0.05176111810484879
0.00925980186275352,-0.01895959782227037,0.03136220229121458,0.058750350181834075,0.02598601989018287,0.050196489348725434,0.06872439374229079,-0.03181973409647755
0.01589250568698649,-0.013816210357055726,0.03435903300634681,0.05940294527547875,0.02808002158505792,0.05205940783572799,0.07608488389945126,-0.044960472381552784
0.012997964468991909,-0.010819250143038237,0.03286263853430681,0.060816177636458836,0.026036576890994863,0.05044051949737776,0.07725179193179721,-0.022949875749620003
0.01190509026036201,-0.008483559274419442,0.03895777814426778,0.06466480950720054,0.030577576384642997,0.0627316262584628,0.0759290906848869,-0.012917738182634447
0.015972517703188045,-0.01165432374254728,0.03917125988328015,0.06754835356098673,0.029380876310709327,0.05087218578790429,0.0769555607943597,-0.01320103191097078
0.015521952679743893,-0.006712289738307975,0.041383944933858115,0.06538662309517358,0.027167813822387053,0.05205520278298064,0.07712131620299613,-0.0160187786178227
0.01921207978867451,-0.008507264174561874,0.03888657541865493,0.06568664221397422,0.026145176086327816,0.06071704053695408,0.07798617496083533,-0.02802620447652759
0.017518584614838288,-0.013001551003226162,0.04287041906395682,0.07118823469244502,0.03125448895661366,0.06018837815183446,0.08306565019379351,-0.03628160243347071
0.017305488696398984,-0.0139427342829438,0.04269250757104253,0.07491545351129968,0.028125099550360456,0.06630382697776757,0.08762919707976788,-0.0359376739492204
0.01610012490622235,-0.013395844965547053,0.04172803556687939,0.07690629096357676,0.032935019400833355,0.06548165374368578,0.08545308776565694,-0.025697025070513406
0.017839510291000484,-0.011808491189599759,0.04483816859688726,0.07953613594208316,0.02999365985256188,0.06701899714059803,0.09138092951825304,-0.026913257247661224
0.014180776981604543,-0.0021540188288736773,0.047064325198510254,0.07460944104691848,0.031530033772544805,0.06675369299659692,0.09591049361438589,-0.013838123376255857
0.012047344565349062,-0.007776453441517692,0.0492801545269542,0.07634118913126428,0.03136526618573657,0.06533248273700368,0.0958524657645437,-8.035000087180324E-4
0.020447713527419045,-0.004542127917312475,0.04805224035729721,0.07703657357710093,0.03166834021668957,0.062134247932140514,0.09667543119145243,0.009225304142006051
0.021692027319223893,-5.107649696387689E-4,0.05272161855121455,0.08480751376367625,0.03147546126152306,0.06991272915594544,0.09373668519051949,-0.010616431492711608
0.018107816321858608,-0.0031378712288667085,0.05474483120164982,0.08377622965196575,0.034002097841256115,0.0716025460842508,0.09408578957075708,-0.016229585230106727
0.02012842225029923,-0.009834481427871767,0.05573358928610033,0.08769751337479749,0.033888349052896664,0.0746620240114504,0.1051036389416026,-0.01842153496951606
0.024477554643405793,-0.005610890286348521,0.05670451101919335,0.09019229785742228,0.038570362126865175,0.07386920620003676,0.11237403596320164,-0.030510320235176053
0.017472662949640217,-0.002717537363271149,0.05428990265471556,0.08858849656337452,0.03299843563222845,0.08022416931857208,0.10847837097939352,-0.014650359498215618
0.019224088158474557,8.018910163513378E-4,0.056751205665229586,0.09061636469832803,0.03344490274419475,0.07407840748667407,0.10644866378255449,-0.019360245011644087
0.0216399151873267,0.002132096321487409,0.059108600888506384,0.08917183371058113,0.033331333438884655,0.07376507031529797,0.09853051257194967,-0.013659297268180116
0.019930648532328486,-9.00744814250787E-8,0.05904689304695716,0.09086848372455186,0.03333633386551283,0.07804104274554266,0.10876673685630688,-0.027876832408522425
0.022805264806456307,3.4439677201482296E-4,0.061897708611966584,0.09232786423058933,0.03717475331364527,0.07905142634055495,0.1096149162369197,-0.017998716031169284
0.02207849964217568,0.0028465484406903514,0.06239073301408057,0.09198997315731389,0.03359759886665087,0.08044206126702307,0.11670111691253386,-0.01622500487289823
0.02252724035553223,0.005500876017836121,0.06460342246292054,0.09265965348578567,0.03034084335838355,0.07413480206975814,0.100466284183508,-0.012498369810822729
0.023454040422960364,0.0050810923233658,0.060646056299804844,0.08984084952978931,0.02982417202326199,0.07720341056792124,0.10931776855069293,-0.014384688756935434
0.01836992734296685,0.004689165712752793,0.058870283541433366,0.08945848978439642,0.03429823998414347,0.0728429849248376,0.10396229727379151,-0.02127279594715382
0.023277497928165747,0.008430915137057017,0.06037527600370182,0.08876873687939399,0.03333137902509598,0.0768044961492828,0.1080946563064583,-0.011866810209816855
0.019275212062435824,0.004381505623599484,0.06077454885259644,0.09014117415041042,0.03392269440710122,0.06885448682147498,0.10512377266100513,-0.00945976538294801
0.019507786090513048,0.009082052109828473,0.057757278836207515,0.08683827366387169,0.04051220606089996,0.06890302753088576,0.1094041076893034,0.004062878396557144
0.017097845017242392,0.0035867437314858574,0.060925730411313786,0.0901829259727309,0.03460505623556883,0.07421459438217165,0.11606599608800733,-0.021585643752713383
0.021143448201185286,0.0030058344868758953,0.060233384584295634,0.08961642502720091,0.03566089392370308,0.07468051954168581,0.10003240516262692,-0.010553496117523355
0.020497679141813115,0.006062246127956826,0.057880888600485035,0.08242133528976843,0.028280960592101657,0.0685864671716916,0.09452682816473895,-0.011459366511895976
0.01790600313534448,0.0067170265216515805,0.06008735801372966,0.08207985970395158,0.037153788804745416,0.06450814177744776,0.09859846307294579,-0.01800639127047692
0.021742717759031034,0.0045928719260453915,0.058517720600458185,0.0812129188854566,0.03281605260321085,0.06614589145930923,0.0944701148212059,-0.01643400543665989
0.017368618044691614,0.0011196642183507433,0.056865322557569584,0.0858724647392241,0.025296505448938612,0.06224418873409219,0.09693378646767895,-0.031502865480671445
0.020898479517745,-0.003282059143941169,0.05622013610861637,0.08584086066192576,0.028597714800428872,0.06803951347231103,0.10543197295087962,-0.024888935253946608
0.020796064517473713,0.0031992915793827223,0.05760957282271953,0.0834382742129813,0.032496776190680685,0.06538965886242555,0.09782155819999114,-0.02637400476107503
0.01960095550983584,0.00620708543761656,0.05614246222509214,0.08433118209398871,0.029556358541460995,0.06488309787409127,0.09600151610885191,-7.982723464236641E-6
0.015721909989842374,6.120100472500536E-4,0.05463430177889379,0.07720075941983617,0.02490524849784996,0.06004125708500894,0.08681235747958128,-0.025000894060586542
0.01806181872106457,0.001960722933513057,0.05233914192824574,0.07908862723482304,0.0256396513425859,0.0636146001093308,0.08656949725465324,-0.03060723656243656
0.018074319607239576,-0.002301910468153918,0.05598047231493627,0.08014198516168697,0.034166037690934674,0.06300501497606803,0.08845029344527713,-0.021941946624676977
0.021157699011893544,-0.002868382514473503,0.05231135637793649,0.07769643491101139,0.026324850761451787,0.06761631756541754,0.09164838950138168,-0.029419958313987176
0.017652660903257494,-0.007323290945379536,0.05170256842479648,0.0788842162917895,0.03258852812091849,0.0636965334087245,0.09533758257270548,-0.02534372424787745
0.016684473333864788,-0.0020133070504023015,0.049836836867372364,0.08256471241240922,0.027317573510273207,0.06389968235966621,0.08418016290482172,-0.023397575288016285
0.01842917004874683,5.08974414164594E-4,0.05206123362458678,0.07907411368775845,0.03134291915511214,0.05753102446429726,0.08228790485859756,-0.040437680371059014
0.013255144428586501,-0.0034354013724378603,0.04900022593754583,0.07199651943901746,0.026964013014174785,0.05655199858377651,0.07758697831167961,-0.04069584523340415
0.01641223024094553,-0.004223568363260036,0.04801759315841996,0.0714642835537308,0.029599845764545864,0.055141577901836526,0.07669748564188407,-0.024664573325925095
0.017468269149213837,-0.0037339231144218644,0.04907495660924526,0.07402311699278243,0.02646469609556445,0.05795811467638435,0.08639684742862376,-0.023164501677804216
0.015996933778797753,-0.004430211189963144,0.04879185382553724,0.07565078804598088,0.03400916651723701,0.059282091943357706,0.0860148209251909,-0.02902165351258188
0.014751840269962544,-0.003065392710338674,0.0507223733865623,0.071227723908782,0.03063114392875098,0.06417839544107531,0.09032886683428365,-0.03173806989066208
0.014673431710125223,-0.004360984228464386,0.047980378915737996,0.07444444975171523,0.023269959164947826,0.05580401073084384,0.0792040433039085,-0.02377792150039074
0.015168901535274452,-0.0011530195163792446,0.048670685314716945,0.07071523272101533,0.031751124679747375,0.0564228253907436,0.07630797019948378,-0.04317936458641717
0.016391298214364813,-0.005296426213248221,0.04635435264533397,0.07155699271859399,0.027833430676212568,0.05123300472661312,0.07352051467421467,-0.03756046058860858
0.01179647645537647,-0.004351663615884137,0.04782188065933472,0.06841788389790694,0.028973475099225418,0.04926054070459613,0.08191164909976534,-0.025583229809767374
0.011650665247173337,-0.0025972462283634966,0.04291066584217775,0.06600906014703578,0.030592113118706115,0.05229950618254117,0.0739023295530323,-0.02403148115448395
0.01493978523642662,-0.008440092067410643,0.04704408209540296,0.0706834054333524,0.020999236412192576,0.053238614707667845,0.07949459616952878,-0.020296659298802554
0.01406459452545505,-0.0015007070488139958,0.04469574973942975,0.06680140862581933,0.023643168359513356,0.05677806402497495,0.07272215266746761,-0.03143054864120142
0.01315362642108649,-0.007926973865827377,0.04319356948694525,0.06853715841384672,0.03334628373315254,0.05186266095496342,0.06945405927851078,-0.035857317828280756
0.012353743223900525,-0.005674168168041359,0.04107287803512986,0.06656640614942036,0.024834229726706566,0.04546837371737639,0.06301953700669614,-0.03865350958792559
0.011124215190125143,-0.01263529555320331,0.04121951537515324,0.06366494584595722,0.02028599605877235,0.04651657280685737,0.06765442388107525,-0.026292189263900784
0.01101468113172856,-0.012134959864153716,0.039123171363978256,0.0675419538323005,0.020887935503340872,0.04430640571097871,0.06812880919201014,-0.03490955878099368
0.015050980205056252,-0.009957060092401847,0.039400572055856266,0.07022421262668165,0.021893663412619377,0.04947978256026295,0.06593634061025835,-0.03542857468775584
0.013356322405204537,-0.012684245774582529,0.040701678056007586,0.06564088318236869,0.02433900197575045,0.047534923224449736,0.06817798908453815,-0.04740239165593882
0.013567214774396768,-0.013429365870600988,0.03873162925213128,0.06612128317745293,0.022457112506122957,0.037678296873345,0.05471268416591935,-0.02810607257186729
0.014956780739155283,-0.014593111355323889,0.03777245344427049,0.060358172666037053,0.016452169466658263,0.04178891222467493,0.052914180697515995,-0.04335027799481043
0.011839097587363677,-0.013380593100557206,0.03740013414139668,0.062094274828098574,0.01564252142395889,0.0349035007563526,0.05573384718895967,-0.042884651443993296
0.01452989302917475,-0.014920852912825048,0.03854418612517692,0.06062650507144958,0.021298809771794446,0.036378167990558825,0.056381598097304565,-0.029621463695013034
0.01231756872975625,-0.014516874422555207,0.041301215949551454,0.0626909626170278,0.014818784425377388,0.0359315415878729,0.0558086009092578,-0.042973828712448967
0.014555538728316305,-0.01883952088476675,0.03822796265534975,0.05967357224688017,0.0111722166915741,0.03931563766777872,0.06209719528813962,-0.02693702111005046
0.009806586261190766,-0.009479491531040458,0.03760094704756458,0.06185326717843065,0.021484118737000173,0.03570041964569527,0.06548771469027126,-0.027041996705248768
0.01156179475472151,-0.008906590028577705,0.03657281867314102,0.0585781781684686,0.015973887546256706,0.03464308661912458,0.05230746134573134,-0.027046913114042358
0.01118470402122111,-0.01223640123601627,0.036469201462016064,0.05985011288922651,0.008742186154264725,0.028117279356981977,0.04504553358648265,-0.029075720221946707
0.014215682395717784,-0.017073667138888773,0.03415335541715302,0.0539553232701025,0.011745428103248178,0.024863607140092264,0.043640168625666484,-0.046591291744667016
0.015481653721754118,-0.020760004171841737,0.034911986022553576,0.05689159259240909,0.013179197829409567,0.030960304780832903,0.041275267624403804,-0.03746148885551245
0.013322052553343884,-0.017393058356351063,0.036603604703492894,0.05693258214842419,0.016944458363398317,0.035850211177524,0.05261580337224402,-0.03369004202809166
0.01380334721081539,-0.018167284646866837,0.037068220724645974,0.06001009042608191,0.014945748728489631,0.03550232821118505,0.05332945168188964,-0.06043170699896046
0.010327342471661807,-0.012749396853239982,0.03607979017011262,0.058291453951043314,0.014295902451562176,0.028271878674354555,0.056863380208611064,-0.041380282468149496
0.009821914956494013,-0.01680492618556186,0.035256679803802156,0.05168339176943579,0.015040322444095689,0.027621691535333948,0.04201539670005032,-0.05631066747101429
0.0098657821604779,-0.01289528122263637,0.03621146157626063,0.05146019730797979,0.01723714885506403,0.02313950075641455,0.039190359853747754,-0.06173807636276709
0.017221644702666548,-0.01806312132396407,0.03663829469115613,0.053612546434344446,0.01615755295342327,0.022709454000110936,0.041093275119219765,-0.05703934967615993
0.01229605757865212,-0.013835417884293643,0.03685606711544756,0.057530413988584876,0.009342268813195225,0.027438911020011128,0.045325696861298524,-0.05181233324754111
0.009919708343202294,-0.022456746943788467,0.03427163627808898,0.05448792102168123,0.011179318068154628,0.026907806245279654,0.04298872380587034,-0.05011889465716415
0.007319644260262505,-0.02192343948752636,0.03605119857574271,0.05540456701893834,0.014118939675222528,0.023901039914690038,0.04392398967336866,-0.045338280860465915
0.011332875127439797,-0.014223011395119469,0.03689788206266351,0.05908274314111063,0.012242465189003808,0.02289206016202936,0.040175700280220626,-0.04267178727448004
0.011689718551751401,-0.010541666079242167,0.03368146709556359,0.04825314180825665,0.011957426435616057,0.025039235380619723,0.03153135951026265,-0.04314820423932832
0.008481087454211734,-0.008412171262896818,0.031902130437228414,0.05416943692364899,0.010148448813547217,0.02150192670505851,0.03371731136709647,-0.03989002245638446
0.009369661136526318,-0.012712163569756189,0.03528482797810183,0.05364821474010846,0.00621961872116886,0.020354937398199557,0.03287597046328037,-0.046999461595286646
0.007559475966169235,-0.012266177191122742,0.03376684446106255,0.05292866316982887,0.013352179280499003,0.018475187977375684,0.029989697326204982,-0.048333036886167
0.009470679511517845,-0.015731793595179205,0.036757490959359394,0.053894049290684004,0.011957243162424674,0.02069512724000304,0.03936109016859761,-0.06131333025359365
0.009545686480336801,-0.014883261999433338,0.034327965434929726,0.0529914716524518,0.010836191306541251,0.02254865762779362,0.03924155524003378,-0.05374127864954769
0.009797265391844886,-0.01342234479445496,0.036078005980552795,0.05040994220911271,0.006959369575877207,0.013040755859706672,0.038224506215918864,-0.03193428072371837
0.010457709586892499,-0.018664492231549475,0.03364065740543041,0.04884499666617669,0.009889565566051523,0.012234126076601992,0.02453742590339478,-0.04377195966517183
0.010255934151783682,-0.017946334220971482,0.030757049291318003,0.04705085486665159,0.002901673904071328,0.015411711221314411,0.02007452389948965,-0.06047043011878095
0.01109763264506784,-0.023532946456502255,0.03138698649456094,0.04515823334394482,0.010435787348050337,0.01606431934366365,0.026874378716901303,-0.04812500807014948
0.009958258579612692,-0.02004960346354418,0.03216572752414188,0.049743610641638944,0.009670059346762152,0.01939942630093906,0.025893623409634484,-0.06566716810527112
0.009746987759530265,-0.020602940480020118,0.03420113538070247,0.05042519247468189,0.013331372468829534,0.015533922309706925,0.032984882664185665,-0.05153988495898945
0.010859478939963248,-0.014166779890321352,0.03759742338322838,0.05463712618949689,0.010777373009901019,0.01726336903422496,0.03035761115606607,-0.05891308667494543
0.012469214868530485,-3.833614230702327E-4,0.04415808130309683,0.0545006795665604,1.6758763722522744E-4,0.010421860381488807,0.02322049896679411,-0.05893424906747126
0.016745410419986832,0.005663006118129322,0.043304766837557636,0.057991351015425956,0.008284060544122177,0.0045594905999078545,0.01836446057743104,-0.046488397860269114
0.012919106048245381,6.549543115818674E-4,0.04476643414479636,0.05195828649945827,0.015037380689738852,0.013387240365900914,0.01863036483574511,-0.055012801606650855
0.013160619437460597,0.0022324825627833187,0.04109147695200068,0.0544100070676713,0.005007538615086766,0.007741963764156792,0.018192416852640645,-0.04936695704106937
0.015394589302673158,-0.0011316709413467401,0.039847168830697374,0.057422504113477234,0.010894341857834514,0.015400199485211399,0.021079780171294096,-0.052053970943736885
0.010192742893917887,-0.0014698920015470888,0.03964458169757389,0.05377137466503662,0.01078689815610311,0.01343460771083153,0.02705235952142454,-0.04539777063206502
0.007457498996111661,-4.638462390666696E-4,0.04335512208914337,0.05200317743400002,0.0075545435926985946,0.011992065258816655,0.018778620416748763,-0.04789165941262114
0.01133925641641373,0.005288308500728571,0.03627407289769598,0.051432856601806146,0.00230719419899578,0.008856801353851244,0.016265052345529277,-0.05428373996741554
0.008340153360195113,-5.148264330026192E-4,0.03667615050342167,0.053045353859081754,0.003422604655779041,0.01070158974409759,0.010200450736986699,-0.0582959621311317
0.01262019831278826,-0.007692751407627468,0.03563252305453508,0.05146704848360264,0.006573082899795929,0.006047418929475827,0.015323633464512711,-0.07739158684248222
0.010964070220118005,-0.002942585760988339,0.03648613109541911,0.050970083565541016,0.004783713394055928,0.004890266461157234,0.010558514249362456,-0.06581715434827644
0.01064275265834023,-0.011758608735658631,0.03534700183964884,0.052757010009616176,0.0065056634290814415,0.007502507339164257,0.009198563655131749,-0.06594419904981161
0.010821207887148571,-0.012551552289372202,0.03741951251847679,0.05071229348650663,0.00939554753601956,0.009744939590450311,0.011791165513639313,-0.0687973829038811
0.009531460311917877,-0.012508203837368993,0.03359000721107679,0.0470810610487846,0.00264558842235536,0.004516773562160895,0.012241107906362077,-0.06415395942132959
0.010751822482013907,-0.014364781041124802,0.030994464836497433,0.05053443854660934,7.154967869480491E-5,0.005449491439852743,0.00969855928144551,-0.06457747054129569
0.010924940380815963,-0.010044468359628758,0.0289976110181206,0.04363508624821152,0.0020057031664203217,-1.9928184116534294E-4,0.009062734304674075,-0.060300544096475006
0.008303097390764711,-0.014575102651579719,0.03023389161127327,0.047744035864549866,0.004990741234539243,0.0010788057260366528,0.007328966284112781,-0.060234932979760396
0.007916970637957462,-0.00796390960892121,0.030711529055348734,0.04354866805571907,0.006675849851882392,0.0015090727836457964,0.015535380612586297,-0.056156012750790095
0.006280663946450688,-0.009211359796146623,0.031681902267797865,0.04725087915784606,-1.6599918948142516E-4,0.008321379175416935,0.009164274422963341,-0.07037241103853947
0.004921505750936971,-0.009097117690004358,0.030388355699727174,0.0471055983265557,0.0047446352208229715,0.0023357296763992204,8.18864802050274E-4,-0.061610068462178126
0.007728001446632954,-0.004248504418066494,0.030337101606181666,0.043871075150403775,0.0027621461853634425,8.204815664014197E-6,-0.0013646728438771708,-0.0637800099451418
0.007693602289071643,-5.0574711248517975E-5,0.029188030462035323,0.038410399061413275,0.0020079630761052243,-5.250646824628287E-4,-0.0015394197491988071,-0.06006340826981736
0.0039535783130888,-0.0074248254027329845,0.027168982004389414,0.04046211666868313,0.0019716288965560946,0.0026991884159696476,0.006537261992279299,-0.06408202824082578
0.00851427173940059,-0.0073445813512279705,0.030114603401456573,0.036130278148363865,0.0038689586870479234,-0.0018027155992000885,0.0012751443364159372,-0.04707887064052625
0.009042609136911932,-0.009839458716512003,0.02845828877837087,0.03776172737054606,0.00589209863187854,0.0029151124089187744,0.005928058537495753,-0.0559844386563199
0.005026819002432792,-0.012353340735855318,0.029381209177399222,0.041957834257899,0.008399304804693577,0.004756094489477148,0.004121309989951974,-0.05991174247258282
0.008980693368479602,-0.01717373044818092,0.026872483504453218,0.03578009550827468,0.004553093234303958,0.004666883629213438,-0.0022150642066859324,-0.07724283618732954
0.008003992166609566,-0.017809793453971684,0.02455916810272536,0.036592291106155396,6.005090758301194E-4,-0.005857843487396418,-0.0010345113379485466,-0.07537740138407382
0.00596158968484381,-0.017959457987996252,0.022334738956837925,0.03632705719244105,0.005233475139990329,-5.19483334334375E-4,-0.005630850908475901,-0.06913727358646043
0.0044287654693239585,-0.019890836331774776,0.021696904961270438,0.03195910198541797,0.0022426366938515575,-0.00526895898581797,-0.006066892748766199,-0.0812801669432888
0.006541108585799712,-0.017953305344917802,0.021610386552336474,0.03323195329714786,0.009505177961148909,-9.710767301897154E-4,-0.008596364910607428,-0.07404868125965208
0.011988691045875001,-0.01714136230259648,0.022355133550328178,0.03276429870094732,0.004284853468127689,-0.0033540285884893625,-0.00934961031890694,-0.07542009385628469
0.005876278615408943,-0.01568235848360926,0.02110707733689125,0.03128754416470375,-0.0011129409773553344,-0.008835290335082926,-0.013923930898437287,-0.0784016016799674
0.005942251360546373,-0.014357090315831005,0.018722347360069436,0.02571376244363027,-4.0513923786180084E-4,-0.009590608643365752,-0.017555728947414053,-0.03584927115582735
0.0032095890957426184,-0.009003581462676994,0.01885109283253958,0.027282517414917842,-0.006420296939265401,-0.012832646498712389,-0.01819457810813274,-0.053503482916752505
0.0032575922170456155,-0.016142886947204914,0.020136826902658462,0.026424308745769474,0.0010818831280241614,-0.009632282953721738,-0.01783448067044785,-0.06137989780021018
7.375017395888388E-4,-0.01545717861658495,0.015900211072535825,0.028950188105919764,2.852480260537045E-4,-0.013232575568550422,-0.013947326590574263,-0.05973340219640515
7.171866458297993E-4,-0.018017699045524978,0.018865975437755925,0.026409584852642283,-0.003235726675928591,-0.011902199659216097,-0.014782868156187701,-0.07171551164633573
0.0035483434370963325,-0.017682540554575767,0.015420769840798368,0.024171630386692195,5.15517779719903E-4,-0.016179999075248266,-0.020107875013659838,-0.07768673892132362
0.004514684034908728,-0.017506946385465374,0.014548673280202167,0.024177108697671108,-7.588836791351728E-4,-0.01674090488213336,-0.02615257181891529,-0.08151774815340829
0.004174856417257863,-0.021042562442784293,0.015180833714144075,0.021660329804627617,-5.1304561897372634E-5,-0.01652889549486737,-0.03196807007969204,-0.08994117285263974
-6.843418228513419E-5,-0.023267584442467033,0.016691951277997757,0.0216058968047363,-0.0014274614287186915,-0.01931482877492508,-0.022458977332149667,-0.08339135817780695
0.0017301498151801628,-0.026279500648444212,0.01596274355333223,0.019704058253356076,-4.946288063886791E-4,-0.019610589900273312,-0.02531802074459336,-0.0976742191099261
-0.0011032195232391583,-0.02158098950271582,0.01361909593538074,0.020328190747395627,0.003600168790879963,-0.02016881846266921,-0.02597925216089582,-0.08914876541296553
0.003710020949032255,-0.02295908255740479,0.011934674419315451,0.02159193677255142,0.005696997698376812,-0.01737512452974948,-0.019974954925885382,-0.08994881788588097
0.0051559398203144605,-0.023417910670568982,0.013683525842882568,0.017519370266906194,-0.005941983273747251,-0.018170172867364772,-0.030087206674428924,-0.07331428212241377
-0.0017815429124337595,-0.025749034859426468,0.012490904279385415,0.015361002473014834,-0.0023734946384860985,-0.022479229404778995,-0.03330243386604481,-0.08959610488037503
-0.0018628970497043,-0.02586031946375801,0.010503815741198918,0.012707200053914621,-0.002180300766048711,-0.018239881799974822,-0.034009047985020545,-0.08324344593899329
0.0015711326543219543,-0.0258158607806392,0.009793308185177369,0.019188677215631465,-0.00485706813446984,-0.01728183016189723,-0.029239690608513846,-0.0974773782700167
-1.276215021842008E-4,-0.02749745275364582,0.008815151642949989,0.016610891327067192,-7.463076174479308E-4,-0.024984039209149735,-0.034449524248776085,-0.09556312931340542
-0.0015682311517080285,-0.026581595004903764,0.009130230497707597,0.014696121951668011,-0.001443418932309714,-0.017635941089270985,-0.025909065267244222,-0.08817030603734698
0.002491362794376538,-0.021600428391969812,0.008512280440373787,0.015044067653047376,-0.003050027236096881,-0.018983864719064127,-0.020029938135781297,-0.08838334686976716
-6.525308425579989E-4,-0.027367804659099267,0.006170159786009566,0.011072948385295538,2.4569093850762656E-5,-0.02657112807412254,-0.025069744752153244,-0.0876414510870124
-0.001835803985336074,-0.023458231582182548,0.00487844822859513,0.007410040880901581,-0.0028386461342488,-0.02366890686246283,-0.033460003008463184,-0.06201180615043732
-2.626827002026526E-4,-0.024098817027262354,0.005156153500875185,0.009064535420330574,-0.0031272919982699285,-0.02118639221426643,-0.031131870889827353,-0.07062808312473973
-5.453983824042662E-4,-0.020527351383318706,0.005521699380190331,0.006328130744057343,-0.004353878670159495,-0.017100587298464937,-0.02231978241350375,-0.07146936567057068
0.0011174680178660508,-0.02247049440042036,0.0055030249448712355,0.008754612127408959,-1.300509497057115E-4,-0.01884729958724631,-0.03342427428874619,-0.0906240300915843
0.002346799872253207,-0.032558905759930305,0.0033392741570668592,0.0115767749397103,0.006143772624056858,-0.021936843626386822,-0.019329129448715867,-0.07695901023546634
-0.0036424343300077333,-0.024501801253884733,0.005671541326998696,0.010040476547073145,-0.004633337161596566,-0.024325436546934715,-0.02857276555468254,-0.08569788978349369
-4.105333674066559E-4,-0.0163818963120933,0.005984256714058783,0.005270376409492436,8.746655776409722E-4,-0.023816748801174004,-0.027736908536864027,-0.07446563811948516
-0.0035020988743804933,-0.02353551286751408,0.004093564814298601,2.2741101794121826E-4,0.004889437085914908,-0.01845447058101089,-0.03125320015686251,-0.08499513404442863
-0.004280602758149485,-0.028717216933858654,0.003276559500647415,0.006795483066804975,1.8698878892199793E-4,-0.024744370100703957,-0.02552022221337484,-0.10012131487642095
-0.0020950756712484133,-0.028963622602436095,0.0038081377399435345,0.003847628937885153,-0.003686507241793127,-0.023549869055964005,-0.026737477183822234,-0.06927235779010663
-0.001351862325619481,-0.02238046768365691,0.005650233429139018,0.005771576367590789,0.003314210106430475,-0.015536449413836596,-0.03417369468187727,-0.07778917698006302
-0.0025286068645813792,-0.027458432858944885,0.00459186421229843,0.009782911111317287,-0.0022867216206825447,-0.02472234155983656,-0.026026147769485693,-0.07019900678596439
-0.001374689301144296,-0.0230964595707598,0.002932507387044666,0.0034264473874222735,-0.005776274748911951,-0.021773818612639273,-0.037566184957692664,-0.056703007279483186
-5.931074974338947E-4,-0.015615065665663608,0.0027747826085305124,0.004316010791058618,-2.791766311161896E-4,-0.01795052509918454,-0.03827741825752662,-0.049921286326300454
-0.002219751724591639,-0.01696692565415352,0.0034933601990901277,0.003502589259015662,-7.473334247805003E-4,-0.019160708734375555,-0.022301133309475578,-0.056518613771978476
-0.0039060686889723587,-0.021278497048386937,0.004140642639061564,5.914599667521517E-4,0.00214818642704532,-0.020426888790903368,-0.022557417146094154,-0.05750344882400175
-0.0048067319636942605,-0.022371027644113046,0.0018523283084803594,0.006194474184699685,0.002457955182463969,-0.01591468329850805,-0.022675544256195564,-0.07726523162411375
-0.003778130072908747,-0.02667120960106535,0.004057872925596699,0.006581527486637853,-4.233444521454839E-4,-0.016883084566579967,-0.021568824785985527,-0.09006850953662582
-0.0020198129386107084,-0.03143387445214152,0.002905254427754518,0.005933858288495103,-0.0027771046763759464,-0.015326556021797532,-0.03243775834958078,-0.09893152896420686
-0.006843366378276628,-0.02518001479462291,-3.9585902903817896E-4,0.005096931455191522,-0.0018679227730519087,-0.024529086215453747,-0.03236875431008105,-0.0868717883551682
-0.004832894561843349,-0.008955585962991423,6.229890850838148E-4,-3.709090207172293E-4,-0.004027485472875252,-0.02426829910238504,-0.032483352319207154,-0.06700317741670725
-0.01036573542213416,0.012741306764569435,6.451400169631803E-4,-3.268378180963131E-4,-0.005382686720175182,-0.02816091852682695,-0.03580583133468124,-0.06466345504848861
-0.008006794806546232,0.008670671961391964,-0.0010194328625057192,-0.004408661080396535,-0.0012556565505403756,-0.026515383528583198,-0.025701088605878695,-0.05853981259509833
-0.007885052467040275,-9.758539883337721E-4,-0.0012607471625261273,-0.0030796468731308837,-0.0027369716767465324,-0.026017726776488653,-0.027826779582314207,-0.08484576417954336
-0.00870372106640515,8.441360696746299E-4,-0.0018488515795690558,-8.634249240609792E-4,-0.012460392782517546,-0.0251941978798472,-0.031863995108619765,-0.08467050878637686
-0.009037154968475498,0.01126997523115194,-0.002879471574137106,-0.008603649586279927,-0.004720467929833068,-0.029749363489915404,-0.03238530510761764,-0.09401600732390128
-0.007713807097649229,0.004549036550798537,-0.001052688623064623,-0.005293846595472983,-0.004430423383021922,-0.026134272785603957,-0.03557258468189183,-0.10119140741094858
-0.011274975643609512,0.0013793000258553161,-0.005130104797964863,-0.006500468096245962,-0.0018597086922318771,-0.022788053011416183,-0.03897321871312488,-0.0987838669436723
-0.003216701233985901,0.005921961292079101,2.605418238117847E-4,-0.005796144729192617,-0.0012644281030908988,-0.024403014993022762,-0.03542598963451105,-0.08472501051131293
-0.010266942473164668,0.0076818709614826204,-0.002256236285248695,-0.005968672822379619,-0.00388162842095229,-0.028860813197655256,-0.03130518402157762,-0.06509119952687283
-0.010711112601295928,0.0024872549764457063,3.126272709142073E-4,-0.004907769791957522,-0.0019891275838253317,-0.024083570166244378,-0.029273910465774697,-0.06327417312634406
-0.0072207242356933715,8.932894846655784E-4,-0.0015766834275429598,-0.0040083502538284166,-0.0031751187856869766,-0.027734652271588563,-0.03479208434153955,-0.06895634762658329
-0.007021645311428613,-0.0063793186896527986,-0.002701694647108428,-0.008074246200013445,-0.009417010138829392,-0.03437839220581732,-0.0408568368479239,-0.09342805788907775
-0.005345370790184046,-0.0029720959464139547,-0.00482570218688165,-0.0031695100809772505,-7.785664692595589E-4,-0.03544668649319428,-0.04195583835197951,-0.10860758463987996
-0.008664292260069902,0.002820614393461372,-0.0044483739069103995,-0.0034787521728003976,-0.008874997229362852,-0.028942095317123873,-0.04296742269140746,-0.09942258903006346
-0.007510008313657762,-8.212076297157299E-4,-0.004469110657516052,-0.0060948209903086085,-0.006775784558893035,-0.02803682665355524,-0.036689253730202535,-0.10980733186499528
-0.0048916044127766236,-0.0027351215080012627,-0.001746096948576795,-0.0022485690785492255,-0.007091574688534743,-0.025258811258159212,-0.031609112478287724,-0.1108147886489222
-0.004828465985947962,-0.004093909903477365,-0.00483492189555378,-0.007513007582048251,-0.006393909935229303,-0.03551429329889551,-0.042547744607899896,-0.11189646263673486
-0.004743922754671017,-0.002665283781190941,-0.005518585949238877,-0.008989947462175452,-0.00736167157535744,-0.033674960041023896,-0.05128700340220836,-0.09449237742279765
-0.009572465902385597,-8.636000003086658E-4,-0.004569342565648773,-0.0069334786951150565,-0.007905729878748182,-0.03197656787761754,-0.04969169681635154,-0.12027004760450395
-0.0060388487179946085,-0.004087971434783005,-0.007337136402358993,-0.009440203128124446,-0.008886862534090718,-0.03658061683496571,-0.043444501726301495,-0.10112994795004673
-0.007230924648017067,-0.011452480160175516,-0.0055725829684975465,-0.004909391849318159,-0.01314593357266608,-0.03449000036361754,-0.03524542296310847,-0.11475955646646735
-0.00813233316197927,-0.0073885846385006075,-0.004620716065079767,-0.004736689001079464,-0.01052757992389392,-0.03674742810560398,-0.031021735909611662,-0.1041466761450754
-0.0068087922701848495,-0.001312412088681647,-0.004332014951403995,-0.0011823570920025752,-0.014213715523991607,-0.03657160865132567,-0.03326994774898013,-0.1114692319251138
-0.005309092943631866,5.716529680466866E-4,-0.0060020651189177645,-0.004397551855692568,-0.010478181305672789,-0.035735503880641284,-0.040038030120751925,-0.0938483528549582
-0.008554521702517075,0.006466722333503155,-0.003422100162609403,-0.004686640588834209,-0.010309281015142831,-0.034949385339231615,-0.04048830260900647,-0.08867270689708584
-0.005065883475812941,0.004371444033401242,-0.003563790347194884,-0.003924267211144919,-0.008276358299973675,-0.0378011422675587,-0.03629064295511637,-0.07545350950375715
-0.007311256756928359,0.007349724216502505,-0.0028788308286257355,-0.0038035506065337466,-0.00828087504988971,-0.03249292339621095,-0.03302084322878473,-0.07724346856673728
-0.012833821398943753,-4.429425355315937E-4,-0.003282164418253209,3.980823531140788E-5,-0.006992323832601884,-0.03009157940259634,-0.03609552774687289,-0.09467249184849214
-0.006204623355259316,-0.006880099232132686,-0.00496183170934074,0.0032538187411978456,-0.011546389535550611,-0.025426763334367712,-0.025901516384515873,-0.08981603464270682
-0.009267521427362825,-0.00554417436854898,-0.006463046996377715,-8.680875044095095E-4,-0.010419710793376474,-0.03413333084236375,-0.03282529383756255,-0.10083919905105442
-0.007864471858755252,-0.0017257862719560063,-0.0037120951416013334,-7.211827407250998E-4,-0.009250658386891208,-0.03149376569698836,-0.034679251875663224,-0.09760899556640268
-0.009471516683657054,-0.008549386104373164,-0.005565836078261645,-1.2555461045466433E-4,-0.009625550556012998,-0.02580582655447317,-0.034534264905554016,-0.09686437243891308
-0.010335851294934154,-0.019956142817561664,-0.010241930719057745,-0.006642177351501693,-0.010547534819001928,-0.031584912985324946,-0.030879681305277424,-0.07818890336123015
-0.010843058990862364,-0.01794301102175765,-0.006747539841953205,-0.002944426435488566,-0.009184945119935976,-0.025297322472885495,-0.029591428271487245,-0.08206378014170398
-0.00870643974890687,-0.008159927987185357,-0.004411183830399202,-0.002208307854224682,-0.0066144980500434086,-0.026619462268491056,-0.01695591735372626,-0.054638865277734344
-0.009426295394933103,-0.004789069191519855,-0.003372950623841541,0.0018420945007016597,-0.012642175680448555,-0.024189529623991023,-0.01892772174024585,-0.09386111591892735
-0.009058853953634241,0.005932669633869359,-0.0032007116939447686,-1.3573140339039592E-4,-0.007330516370489736,-0.02238646318271499,-0.029050098716680243,-0.09751924597559959
-0.011076850684361692,0.00205601638297421,-0.0038739057367060898,-0.00476858030404384,-0.008844017838618256,-0.02356731130738981,-0.01936867634044519,-0.09916766083068551
-0.007729528182963308,-0.0042344650752409955,-0.00606186114448099,0.0014878876927486792,-0.012481264583940279,-0.02771337968291342,-0.022564622921895656,-0.09053070070284495
-0.009717838176035049,-0.01210325929686863,-0.0035361603172166366,0.002425440856126515,-0.008572134965749397,-0.026209483396120416,-0.019932254480769598,-0.11187016914795421
-0.007202562390819764,-0.01298614429419077,-0.0020139866110893824,0.007165806873713517,-0.012701786711298676,-0.027188269280272414,-0.0207395908053869,-0.11647365580240139
-0.009891089093577023,-0.015980212930804098,7.617210106734863E-4,0.004587466678928044,-0.014812794954339185,-0.02322207702759027,-0.019803026604709163,-0.08795778130902368
-0.010332797468800845,-0.007816284258743023,-0.0048944784102877194,0.004594880944468904,-0.017194726206585322,-0.027606907407108437,-0.02416768694217407,-0.08663266149014275
-0.009128970010671358,-0.010669013088609392,-0.004467679347120019,0.0056349214471186964,-0.018109818425972004,-0.023021843980714378,-0.02167971516447163,-0.08875398829449709
-0.012179812478153938,-0.016367472321269914,-0.003043853434559973,0.007036367364541422,-0.014588362246656475,-0.02844924571560495,-0.015365783087755165,-0.09126370835925171
-0.01602708722520354,-0.007696138963039555,9.125015268963732E-4,0.005301699800061674,-0.008618669354701437,-0.023638326779143872,-0.0192573239905425,-0.09237076163847753
-0.012002981109470576,-0.004011240338800897,-0.00255439889067616,0.010831099983597787,-0.015277419559250258,-0.027822600627017673,-0.017265619469720966,-0.07218641526985994
-0.007262441817778631,-0.00878414065007342,-0.002629437262727391,0.006419252200358885,-0.011240889195964799,-0.02539301427637937,-0.019770280769570773,-0.09611001423146538
-0.010214997767518242,-0.01846712254773231,-0.0069376483176925964,0.004798731417846952,-0.014528262335712938,-0.02755655752117732,-0.02370017394791256,-0.10038766941925244
-0.013676708863450359,-0.00550781401991737,-0.006382750490767779,0.0010920763245865258,-0.015393311715645827,-0.028946985913022683,-0.023773715301468115,-0.08532682745744206
-0.008527027766117133,0.00487061918853431,-0.003795797708481296,0.002929626384699733,-0.013391357875369365,-0.03308617362845573,-0.030088457586538296,-0.06835410010074502
-0.015879093760053045,-4.567144405193408E-4,-0.0031383536754013256,0.0036042927506144094,-0.019362858006618345,-0.028523873416034195,-0.03074827519932109,-0.047585889381159326
-0.012571564548471383,-0.0025602092711919135,-0.00238868718761222,0.002616860732783204,-0.01909464586322345,-0.025510406888092266,-0.023202666009465776,-0.07884532906033108
-0.013273871571999865,-0.004194603950638027,-0.002254942256437007,0.004195740569277028,-0.013823212053327687,-0.02974272103602472,-0.030953999660319406,-0.08487173855024818
-0.01177033821833193,-3.740016881824995E-4,-0.003412235735127256,3.7806831874844535E-4,-0.013235495962688845,-0.032636174080665235,-0.03636799263610513,-0.06579453463806559
-0.014491378813540868,0.009004501422061658,-0.0012827452792195785,-0.0014504260987200704,-0.013697867651852512,-0.03732599506539648,-0.030608398001056823,-0.06109002897024286
-0.01169801054434304,-4.3138517186491407E-4,-0.0017019695567811106,0.0035927575761816634,-0.014207878819989306,-0.035743732265505916,-0.033165923574182764,-0.066482103286428
-0.011427108059897705,-0.009079380169340996,-0.005337317034916456,0.004769374505248207,-0.0147039444570934,-0.03793491853221497,-0.02745513986420734,-0.07906565440604187
-0.010364690822906019,-0.010023703697154255,-0.004655488305762595,0.004657587775421282,-0.012895460630558773,-0.030503568209781257,-0.02870486571705723,-0.06311872116363701
-0.013873922769733914,-0.0025871840612556895,0.0014776571054415481,0.008633480544628739,-0.011900722984631924,-0.03113711427846192,-0.027249081599572497,-0.07506701302502808
-0.012167933822118546,-0.0033763832109411055,-0.002207794683753886,0.010355886449860985,-0.015177937385843138,-0.03317918277470397,-0.027141211068904367,-0.0910982612558597
-0.011971595347036663,-0.009177200011412746,-0.0030885181949299395,0.005615162444821734,-0.0160395556037874,-0.03301102552990183,-0.027974741205643635,-0.10198670562852172
-0.008005327713154202,-0.00950092611058442,-0.0016707298010050003,0.005997292136150693,-0.016950756878461683,-0.03753361377822327,-0.035103851519200195,-0.0826353107069868
-0.009273522021306138,-2.859019434927737E-4,-0.0023048189550587106,0.00459212692085831,-0.01384513057122064,-0.029409948505416263,-0.034823023686310454,-0.05893348591865923
-0.012006910679875714,0.011658725246351557,-0.002192597286835437,0.004197626028688689,-0.018779498641588257,-0.03246687212607796,-0.020600258218173535,-0.05036775861179313
-0.013298452821889952,4.663523059387116E-4,-0.0014826429933627126,0.013495515737245778,-0.010016676821715241,-0.022845424942103697,-0.019429354078279604,-0.07883121192196134
-0.00975830947833681,-0.0034329338270737246,0.0022094280710177683,0.01047717684313561,-0.011850331481840426,-0.03026121544604335,-0.024552104975560624,-0.07104722579191064
-0.012964160684680514,-0.004081010415668037,-2.184443128330516E-4,0.00801396784154656,-0.015561568630263563,-0.028318635366558112,-0.029323740497484298,-0.06045642318401748
-0.013247539072234983,1.869009416326039E-4,-0.0013383408791502838,0.005479192449902211,-0.012079665259424784,-0.027753584463717163,-0.030846456936478722,-0.06391767601820823
-0.015692873657418137,-9.483080338583504E-4,1.751015175471484E-4,0.008194648024452078,-0.010891419503374924,-0.026946286999018375,-0.02569227915083828,-0.06606101029671056
-0.0077033032062631505,-0.004012344007147323,-8.644518316957142E-4,0.0130253436893157,-0.00796248711036858,-0.021826792924661484,-0.01792792521722357,-0.07049320345847138
-0.009113261813963717,-0.00813544922799979,1.0767383267827023E-4,0.014167952394573474,-0.007125045010753167,-0.023567702381209695,-0.01995154764952269,-0.08348596829284373
-0.011872147789330585,-0.011788533784758354,4.8050841619467466E-5,0.011405213573079366,-0.013111065098903566,-0.020612667285710276,-0.018108470293869063,-0.054525632245390414
-0.012338690113029238,-0.006527795245461416,-0.002496845556577197,0.008739285742556804,-0.010054057298747116,-0.024454152678100423,-0.019613395471409847,-0.06426681936040246
-0.011840349334003877,-0.008268681292539251,-0.0033334318351407968,0.0048536144732356954,-0.010379785651254466,-0.027796048608831028,-0.020683965701489452,-0.07388192490233911
-0.009811966854679001,-0.014941168371392505,-0.003483943565049047,0.0067447357292433315,-0.007090044677232415,-0.030987311763806587,-0.02100668583097299,-0.09658194741579901
-0.012038010092204829,-0.012565096847780996,-0.0022295270120838468,0.007677723455576358,-0.005245137713822449,-0.027140578755274886,-0.015269047668880901,-0.09730486079613149
-0.009428040000173448,-0.01254408054076753,-0.0010608046612471925,0.0072916064695737835,-0.009586249080431507,-0.015512455971897376,-0.012150709573048056,-0.09369653705457309
-0.009612075405180168,-0.013364973065522989,-0.0011619641531340871,0.005398790206379755,-0.008557292644361104,-0.016502274106994928,-0.02052907907455679,-0.10148828904619633
-0.00979970637621082,-0.011732498312022789,-0.0031207006844801237,0.009672964850285648,-0.012131661018412935,-0.02449303894028505,-0.019763179749549116,-0.08460752483178959
-0.010926449301186568,-0.010851830163988902,-0.0033767020320478198,0.007643241284815639,-0.010676364825681012,-0.026569598791467145,-0.02934848754167301,-0.08457341355050638
-0.01216155799729082,-0.00439949780512126,-0.006824204209530677,0.0035169558116368888,-0.01405753817894392,-0.02828999104608848,-0.023541418886344777,-0.050267672012260255
-0.01369998499857287,0.0018916722827723902,-0.0022425685469912846,0.0020687677427012256,-0.0076507314784966885,-0.018829966117085158,-0.020669982264824447,-0.04224859737837564
-0.012859468581522702,-0.006630319266092445,-0.0031484500602225723,0.0037613301290858945,-0.008593104340225966,-0.020486127148516626,-0.016283320972670868,-0.04143496593996993
-0.01155380009081857,-0.005399397628315749,-0.001491341731309944,0.008779812621553362,-0.010187518498427662,-0.01580964107923006,-0.021186016735795666,-0.06064019281142162
-0.012922510627954941,-0.010733923617995291,-0.002591555342162349,0.00671363656376933,-0.0016878009265450745,-0.01715900332462911,-0.014025891981248382,-0.0741679581740949
-0.011887856252522332,-0.008325847843120867,-0.0019403860533298311,0.006029583686192941,-0.007867874928496416,-0.01838069061535234,-0.01332346711514662,-0.07795221626278287
-0.012394505379427111,-0.01011580729711908,-0.004487839684942183,0.005535937403913967,-0.014598678465401681,-0.023555144006421933,-0.013785929679312803,-0.0778505975796915
-0.013225885457833415,-0.009607802254303079,-0.00467980371426454,0.0029408203199310966,-0.002136318192097968,-0.020590689613489123,-0.012847239945282057,-0.08169533203237984
-0.012874362551193938,-0.01968086526539546,-0.004959685549542538,0.005190937216766582,-0.013342913938036636,-0.019907629452389136,-0.014079145507047348,-0.07087480919830584
-0.012375665010391798,-0.013697100818140259,-0.0015643493208642957,0.0062035334971422195,-0.008652106993395466,-0.01368798226209894,-0.016723560216039015,-0.06667484546521942
-0.01526206684335565,-0.005761872503573404,-0.0016702647924310484,0.01076391962882517,-0.007852035186751675,-0.010654332383472792,-0.010830054560180002,-0.03957064851432061
-0.016376277269875682,-0.0012175512133446621,-0.0021663642726663683,0.009317893027418624,-0.010998662104196245,-0.019797138477420224,-0.014667216932953938,-0.03663613916654654
-0.01417478203264943,-0.0070804474116664086,-0.002680873907030005,0.00839737164083862,-0.005236471930520146,-0.021684721164368474,-0.014734338966724245,-0.05612806149274239
-0.014105424956020334,-0.012675026119658626,-0.005188030585233906,0.006999313797651547,-0.00441107441389286,-0.01582865818413806,-0.012447778180290152,-0.08217637475264519
-0.01471891607103583,-0.010938259847943665,-0.004824659427167463,0.009495258331020873,-0.004492560239264065,-0.01700345015117952,-0.014835644882351428,-0.08865878201378771
-0.012485304949003663,-0.010137687667373801,-0.0022390721600518424,0.0062480000950082305,-0.006414239948216996,-0.012725930494111989,-0.010184388418020163,-0.09055073750299683
-0.011933682826055053,-0.011019934522897477,-0.0025181560131901683,0.011186261885388344,-0.006073646062355352,-0.011510427466650531,-0.003217748054153085,-0.09177554726844907
-0.01061667235890324,-0.025063780440757945,-5.395699214441294E-4,0.01095803298097377,-0.002808802523266393,-0.00922161684536649,-0.005551992593999909,-0.09652292257727116
-0.014531359821359644,-0.023553930347692282,-0.004029663637305777,0.007897417148490614,-0.0020351818954274206,-0.010084837116276795,-0.010144049998844601,-0.07306827267675958
-0.013748769655156836,-0.013078937797996022,-0.0032839186384306563,0.008162552230266991,-0.009309784178732258,-0.015825215677612386,-0.01365122660971779,-0.06017232056547271
-0.008550355302114843,-0.018543676404005914,-0.0033771933436265804,0.0067437425690133595,-0.006929069672055962,-0.014011393459559585,-0.012363369968136787,-0.05385173917955441
-0.015044945905214727,-0.018356012355053034,6.878438014289645E-4,0.011770871611040097,-0.0042641032956148685,-0.008116561724280063,-0.014064535893819771,-0.04999684775527246
-0.014564072650934009,-0.021624612026379456,-3.1258925088534386E-4,0.009373345667086018,1.1434316244072276E-4,-0.010551520193867047,-0.0025396163942490555,-0.07373350996844051
-0.010620489575411248,-0.030704642167192084,-0.0011751164717219737,0.013182500640379603,7.54003710382006E-4,-0.004861740499546753,0.0031006950351615513,-0.09865354030532028
-0.004908506673267168,-0.020255938413449835,0.0017241108801870043,0.014015630041058972,-0.0034964315192109454,-0.007741548316795956,-5.687993328521771E-4,-0.11178584810900075
-0.0096713996049328,-0.018050024870068807,0.004061571686685405,0.012172103960712933,-0.0071750794365317205,-0.012272389654820104,-0.005909390310401697,-0.10936827902203941
-0.008859640107158524,-0.010230363481960868,0.0027873110876364335,0.014750602499467124,-0.004781748001985686,-0.016042284871662545,-0.00547096416973988,-0.10640919480419873
-0.0077757218855527,-0.003061355943647067,0.004079511962438412,0.007039386932756042,-0.0023106860696240875,-0.008447417892100904,-0.008667259247051268,-0.09494485506483
-0.01287428683134283,-3.054272503812817E-5,0.00450495525646494,0.012571757640365276,-0.008009965329626894,-0.010418816765361131,-0.008678531343791202,-0.08542625597840763
-0.015307281915754447,0.0014741662532504688,0.005433615976944348,0.01478225102984362,-0.002157887818463218,-0.00889758119539515,0.0014406353845390915,-0.07997968013518993
-0.014518181541409289,0.0028233521986968974,0.005795092711838497,0.01384403733413468,-0.004045887549785107,-0.010179378529194061,-0.008338781804217156,-0.07637615485568239
-0.014036754005151123,0.009551313360186041,0.001270524467634777,0.008991066909310348,4.568702228012031E-4,-0.010913403914028333,-0.010632425081199883,-0.0804111637931439
-0.0162756252329051,0.005894873902132545,0.004296097175318609,0.009367660882439798,-0.002112657100603432,-0.012745959004323711,-0.007121964590965086,-0.06667571587514
-0.010635292380809328,0.007631534580518692,0.005113304638243314,0.00863793251371728,-0.004400013164383867,-0.01349723717866831,-0.010379804218690968,-0.057167910267122986
-0.013771879607093095,0.0023881928252531322,0.005835599651710633,0.006853560496576443,-0.004040502468363144,-0.0049851925628247515,-0.007741137188511555,-0.05416997890315639
