0.008875785075207416,0.11019719714615604,0.026083881392861535,0.015048880637030462,0.009862918124498727,0.025082965409638162,0.05200265646796007,0.17205172623215667
0.0033585930958740444,0.1113518053522077,0.01263761035796828,0.013720818114776349,8.622981889064441E-4,0.018853909307308587,0.054729903665822296,0.22394214066423188
9.077520683850273E-4,0.11927602024516656,0.017434330208532155,-0.004175771756341639,-0.0035299199114657382,0.011421496951527636,0.03708236856219833,0.16618906188184668
0.003790242411033039,0.1159999344879626,0.0015816914488142174,-0.021017685685533537,-0.018370243013236087,-0.012638464789167506,-0.0018793018268525048,0.1274033210584098
0.0012413772094928214,0.10995435069347612,0.012714289714181043,0.008307660376078479,-0.030192936407816895,9.69348742136491E-4,5.463519058744922E-4,0.1412563466422467
0.011632297851087409,0.09452519548946209,0.029447064816726126,0.03962736999409528,-0.014318612824775543,0.0357981762573479,0.05383074499120333,0.11647801383813312
0.011398503689511572,0.10786560256402067,0.02807856575160112,0.028545561742266974,-0.0031128551944497036,0.036178972529554855,0.07447333930953294,0.09323374856615128
0.003986553948221298,0.10672781676664381,0.022423767254474435,0.0185003691938171,0.003337643849472441,0.02142282289065415,0.03588386260865578,0.08171295959757156
0.01118151429893731,0.11717739362823432,0.015714779689530237,0.0015734468555735142,-0.025026473782607018,0.0036486700419680203,-0.0014269009108213992,0.10682307267356192
-0.0015272914131305145,0.11106034694615619,0.003957526718489706,-0.010428484545073809,-0.026996575622640923,-0.02377546642501166,-0.022892921951581956,0.06026041180709189
-0.007715444363507119,0.1074134984249779,0.005350700708155123,-0.010038419092522238,-0.05085755109749938,-0.029490633516305147,-0.026509270639958324,0.10109813292262342
0.006925899165478362,0.1125061852945473,0.018654673020511273,0.026112949510221552,-0.022721499172780345,0.013237893901520286,0.032259821207983805,0.08803848184220986
0.01133742722234696,0.09827575108393673,0.019668249307083815,0.022827421303585574,-0.017583898370781358,0.013109836187316527,0.031973818144368164,8.934923592841403E-4
-0.0024151539475440135,0.08472458088127614,0.02030591568068819,6.284902875587265E-4,-0.010008633162109823,0.00922360666953753,0.019270864031118978,0.03802821804940612
-2.211146986388438E-4,0.06902103125618875,0.003945413726561504,0.0012077465688250975,-0.034409247056715865,-0.006999010601470149,-0.027889277101730142,0.07714029475530346
-0.007655814407757433,0.09139194363661082,-0.007519106086863478,-0.02317777054038072,-0.040928796035668125,-0.0472517181127763,-0.04797634020587445,0.11232669537500055
-0.002401459372110382,0.08959093717617983,0.002008141705079345,0.0027735028506651613,-0.03919071028851843,-0.020945936812389182,-0.002347609269339285,0.1560827008496857
0.010286867108773445,0.14218889765398512,0.022592287004615307,0.023888029762884608,-0.008287799429185864,-0.00747206661055801,0.018254258830859047,0.1495326318230554
0.011655345083072541,0.14879910991102357,0.023107263492958344,0.017880021436662716,-0.0018409948758344285,-0.010262001086106438,0.011705481591466239,0.1968115466836608
0.0025453319972795116,0.11742517657062378,0.015125382837049093,0.006705986357257997,-0.027226160265742892,-0.018342095655319014,-0.036146917448017964,0.24216400646338537
0.007663110940050457,0.12147390596503417,0.009925434300628285,-0.016480192831351246,-0.0405981070170594,-0.0567491471727182,-0.0519338053254424,0.15923909282080656
-0.01122552375863139,0.10211335678861051,-0.014968772291692129,-0.041333739037975846,-0.05679158217962998,-0.058905943417381486,-0.09170171161249886,0.03450746554783556
0.01192708612878985,0.11808546898430915,0.01674049917077028,-0.011169583219191186,-0.04743494305442936,-0.03326366920623377,-0.03797694877977528,0.10586195206893775
-3.798944055197732E-4,0.1308825004788279,0.026506544956089013,0.005595062425837534,-0.022708436946276143,-0.012837763014504157,-0.006706900687714668,0.14549015034752372
0.01237819336254641,0.11859521115006817,0.02171672611408443,-0.008728091261169522,-0.03265361920662174,-0.006432256708840425,-0.0012271271155182126,0.14535997853595126
2.7083909384101725E-4,0.0946546348812677,0.007156394584884493,-0.021237648834673176,-0.03165733377729494,-0.05026202493874979,-0.04253507513290719,0.08118415536759657
-0.002467064144315596,0.08716002897946215,-0.002602330734513143,-0.038402823987253205,-0.05072808030988615,-0.07057345201721828,-0.07673910543360622,-0.04237520346841072
-0.007370793428239292,0.07356894626345321,-0.022154848935718698,-0.06297373158970511,-0.07153037870443305,-0.08433853820171178,-0.12323385497008253,-0.006540773907897805
-0.00991598076030524,0.08420095187735166,-0.021626052346642603,-0.0649619691773947,-0.06738066275835695,-0.09818781886832552,-0.11552658920268422,-0.08697518337449055
0.0021541945033359683,0.07892678501531541,-0.0025453875203057794,-0.030291504067294764,-0.05582703785178356,-0.07042402803324511,-0.060413352044402714,-0.08096615591748549
0.008041620291087223,0.0973479915561607,-0.003322006408520384,-0.030941310922131305,-0.04397618701246438,-0.059656813255876316,-0.05565395407362612,-0.005536943712609833
-0.0021318143697392072,0.09422044708216501,-0.010062923431319544,-0.05785974493765463,-0.04054832335120589,-0.06870463869192528,-0.07962766265411493,0.02202248236239055
-7.436928247585655E-4,0.11477137881078131,-0.01649013690355725,-0.07057830049943961,-0.06584782345412948,-0.09438656285746277,-0.11551659347646528,0.0901540818907885
-0.012778913518977177,0.10161991811640819,-0.03682665524244352,-0.09121974305718876,-0.06745101061519906,-0.11643157734923183,-0.1374860104250139,0.08262069218441934
-0.017040347684144058,0.09843121245021987,-0.02710509496387726,-0.07477449904071179,-0.06900367629582148,-0.09263296862452457,-0.10606108140564173,0.028227455138463076
0.006877462127894965,0.10846013679835509,-0.01679863490524493,-0.05341608176135136,-0.05691216565023304,-0.08418514651838034,-0.08762425481254414,-0.0036605340575014927
-0.0014203908640071834,0.11228762724214598,-0.019936851904405823,-0.06755037046818305,-0.04257715187723707,-0.08210713868606992,-0.09660344982539928,0.0829705577143009
-0.0050858710396863615,0.11662803174433439,-0.029981346542369173,-0.07842182547817832,-0.056659872474886415,-0.10769029401208548,-0.11281421251999861,0.10458317325614215
6.425282540606859E-4,0.06926984869399293,-0.046823255465127896,-0.10284924527948232,-0.06839402014489393,-0.13012427060217807,-0.1396813431460475,0.015692173320049987
-0.01629298112618855,0.0779691630445252,-0.05724214410159805,-0.10926644446448912,-0.0767812402416784,-0.13067164313756138,-0.1674924818236269,-0.059744355942220904
-0.003795808096485131,0.08105886806420129,-0.02766332835472157,-0.07325703936492226,-0.043548772500470664,-0.09049064454480045,-0.09608388162489752,-0.024606507368330786
-0.007410578088012951,0.05584967407646718,-0.018616376764467542,-0.07032586813454045,-0.03891497840028508,-0.08067305954719843,-0.08391627844298215,0.08136322147959923
0.003796817790342716,0.06445278380598306,-0.022478319717589176,-0.0740950112483062,-0.04555318654381425,-0.0846204876415554,-0.09358666499027547,0.134989123931195
-0.004529380974204314,0.058682952850336645,-0.05042303602937745,-0.08944164235929629,-0.056234098819159604,-0.10084109957188346,-0.13644325630156204,0.07998114091437084
-0.015068001747435915,0.05219904988753635,-0.055565312784579504,-0.10462861485596434,-0.06068591152739442,-0.11191666031273532,-0.1500206261355819,0.0520902543325154
-0.022375795286220423,0.09122842594888539,-0.05609598723663203,-0.12873568320878623,-0.07376551409624778,-0.1376801863433425,-0.19423366765458566,0.04374442979110296
-0.003341649493399048,0.09776544090644641,-0.03980092267854792,-0.09048882526642449,-0.06757850071133484,-0.11523778462801244,-0.13911630065053535,0.027928816882450642
-0.0058654336898494985,0.10156238901994624,-0.038699030793286,-0.07220222942129832,-0.048371111491444005,-0.08512853351862412,-0.0908413401977494,0.051926947877399675
0.0042525082638091,0.09113573231888726,-0.03877034690629696,-0.08332902194534643,-0.05127998150491459,-0.09177264832683223,-0.10469197316811991,-0.09916476885361238
-0.005380035461164907,0.10029967234796121,-0.0345421736869089,-0.09691134952133862,-0.0503611581238905,-0.10690407049883405,-0.11209947730474566,-0.05179059909402545
-0.006652030487915438,0.09093907071239105,-0.04786587087592106,-0.11205636556508497,-0.07261114870364363,-0.12948290876387022,-0.1650442182258401,-0.0949894233481741
-0.013583353082499347,0.10029774703489423,-0.0595164487193387,-0.1294194082150972,-0.08532028325535179,-0.14579787315365858,-0.18952243915757958,-0.05001013341634787
-0.004984698624734266,0.0848705231337886,-0.04410670810292852,-0.10799943500456065,-0.06636183969525992,-0.12259838704195933,-0.15485857622747512,0.08123132494626713
0.012911375541714088,0.07759614502636036,-0.04187948168525149,-0.09034090213305025,-0.03777785550149297,-0.08415644250911676,-0.11176510644466645,0.0419179317412306
0.008102900635652556,0.1041039042009071,-0.031474961402562264,-0.08224003691722842,-0.03777008308924351,-0.09339552381847034,-0.12023998601899763,0.11954627932985006
0.0026208240603301717,0.10373785666509537,-0.034061694236634334,-0.09306023557219735,-0.05409805380289677,-0.10208180596426626,-0.12244226365531839,0.10982784627139525
-0.004606590823111315,0.09972127679114744,-0.056010764307921845,-0.10315929964621463,-0.05210790215240198,-0.1213963280191131,-0.1595275747844344,0.10998983406440667
-0.009797316828980884,0.0717582703718509,-0.0682855578017267,-0.12705464766360902,-0.05974323279593385,-0.1454929238684119,-0.18616104608635972,0.06863933159342896
-0.01166017212703422,0.09901933588593738,-0.06439417386974422,-0.12073549573204201,-0.0797972242937162,-0.13574770673534192,-0.1818313488347272,0.025204864258351847
0.0027515909902233863,0.06585580031727567,-0.04028366994530462,-0.08921242853883447,-0.04468044701596012,-0.100919947831566,-0.09787455158280206,0.04000284031982855
0.004215719011662039,0.0716385018871891,-0.043414830918962054,-0.07758381193643767,-0.03211845018336526,-0.07083659303829466,-0.10176499483834925,0.03847830796139566
-0.0021925388415034155,0.0774364331466507,-0.02667351645656144,-0.08372821558226756,-0.03541161794776848,-0.0756257973916958,-0.10902252824910413,0.135079770096759
0.006641811820881803,0.07964032791231064,-0.03987636366163701,-0.1050521065411773,-0.04493789928659522,-0.09355914804158202,-0.13380125900112932,0.14511034298432807
0.0017738798480183887,0.10189763909435338,-0.05842956150704711,-0.11329205059973489,-0.047932959764105505,-0.11442328101251696,-0.15692809374233488,0.1490816319079908
-0.004847315268670767,0.10484442070091834,-0.07034570397947877,-0.13685661601241092,-0.07126263890098744,-0.12345825360869143,-0.18084341046477218,0.23506090089798581
0.0021517485287563106,0.128657440007629,-0.05763721238733776,-0.11626747582197816,-0.05174552888200469,-0.12335894976828295,-0.17131628352180886,0.23549735451674814
0.00610441738879975,0.13687048187436868,-0.030492869925338704,-0.09198077470164874,-0.03450327867798854,-0.08753004001091119,-0.10955628840378759,0.21564608499942572
0.00869102650242419,0.14542592231442983,-0.027084386841025668,-0.08554930441661816,-0.04642968562258276,-0.06359334464027648,-0.12212382173255458,0.10338993811145306
0.010729895643091979,0.14363701623076935,-0.03380509936202772,-0.0920016025583931,-0.04579000381540391,-0.08357653684312256,-0.11479127007126914,0.12171143047898417
0.007484630101760333,0.1316707602564052,-0.04211594048210182,-0.11518969145590698,-0.040393480191662064,-0.09908258165746488,-0.15146871987889834,0.06359385570156843
0.002345458365338429,0.15720124852887205,-0.05572117420381615,-0.11917033470568385,-0.05094419737942009,-0.12112162291638663,-0.13720028376173066,0.1533535406906117
0.004048265747719346,0.17191255335679992,-0.02200022606800124,-0.07604864733718975,-0.032902316430934435,-0.083256583940938,-0.0923103410314065,0.14190588216452416
0.009304576839485044,0.16989818992707265,-0.01776690166040241,-0.0779118110278843,-0.0296313809615568,-0.06624599974430084,-0.0882655812370698,0.15338049369547768
0.004069519201290978,0.1279789124161836,-0.018740609860128127,-0.08412947698063855,-0.05310429786466301,-0.06896866158448499,-0.09334110373099933,0.09481343720408592
0.011424820483449439,0.1268241001726369,-0.03535059182572199,-0.09855663915544939,-0.04362490510032179,-0.09253543798782667,-0.13139718749552037,0.1455640393414341
0.0026396660807273395,0.1298639860034951,-0.04963796623925421,-0.1163967852005057,-0.05621775802679361,-0.10535445347883107,-0.14358310000864088,0.2045438302620437
0.01852011788789497,0.13645078260452093,-0.01864253358057437,-0.08549036522560309,-0.03163359497329034,-0.08888880191526846,-0.10318196140584061,0.16581773620561213
0.029049332713516816,0.13303002277609385,-0.007499405294997134,-0.059183435967613135,-0.028062918831264154,-0.055361473114504775,-0.07408058114318562,0.04562965148116599
0.030248996927507116,0.1579293057544346,-0.0013956186109200608,-0.05110596588453303,-0.01945351076343527,-0.0468856490808085,-0.056610896806525764,0.04267664719513302
0.024269473219033645,0.16168836789836816,-0.004643321472290349,-0.06776955045769176,-0.02539365012950119,-0.05749044148826707,-0.08868664682861571,0.05442390001150104
0.02787973113102703,0.15168963789298812,-0.00651396607065746,-0.06807355252574111,-0.04133918088628006,-0.06887208051415744,-0.10783900285252929,0.05248773731756086
0.01499628807184906,0.1398736567577977,-0.029213056429994562,-0.09500670071496715,-0.05964422115344365,-0.08578317379975153,-0.1313933174780762,0.11582184285848648
0.018502386284734267,0.1498798420786244,-0.014888444437823056,-0.08265278107131513,-0.04754151364398275,-0.0710703699384515,-0.1240437896651886,0.17194274453077288
0.0361577906233706,0.14551856979990252,0.011804315838902863,-0.04237257055618847,-0.012877098269402431,-0.04685431515438406,-0.050589905257577256,0.2800400548033169
0.030429807235511065,0.15020585880684878,0.014606222563873861,-0.031098554605724086,-0.007655106513336083,-0.026798249653454072,-0.028715730176609715,0.28258304542913093
0.03410755677951337,0.16505349420756224,0.017646105726933693,-0.042719584125949575,-0.015432027935310049,-0.0356862997496812,-0.05056684282777278,0.22636544869574712
0.028618690937308903,0.16470916576547254,0.008251175175184472,-0.049779008407816454,-0.023203546466128405,-0.03449651955376191,-0.07619969525615437,0.24760687341341664
0.01766022805851626,0.13455907749894727,-0.0012698091262321799,-0.058551356889650776,-0.026971886435553715,-0.07419517861162986,-0.0763356299231017,0.2425136788790026
0.04308617924100527,0.15291208021657537,0.015805678582374246,-0.018596505031426097,-0.006092120328340479,-0.012832679219833477,-0.02568250052201293,0.27511979074106535
0.04087996814764844,0.15145925308078467,0.02650495673822308,-0.01261937517031414,-0.005673535871266074,-0.010140736509702411,0.003847508820869435,0.2368137483860914
0.04042748641566499,0.16532967283977276,0.02856416019143534,-0.010277382993474938,0.00244322480226967,0.003701498737926234,-0.01749197270448699,0.24265735866744803
0.03353164299463178,0.13800692322879732,0.019643844121083394,-0.029727417185827883,0.0019849247426721697,-0.017409767172266697,-0.03464566274058717,0.30226468593126216
0.034873692098521376,0.14680451750505755,0.014892561398391008,-0.0170804517062864,-0.018407531135775864,-0.028381060866093724,-0.041282351689975155,0.2681648901150064
0.03970432191357503,0.14744293662460678,0.03679096382213842,0.005905958950056609,8.501066429191551E-4,0.03051189908572824,0.020435903869489735,0.2918380013035634
0.04850895169661194,0.13853702810051605,0.049999626923820956,0.02142878776684212,0.02429863366737494,0.040755427829406436,0.034528351425652345,0.2607589798593275
0.046032199100043775,0.11711938516104063,0.04960997568551956,0.007988455672420574,0.016816737252875958,0.02183509591198751,0.027985985484067104,0.24594809328931608
0.03728341691287504,0.1263095968163711,0.04430624880839794,-0.004901811712841885,-0.005553510289805178,0.003488639581351426,-4.88923485322039E-4,0.17548806668759728
0.033158226229375413,0.11566436270334442,0.02623603927500861,-0.008647167817111077,-0.0212838170919427,-0.013401819329543391,-0.026813012975399873,0.11264740386205105
0.031342611510787335,0.13360947207660373,0.021721343309847926,-0.01839039009202499,-0.003766656337307257,-0.021984124860032647,-0.051235787096419946,0.18085025352661646
0.04574073958953096,0.14489348261498397,0.04555378752671378,0.012812491514257267,0.006263105828379898,0.024221965507531817,0.023040129776899693,0.25234846520577014
0.05467211780979157,0.15877752404618542,0.06725320823938981,0.01563506923982317,0.0330138448698264,0.04861483102339524,0.04611612854361196,0.3210495132257122
0.05182281502352202,0.154275928386741,0.05726480701484216,0.022215527013052513,0.0331562261914198,0.05203022642087013,0.03661831252867831,0.39939906064312997
0.04667456463332436,0.14741229045506057,0.044637527460753244,0.01375489515175847,0.03116147234962074,0.02035533842372199,0.020883196081364682,0.2865747057877835
0.05116024854786431,0.1418764587178477,0.03414782860862781,0.005979478252438009,0.0040056336131067604,0.005751119264431363,-0.01660630765169044,0.3190953090033503
0.03326375838777789,0.16047697065881078,0.025382836579497765,-0.020334136823485838,-0.015644188853652555,-0.023309811296887594,-0.042639315690298975,0.24786397190237622
0.04939945983704343,0.1157646025531207,0.04313127792644283,0.012048727332628614,0.004255089165782899,0.009314483052095247,0.00997021325307383,0.23429447622599445
0.05383331378403738,0.09249735929586757,0.052781014653753525,0.017545954957912092,0.04050153636731904,0.02143944285051605,0.03994973653458142,0.19517884724203804
0.037395906978106595,0.10703085929552165,0.04503423856022687,0.017093945667487294,0.00944200583350895,0.017207980657020668,0.009325020101836685,0.16586874034527474
0.03753138412459006,0.07641216643568494,0.04624326945083513,5.935101245085566E-5,-3.499797116659665E-4,0.012037147165116066,-0.015763258455216325,0.14098390372111355
0.031333761907722704,0.09349639974391323,0.026545245085089594,-0.013147329615382265,-0.016084457570001445,-0.023411300873008238,-0.02776471774283384,0.23896194886256344
0.034459842624257796,0.1009823150840887,0.03506109810597732,-0.014457986952752435,-0.012638367222856788,-0.01683361233258233,-0.03779050660387937,0.19621115385617716
0.03837384649700903,0.12189567898216772,0.054861051070178087,0.025073948606037004,0.01848419167772056,0.017707466048688822,0.02046247789711232,0.3068072343984629
0.043438349517416805,0.1271102150278469,0.056329600383583645,0.026493028456487107,0.02805447677641295,0.034950091401119196,0.033793245160432785,0.25471460896346987
0.04159315980099329,0.10811435607898866,0.050711779170981325,0.017441927225300736,0.010900969942068418,0.009385749843850556,0.022613490921937866,0.24555759023272866
0.029647764160307996,0.12272980358419587,0.03547047837978256,-9.917319787111051E-5,-0.011885856711447134,0.009757997012746789,0.004114363711531045,0.21401331336295426
0.03111847967078927,0.10035660358603735,0.022400064499475503,-0.020282096527261626,-0.01158714406248965,-0.027522516344086156,-0.028839833853595724,0.20212149629763093
0.01792073649324215,0.07500258963050552,0.010058422951968049,-0.0367565299632586,-0.031829032648468224,-0.04534120271598762,-0.07670451438730225,0.1952414811624718
0.0369504638623752,0.11549977827485948,0.03899558619207655,-0.0015020125522588682,-0.0030253624195189827,-0.010618430658283958,-0.031483063991329004,0.262910451661493
0.04105072157176474,0.1276247980738359,0.05646347723235294,0.014446054906688148,-0.0017355700606279142,0.0045773719905309596,0.005479862148930172,0.26109172948533826
0.037931211264890886,0.1265185605419037,0.04620406836985392,0.00771535271788814,-4.0159611742419417E-4,0.014577248654279782,0.009645726170756923,0.3341767509737388
0.03432425922545204,0.12672359161018829,0.039207429246677944,-0.004058243358053641,-0.014196689463164106,0.0013351933125429092,-0.008889069556882262,0.3539735485025809
0.030852991979224035,0.14556505798501854,0.01849381618988368,-0.01563370583860891,-0.033515416991467234,-0.028082907594499714,-0.06896691979969848,0.2825512343500572
0.028960090575190646,0.14883308365595066,0.01821210303040378,-0.03895645856323713,-0.026794517243424947,-0.0452272273565832,-0.0798800284401987,0.24746179574702515
0.029482070275017605,0.09659606230838326,0.02893978811848292,-0.007169906864942944,-0.015835483313791046,-0.028452098975750337,-0.054265802268188224,0.2437558650080375
0.03132905136571314,0.08248396137921929,0.03823678582921182,0.006035113714897706,-0.017519904584321584,-0.017142909834329405,-0.005964498194702797,0.1826624251155982
0.0274339045934734,0.07980844163142138,0.026514946929187825,-0.0067476118000316405,-0.003185678930525809,-0.016705673635210146,-0.007947810760020286,0.25029094967800397
0.022163053232100636,0.08168990723931784,0.023175014548294532,-0.014984074479707492,-0.029576750165666407,-0.03402860689065255,-0.06442521312629233,0.18968342906730443
0.023416195044043332,0.12299540628675477,0.02053171378135671,-0.03350245126088351,-0.0287702415132845,-0.04532764635658989,-0.06460035787495386,0.21745640843911215
0.02767912068116381,0.1263722652274516,0.02590853718478601,-0.025246660137041053,-0.04547737789231559,-0.05712796330634179,-0.06610761821399487,0.22767888338409883
0.026676910067209948,0.11658998472592699,0.03714933440510288,0.0055504904775816,-0.010296813675365085,-0.014538083241709196,-0.012907412054288785,0.25713822437818085
0.03679597836703419,0.1335562820037447,0.04042613483831241,0.01406015157445437,-0.002784884869806605,-0.0042427422008806505,0.001003263109190631,0.22658313190552842
0.02994940577495374,0.1300614930802477,0.032844123614581236,0.0027301736095859093,-0.0034499631805790846,-0.012102386699747345,-0.032466983735933576,0.242001886623542
0.024699187556909065,0.1434219887338887,0.03673754743548912,-0.01100302296851655,-0.019713529034171656,-0.03278158005792732,-0.047361585195564784,0.30335144103324835
0.019990565679448794,0.12214943484554983,0.02162822802839117,-0.026969401901497644,-0.035247569350795586,-0.05250107040953724,-0.08742115773407139,0.1803117882083535
0.029600057643686905,0.11481009378541861,0.013735868336519724,-0.04526012988821817,-0.07143130482574629,-0.0783788454690334,-0.11657409343628253,0.2379023813985527
0.034103249414137546,0.14590974898132644,0.03578259621155262,-0.01044616553094262,-0.030616291889753563,-0.04242063223425195,-0.039900515497006454,0.21732477655396912
0.03446932326983911,0.13355098277803168,0.04876316241480277,0.016008724942798456,-0.005392529232051266,-0.008466625981243432,-0.018959922481294415,0.25090160763167724
0.039290053391224926,0.11685286991195669,0.046680234712632614,0.010614422889058141,-0.014236247233309416,-0.021561510566620534,-0.04387598401085787,0.256488909732654
0.03635040751260372,0.12537134863696178,0.03693679506554526,-0.00619124970932834,-0.028133909256694758,-0.029925900948912607,-0.050895800233191506,0.23166810231396834
0.01708851848169056,0.1253578932562431,0.02637064107204855,-0.021431499837796866,-0.047154234306340324,-0.05723672716734877,-0.09132237164063939,0.25230729252760187
0.017904426589581093,0.13085532903472502,0.013598754830962314,-0.04238523475777305,-0.06035295619189487,-0.08366613823293545,-0.12201330163264176,0.1816091348164064
0.027436399522623684,0.10542141924140984,0.0326699930088396,-0.028114911421040244,-0.04438143166249331,-0.06630619621314987,-0.10515588133318778,0.22060542513660536
0.024001550860595126,0.10417677745408051,0.038227717500437325,-0.010175598798947418,-0.032050131908661184,-0.02716414621125397,-0.039957656151507745,0.22068598619187393
0.03447663346945026,0.11702174805344287,0.039780152051140626,-0.007119917515850338,-0.01722538217526199,-0.03375588150122986,-0.053732227279550085,0.16972568688869039
0.02312670234144725,0.10897432932968479,0.03496563052832069,-0.015019196942633256,-0.042028134828105225,-0.05833622003087314,-0.08310337887550334,0.15958625155650327
0.02490496225903121,0.12904553252658887,0.023049331547222707,-0.03124516867292558,-0.02350057162453669,-0.06168460365744416,-0.11023813198673703,0.22960707725661889
0.03764463536008092,0.13448295557519654,0.03282765493590689,-0.022009960789527595,-0.027846992894220723,-0.06852149183257568,-0.09949576096737033,0.262902259977325
0.04042517846270744,0.11917187801829625,0.0512349768833453,0.002920411588628354,-0.012688363442820042,-0.029378334292761186,-0.050978006019380254,0.2720351614296422
0.036615342404061994,0.1542561344050623,0.054816263418649355,0.005662568150083067,-0.014639011407038417,-0.018022718415329004,-0.02731522515417154,0.23254899567600754
0.03135552485599086,0.17735809586341358,0.04926787677247022,-0.004189142809834325,-0.006429847876638427,-0.03191916209907706,-0.07004992054918673,0.27444851143819254
0.03272426812573089,0.1486664815910037,0.034858152792952915,-0.024587599404769855,-0.028961532715121998,-0.0369934402014333,-0.08658905494703924,0.29703099865724064
0.034202307079998794,0.12205375797831079,0.02040925136092337,-0.0420410348275136,-0.04844863646078616,-0.06801405421522276,-0.10802261478860971,0.18255881390774026
0.03975694027104271,0.1358391006808343,0.04963556699493375,1.1284055146766443E-4,-0.02287277890586798,-0.0361198187114858,-0.060756984827010266,0.21936432114204654
0.04492988365586075,0.14084191351991798,0.06382076874617945,0.016813862339895454,0.0032943900732170777,-0.010905573307894349,-0.0176799620383663,0.1434555350278799
0.038860648176935214,0.142662776910897,0.05906565033328904,0.012407739071222088,0.006008793867747558,-0.015261277670730261,-0.03835540700521387,0.15526195352043895
0.03674561387604129,0.12798114713264475,0.051356324041317486,-0.0035229084720490686,-0.020731185053241157,-0.018100620302979962,-0.040289759599435385,0.18170398426364973
0.03303438397763238,0.11042112949344877,0.035043105035088576,-0.017004864799760818,-0.01955837129018618,-0.0329856964622725,-0.07833607552420042,0.21991468196373332
0.03931594087493033,0.1402422798628529,0.037275822053702536,-0.03435740632289632,-0.034998250913001495,-0.05163999225672146,-0.10392022861438636,0.24927280455365386
0.04710379457683729,0.14365034431325044,0.04949398577660315,0.007716009449697717,-0.014217886767166812,-0.02761203650593383,-0.056481104257133465,0.28892178379703604
0.0542036709275561,0.14100740898137956,0.06729077173560555,0.02224094857249373,-0.006057770849132873,-0.0037836464550162355,-0.01190753336200258,0.255064747755436
0.05561026560405567,0.15829859399571722,0.06525881796787203,0.017861244042030277,0.004230737682315019,0.006034936144107208,-0.013007716362596046,0.25681838666160706
0.04479161997362487,0.12120703890481263,0.05087258914263379,-0.0010641693828424476,-0.004381521421216696,-0.003858557708704871,-0.045296418253882885,0.17189954705233418
0.03857760154692335,0.1195407759472896,0.043360471297845364,-0.019093390521120187,-0.014960285852509048,-0.032694584891302295,-0.0738027649893001,0.16962648040832895
0.026923238206460674,0.106893371069828,0.028358381674542778,-0.03668810463978098,-0.04593251790428273,-0.05835021435947378,-0.10398593086005317,0.16341570840618486
0.04206129835761736,0.1506216404465786,0.05406210944570122,0.007568328231422114,-0.01947679455021699,-0.024745960279594057,-0.050160916077297245,0.17243750258447926
0.04258261660662017,0.12116607908512991,0.0582733116029937,0.012596611178711158,-0.014274274551975285,-0.020633717294593724,-0.012381024681777958,0.17015230510615154
0.04788873095404827,0.15105659091570314,0.06419639389880058,0.006501744015087466,-0.005371119992302462,-0.01036992313958432,-0.02918032837636469,0.17454110611164836
0.034602475384618046,0.13118944949042993,0.04967040093540045,0.0032514205003204098,-0.017086129223371306,-0.03570835016400102,-0.04393888722084017,0.263006193270795
0.034794733868893084,0.15899235413630372,0.04641980024967726,-0.011941515981712413,-0.01839726058735457,-0.02261502667378413,-0.0686810342133273,0.28334330014453835
0.049244031468249544,0.13360522994623272,0.06015300997963153,0.027862501258139414,-0.004182500566226425,-0.0017908747941859347,-0.0017088849661870751,0.25314936406608146
0.054903368538916635,0.1534605004540262,0.0713290106333867,0.037962032814082905,-0.007509091906336905,0.0171566971599902,-5.26668552361182E-4,0.23450220505132158
0.04946763114724415,0.13737335464805658,0.07185090957217957,0.030840905174552957,0.008035496665626436,0.011805618413800878,-0.017764204217271245,0.25222819432428256
0.04260945024307355,0.1227824736808611,0.05506260963511714,0.01543296354225044,-7.058615189033438E-4,-0.010376442618139074,-0.039052354759368614,0.27438301082775557
0.04820746430019771,0.13055970269032488,0.05588580043552575,0.0089807206239042,-0.014750908857355152,-0.02488810594299602,-0.059279596246586366,0.1941302940711945
0.0582822736868001,0.13020423774899903,0.0658381026389692,0.05360731199237059,-0.020076574378149088,0.0285599438946793,0.004136413950332631,0.17389251622922364
0.050313666377083205,0.12385243378271474,0.0800282390611923,0.0625366645584977,0.01967691694591656,0.029233924609711668,0.036066459344597124,0.18369449540134505
0.05589614312095216,0.10323014536906759,0.07731609438149879,0.058462456730541276,0.016310113500762075,0.037396972109677344,0.022786961108237195,0.19880584700315
0.04728155366355689,0.10617538965898296,0.06789959621682748,0.05284790193422163,0.0050020972615175165,0.011695928422685142,-0.0030020219039339213,0.20084844339479993
0.04662555958859841,0.15108042963528706,0.06082827803500933,0.03499913770173777,-0.014077630636742576,-4.8496526028497935E-4,-0.044531541144526336,0.2715729067745165
0.04204338213472103,0.1565995207667636,0.0497269676988317,0.008591045876926315,-0.015205431322609222,-0.02877968239298816,-0.06152987606038981,0.254094449771608
0.05049258756308437,0.17676997197950722,0.06515651744227459,0.04019190401416839,-2.684516267646864E-4,0.007776422677976309,-0.020557665634037853,0.30277074145731325
0.06261258932718095,0.1731365700358791,0.08212700304606775,0.06494460233227625,0.025057659369256198,0.035188256361509594,0.01953934038119741,0.3216149481076509
0.06352092386208631,0.17709630023007603,0.08657502856191059,0.06459555426847541,0.0172208445012979,0.039344068964494966,0.03329836656665092,0.28749468093761327
0.05701166546826671,0.1623178722165445,0.07553611923408382,0.04206743219379754,-0.008329215964923437,0.01682618670203953,0.01638700795538893,0.2863656466800371
0.0457833584105467,0.13270323611306292,0.06175274777297087,0.03537204957636499,-0.006788864460620393,-1.367135263253516E-4,-0.03635200041973939,0.2534568704493977
0.041882282590835845,0.14982480533264447,0.04500280847532868,0.022393799111349783,-0.00779064899287724,-0.033181845591593796,-0.0531426694565487,0.28419177140467866
0.04582774108647495,0.13548192610225804,0.07296671769470144,0.04083353520939547,-0.004632337939181367,0.012175180992044024,-0.02776829044287028,0.28699576146327943
0.0552605006411615,0.12694318835285764,0.08212026055264723,0.06112075618715813,0.021539856679669043,0.03920666978839094,0.02989793802838738,0.2728272600460882
0.061826068046868465,0.1288560314604077,0.08958791716440245,0.05023610510532632,0.0042235313467070155,0.020685505746978524,0.03515999574986574,0.2658148703738037
0.04453215832112522,0.11057181785063479,0.07055696918804684,0.04678346519116223,0.001751798227983903,0.02403447878483487,0.009477549993442637,0.2852891991336557
0.04076591286817883,0.11065423075324629,0.05566422999537296,0.028122269079158983,-0.00385164654567115,-1.6100314584974296E-4,-0.024984998259168414,0.2994486848966407
0.03305252335514439,0.15134156591787531,0.054755291770837086,0.012344038970790571,-0.0040223044966635774,-0.019199305165252038,-0.048997736261888296,0.31131208343972133
0.046013837459764485,0.1395974980581278,0.055985291887050356,0.023981967027657095,-9.503709416829263E-4,-0.0031779685294500274,-0.0320360197941487,0.21274385622327713
0.05487100331497914,0.1536804138382487,0.07922584218347434,0.049905755403928664,-0.004570672487211152,0.018598829548845425,0.014805295168018963,0.2652581938150683
0.052573281945083684,0.1357695745283949,0.0685900661787061,0.045448532319479824,0.006769333669889257,0.02019497614087571,0.009146264696628758,0.2680513454464309
0.04695577609377357,0.14765485528009217,0.06380712093725109,0.029978300075902794,0.004760097055085928,0.015053640064157065,-0.016989959285054847,0.24918985858810896
0.0453805096429267,0.15934619416930235,0.06194115136614331,0.009427624283905093,6.967609537908122E-4,-0.01439626688548011,-0.037803601447020406,0.2637824568244574
0.04672239713885025,0.16189344340417283,0.07485971205370871,0.03543751292233505,-6.648094533950624E-4,0.00869394761455744,0.0034336533636888087,0.2863802070778716
0.05298786576675495,0.132580686025429,0.07577732651741251,0.05906110831088177,0.019726737179230593,0.039065960603211096,0.036566397703401914,0.26453172171248956
0.047045209458378354,0.1291625301994435,0.084554080353552,0.05570843260537364,0.021434420147633963,0.03954231468356966,0.04571035084594331,0.2599485725573946
0.052403221591435865,0.13470179497318763,0.07641042729210402,0.03311155802621406,0.015422829678478361,0.02534232728733598,0.0124670088034534,0.25752125256720493
0.048836859795353044,0.15583008867271225,0.061890108859182114,0.017361702725705426,-0.0031189476805628473,0.010709555333352383,-0.007528974654027544,0.267361747531336
0.04859827475605527,0.16007086765262607,0.051826428378414995,0.004394757685887708,-0.018716608974202936,-0.0020223964513166283,-0.049003598998596416,0.2961613719251249
0.04173070327256634,0.14978974575543624,0.06719524237654245,0.034472867416493,-0.0016738897875753556,0.015876326136767014,-0.006588024057741444,0.2748924649266918
0.048482584226774254,0.13851450385991013,0.08134317747036468,0.049433832137636975,0.02316984802064775,0.040290816499138946,0.04496470200328661,0.33347685798410714
0.06488758150350293,0.1305375173529375,0.08118042267064131,0.05317724445768887,0.021071485010230633,0.049701346613812966,0.04820746318214384,0.24850929212783895
0.04579886695126387,0.1123149150332946,0.06679869249261422,0.03950188219664168,0.007602991674761133,0.023170637694418524,0.020912589324843883,0.2499681978812838
0.04831313215493279,0.13223299879823192,0.05961662951772636,0.025450742071059917,-0.006495963211590671,0.010744674113136007,0.008455627469850643,0.21020550364532453
0.04340268755544657,0.14056026643628824,0.04876622881011071,0.009399419879153202,-0.023209286128859207,-0.013737461903929174,-0.03858243574860405,0.22089678866893425
0.04025832143225814,0.125631743944847,0.04907103349940522,-0.003964043599171798,-0.028485102492953912,-0.020449712010382086,-0.0691674424690598,0.1884919911900666
0.04987616721588604,0.16012571001521558,0.07472308386535945,0.03490663950197599,0.003306612955060056,0.009004182069103526,0.00787686600329682,0.16572823244737125
0.05990653960329203,0.18905387578115937,0.07906232859385498,0.04478619209200012,0.015897595484728085,0.015290849144154687,0.03160990657307566,0.4042782368091769
0.060180146185813584,0.1864939968883714,0.07762663320366137,0.03988540719244909,0.017139311229456788,0.023385051867302293,0.04131038624216134,0.32878419736896436
0.04469235615418739,0.1723193657817994,0.06774900388841075,0.020653238705211716,0.0033705219614761552,0.013749835944093168,-0.01313001211755735,0.3695458494281331
0.040916313358603705,0.15961854508812348,0.05336912106850395,-0.004426102470482181,-5.759126410476615E-4,-0.019219235062869447,-0.04884780045243439,0.2561348387356818
0.046261268370790226,0.18627924847612382,0.04735025607006249,-0.008484049538432249,-0.028571151977593228,-0.026413203921692906,-0.09272665486957406,0.22551927940645666
0.058168652715140094,0.1364558726490461,0.06749461209443575,0.017342599173658324,-0.020105767969073877,-0.010378927767481888,-0.02335668476840059,0.17075286732244974
0.04805667897187047,0.10234787037246139,0.05897209740116583,0.03200881771915549,4.79174547846249E-4,0.006861359858304361,-0.008068335798603922,0.14978793361395998
0.04409566125833691,0.07568099620137514,0.06282414122847493,0.024214827445953907,0.009069941967979792,0.005907838115161397,-0.019699619024057195,0.13165892072130356
0.0430186199134159,0.06734505975254597,0.04936440221230522,0.007752859448788963,0.0024823536376977194,-0.015247589474756887,-0.04041040498935053,0.21357035615313763
0.03205029577165146,0.0842484818998008,0.03626411082384014,-0.00735497304541958,-0.01637447014618153,-0.026337574188911802,-0.05826219242566356,0.14641150892093663
0.03611350168412817,0.08842209977043247,0.05134352699599154,0.017218074950006317,-0.018897877858336236,0.007200794303717149,-0.016026375492946106,0.24530639471862184
0.046882136312853435,0.0940638370006536,0.07391256508943776,0.04568559822250916,-0.007398891855180465,0.0176872051656929,0.029456503553446218,0.14987603715089418
0.057045502057034375,0.13191351102986273,0.07965987721468847,0.048326549465800235,0.01623181827794075,0.023233237801962618,0.023884709451494825,0.28839947607977673
0.05342459267994853,0.1541765939763246,0.07540317176175879,0.03594534352656676,0.02851053127271576,0.028055714021699676,-0.0039994566463315605,0.3256471196764702
0.043923936008289435,0.14643035408311358,0.06236784100398507,0.016550602749553764,-0.004488520605809442,0.005996640976025979,-0.015574999589615134,0.2575772971946852
0.046808441708628565,0.1738215987638749,0.04459667209917333,-1.9861346142193334E-4,-0.026609860649445257,-0.010162994853696436,-0.06587469304815842,0.27962747590366543
0.034257892912341416,0.19884734449700633,0.04195928547559857,0.0042943603910106315,-0.040395791382806974,-0.03397753005596815,-0.06800294845406474,0.3189193469933706
0.05633139110582216,0.20089123938439366,0.07029138771155076,0.04262609011162494,-0.002856261722358499,0.012054018584955185,-0.013233849080273932,0.26529015871856126
0.05354907310580981,0.17578660717409308,0.08063100069555136,0.052599851899924235,0.010748941088310622,0.023369180488068797,0.016037100405166635,0.3062581391343937
0.04753264196087532,0.13650132863959027,0.0711920477910793,0.0416952954261808,0.019790353310880842,0.010908676265066029,-0.004928710266563761,0.260323109258673
0.05246655687312672,0.17192911313754994,0.06892536636743557,0.036108142329267894,6.3829511402712775E-6,0.005514265203973031,-0.008521490456268932,0.27629624702056615
0.04505185974659306,0.1862367820358027,0.054810276512870425,0.01976492457632197,-0.019009739674616784,-0.011942200788730664,-0.042198624359605974,0.32447172327080914
0.04495419038559016,0.1560602934928859,0.04577920604597233,-0.010047768329989652,-0.026859021505623578,-0.03128264446956397,-0.08043106822230235,0.26810120496260503
0.04437328950146995,0.11252526632334522,0.053443017025709645,0.01729344785344616,-0.013829548360364579,-0.026141455771059228,-0.05617797006500945,0.18435718893962727
0.045024181113480444,0.1382206386687902,0.07053715619542075,0.04781539788087041,0.005797388813491984,0.020301686973997334,-0.017502827054517077,0.16095109816166042
0.04740541174885354,0.14610792839988165,0.07647814623922594,0.04312035673614776,0.01005037707236091,0.01137843785870827,0.010176732270360245,0.17615931320312322
0.0582029750255386,0.14702568659627,0.0696413262675457,0.03092203780791542,-0.005174180423702828,0.0063714837278204,-0.004198902348151372,0.1966992645719608
0.047265546464262426,0.18977060219325873,0.05585513795899167,0.022516015445193858,-0.021940090693568795,-0.017720575994195426,-0.03429214799935359,0.22669185112679732
0.0395112881946156,0.195547967411819,0.045281253993723444,0.0024069359536351264,-0.029818704298820702,-0.02869830706894261,-0.07927195112334083,0.2763188060591322
0.0599278822922149,0.22564639423449928,0.07431600361344248,0.04330046832993669,-0.009145937188422387,-0.009105184417413772,-0.031166418264227287,0.2695732499266916
0.056785348229556866,0.2355052174263384,0.08841834152214872,0.06354873216353879,0.009519426567223108,0.03568467375730004,0.021494715910834447,0.28979804315523894
0.06358698773060736,0.28504259709105434,0.08408254703251965,0.06443955625055352,0.009836998039876216,0.033129502508735094,0.02007006339643549,0.2965021384575876
0.06457506519403498,0.28516589032687845,0.09758858728262662,0.04570276771134356,0.01112349282437198,0.01737636598630577,2.249490970331696E-4,0.34550284965007283
0.05474435184304984,0.2768204796374312,0.07406943251137403,0.028215315961220035,-0.008609141114520807,0.02017643684144164,-0.004104085198923362,0.28455278917143584
0.05074956212064175,0.29196872581724437,0.07288816078552263,0.012042386204022247,-0.017897203974392734,-0.008885901919736615,-0.03024130742645813,0.2607801541122597
0.05393710048107961,0.263031748206435,0.08411432959662929,0.041438760165500375,-0.035941394186855685,-0.01081524036378697,-0.019883835483039996,0.26816551598449145
0.05656878211422726,0.2733245938490805,0.10022455812607249,0.06545139562053588,0.020439506516052114,0.04151621788260474,0.03733796329925821,0.3182306792697715
0.05613616881848962,0.23737797601705374,0.1059419844864469,0.06262900961728039,0.03911273790041348,0.04530452159805536,0.04703259357346328,0.40766902533913496
0.048942057247693016,0.22554986863542742,0.08353366235302928,0.05553692069370848,0.028800707314106038,0.029013605154272627,0.009287450884142076,0.34048637601809656
0.05793744919301651,0.224708736545004,0.08078398337269427,0.030112105867556176,5.477854197106095E-4,0.012143164577960424,-0.0025379151911163736,0.3155331671859041
0.05033903877483679,0.21506662942783983,0.07122789595598247,0.011040826717740156,-0.019089805892181434,-0.0037944382682112464,-0.043351459336217875,0.24446431196643276
0.05793848519834663,0.23438246256282794,0.09549849101337657,0.05892150801676539,-0.004543790545492954,0.039595605040164364,0.020462315566872537,0.14654417156169317
0.06121308957873908,0.25223729343515555,0.10565652710190858,0.06545685551390767,4.78111500671672E-4,0.06031688453044212,0.05031490896975739,0.18821810053006774
0.05898727077631064,0.2703339790980631,0.09577643070588092,0.06252460872433094,0.022583441756176086,0.04909398098458039,0.0405640927347185,0.19204227361668477
0.06115018568676667,0.27268569071684706,0.09103108296340719,0.060884353871645217,0.0032996127124488364,0.03322028080779797,0.023066697546332716,0.24155873871440267
0.06095883111503244,0.2999506745240148,0.08186927964405465,0.0354865952012349,-0.018197123393175158,0.015298044897323507,-4.95476184288632E-4,0.3221904535189048
0.06408454788302607,0.3185164896619835,0.10553849982086863,0.04775764857630239,0.002016323432742784,0.038398263103677,0.026826411225434665,0.3979931862345732
0.06577996536374944,0.31457690498768165,0.12627464331521285,0.07639411682650807,0.022765046618791505,0.0737209860629338,0.08692811603774084,0.467617636391063
0.07050745203914006,0.30889448962667093,0.12119664160423677,0.08117101467082244,0.051889339381892434,0.09875421988146044,0.09693516315887632,0.6532726987374909
0.07577152037029837,0.2693174670965989,0.11690702165854538,0.07934450125205834,0.03277887018375212,0.0744548876350605,0.0828100892824296,0.5700867279591707
0.06414307796067832,0.29245519720473756,0.09880907691670998,0.05553579449282217,0.0214774205356134,0.04932142949263795,0.030932380686234197,0.45800756423526595
0.0639267145941729,0.2989702399923055,0.09671770334675661,0.04298349672417604,3.539904976122816E-5,0.019568096512314056,-0.0034556578996242622,0.3799329641119921
0.05189902451215441,0.277781052818421,0.08394463778827736,0.030655431934272472,-0.026934752913815235,0.012735011132297426,-0.030784212166074566,0.3609481916137257
0.06718635572030278,0.3047815905847815,0.10902693616355827,0.06720422001477783,-0.003788029116460401,0.04282232394473301,0.049683756964580966,0.41143644245198874
0.07749780358768364,0.3028467896825378,0.11270555331996883,0.07080980691071473,0.027357264972398546,0.07730996547579641,0.07185618575274648,0.42548963750746965
0.06547693353995127,0.3079171613959638,0.11219695371526568,0.06399462078569425,0.026957557717493308,0.0562756519437709,0.06168211744461532,0.43046552607702715
0.06598836530649092,0.32253671954275465,0.10860931299736254,0.053329770325678,0.009116710895053072,0.03728482347714707,0.05357669814968734,0.4639210113047518
0.06435754490595348,0.2908386315463912,0.09718481099401785,0.045970534931975,-0.011052835880932354,0.026714053639410935,0.012936830012635252,0.4309756962500944
0.07423360784015257,0.2816151875218866,0.11603908976138551,0.07623907828551978,0.019120461483949656,0.06332939385182149,0.048366720428711235,0.36217986122825996
0.06885168902456791,0.2798268473676275,0.12196348145941537,0.08139913334667595,0.0015585773512700025,0.06463348422326243,0.07702173090341373,0.38812898708277693
0.07170863142349214,0.29029551429205247,0.12077827679154583,0.07301450339999652,-0.0015326150374408568,0.06105337817586931,0.08095923286302378,0.411736721124944
0.061942509851098226,0.29491810981423433,0.10754355196360271,0.060113249799493056,0.004738825362475411,0.03713216680339733,0.03886156478830633,0.38838497842174147
0.06342984900205562,0.2886413316013033,0.09210272324356611,0.03665990523429797,-0.016667551942397628,0.026768147805829253,0.012461513338742921,0.30811912319676776
0.058543622106782975,0.27432780379728267,0.08554863199955866,0.023774988099681958,-0.022224435570074495,0.001220309220940832,-0.013530970342937088,0.3259744128744586
0.07343292573468327,0.3012769953879147,0.11471327748552938,0.07456556799393922,0.01400941770329279,0.05432657262289139,0.07314629501613504,0.40879692908073806
0.07061234823773181,0.295988844489022,0.12495500286916728,0.08362936606630346,0.02095710955518389,0.057066802236066354,0.08472473065018525,0.39885150053054674
0.0692385080602655,0.2984632385200583,0.1111936954089721,0.08945980701713142,0.018709956576686556,0.06494421488037036,0.07753154933681722,0.3494487783380398
0.062255018558425315,0.2903659572256596,0.10096336194186484,0.0647590654688334,-0.0036104116884905987,0.0434350247541827,0.04776412377928677,0.2573047111708997
0.06101219420335054,0.279441525686187,0.08625413971713528,0.03209639663684619,-0.019548089488856137,0.03591601240499936,0.01268173325391349,0.30798007799087573
0.0536377416532995,0.2654989994706748,0.0697851499506841,0.01410416004617241,-0.031503270131637076,-0.00160861659879551,-0.016018077783572955,0.321929075269066
0.05311578156424456,0.24115645608837163,0.07766743344250361,0.0354555616436482,-0.02046074826353656,0.01964711208953405,-0.0027566767497032175,0.24704357402251537
0.05766651456710068,0.2509287034099006,0.10115974993993249,0.059360971772606436,-0.01296089586115236,0.04487589380954001,0.053332262717971035,0.2880959065968667
0.06167664851139025,0.2497569881913322,0.08661729750856619,0.057273167242150494,-7.701345707216854E-5,0.05279645989324253,0.04966490944483038,0.3066703060007799
0.059127021836361794,0.2391212057189404,0.0847011927469016,0.04494614981874841,-0.0029715663713925557,0.044803448531403264,0.041978472708753344,0.35525167314977635
0.06010338694661209,0.26537991981939113,0.07545250296981973,0.028804324654976888,-0.0184610427771677,0.012598973196714042,0.017337524079678895,0.42896060411540465
0.049474174564633155,0.252083890299654,0.05857089197431145,0.007286392573639509,-0.03476925937406488,-0.0124429219611923,-0.019220947317575867,0.4275244326852446
0.059258885095792926,0.26507282343408123,0.0771380068238762,0.046993749283545536,-0.005262058594398284,0.028042009120232848,0.013845374627302611,0.41959193580005383
0.05707253433163372,0.25161883923803924,0.09229838628282057,0.050487535813595524,0.020063543764213827,0.05174087888018196,0.04830092913195845,0.37265899271299463
0.06430702984266458,0.25995100344512856,0.09057993656437845,0.04522684639123124,-0.00415878186626327,0.03912858940292977,0.03628242351116214,0.34093185562131373
0.06066972935698464,0.27760158263343615,0.07921141683191937,0.027534182248320802,-0.012186653066028215,0.0289088946408058,0.01261311413386691,0.31484866690485325
0.04480892002160749,0.2831934539878488,0.07262868727698583,0.020599233039842072,-0.03408709206905258,-0.004130142696896233,-0.010836876025296434,0.3242402302796634
0.04548165501200123,0.27967472061093174,0.052799344130368936,-0.0020519183302546875,-0.05231980390035046,-0.023934196344288564,-0.05445697395505987,0.3658390464747025
0.03612667874111162,0.27524449068690204,0.05597251181653189,-0.011034107280186934,-0.034642262621524,-0.021926123430368073,-0.053416797419340266,0.3171342196784488
0.05487519487953291,0.2915541699875189,0.07485207360351291,0.03235202174080052,-0.004868294156233865,0.018563839513622227,0.002950274041309076,0.3722203827477633
0.05536302976246349,0.29907610429926396,0.07471684873900841,0.03182903400769421,-0.008657341052562259,0.012496953703656393,0.01963190549815842,0.3939072956720219
0.04389292448465444,0.26829198086653194,0.06507419761244725,0.01897130504646542,-0.019260250655290967,0.01853504368961829,-0.01998419631356566,0.3688715017994251
0.04077814550475752,0.2394263596578869,0.06138249927484711,0.005780988589146021,-0.036731517455422885,-0.0042375855429442316,-0.042932636449158845,0.37575471026117174
0.03767470673117471,0.23703488017008306,0.05038353505094113,-0.01643042809906531,-0.04185308115167304,-0.038288606503220024,-0.0738217514898663,0.2842322891762504
0.029058945535228198,0.2902322981850657,0.024289282791326382,-0.03703301037655919,-0.06297807898759533,-0.057368525647238044,-0.09797342767290905,0.29571123246721437
0.030781377002825034,0.28407545132137485,0.04616605871955369,-0.014551505459653929,-0.04972212536187027,-0.03361947708421441,-0.07068972565074752,0.2837821337596068
0.037600319274669045,0.26276285494145485,0.06779229514756778,0.005887095024122426,-0.035604686131458424,-0.027023237242729287,-0.028075972625223378,0.2727001045123455
0.04003837261357992,0.27653684557444735,0.04777457414021425,0.002443618361321349,-0.018977799184581687,-0.01405301356045193,-0.027607109850747914,0.33943532299659007
0.03478361468163236,0.26389820176258155,0.0459167215281631,-0.013607956758304163,-0.04353504749980437,-0.02923589924608937,-0.04108582670735215,0.32740208359243905
0.04007695440803241,0.2783708821827411,0.03387367595135719,-0.02999235349768258,-0.04200544875557747,-0.047983934145828175,-0.0659371831978467,0.4058007724569451
0.02509806140456921,0.28320313367253125,0.02466688865180364,-0.04552874133760981,-0.0583889871363661,-0.06122896657122533,-0.10986053157713273,0.4079719341702388
0.028708417001958975,0.2966021669572729,0.03103209725945121,-0.03800811020727538,-0.059359129260652996,-0.05920442503288053,-0.09543852692099428,0.3200007920006903
0.03152605348980487,0.29090430448272614,0.05590916896727151,-0.014082293619915389,-0.02980456546950093,-0.012131806921805093,-0.02944156779993562,0.2743903869677467
0.039857837404875085,0.27422274874331065,0.052970605294568804,-0.014693942825618724,-0.033715542332825234,-0.015561964597558445,-0.03194680132795981,0.3156899809497413
0.03885175246856451,0.28710222648150774,0.04673779245777103,-0.011488574642991344,-0.03891056632637676,-0.019530850310292766,-0.04022538670542728,0.3825860098117945
0.037342243319930406,0.27110696976251336,0.03587198118811316,-0.02276577344520152,-0.025291338525810298,-0.05006261502067364,-0.06842698638566684,0.379609628266659
0.02915084703228835,0.26707867320635076,0.029117811161662517,-0.04621736565103779,-0.05005440658591206,-0.03883189703897055,-0.08610252741800438,0.32605060908193173
0.018441819874819982,0.29680971932401334,0.021477592847782043,-0.06110049010717727,-0.056185373861134764,-0.07556042349446226,-0.11294909441018443,0.28657195399197544
0.02685214335791743,0.3000338737281918,0.04051319776851764,-0.04637384126697518,-0.04996498004757682,-0.05986366416992524,-0.08261919756753036,0.26895296524020934
0.031107479772946204,0.2817803857593166,0.05020831740208319,-0.013820119418635217,-0.03458922905261751,-0.018364851802580597,-0.009538128247606543,0.3122872350851495
0.03872190777030252,0.2853927984358386,0.05832646569331041,-0.016443223401373584,-0.016043944459608432,-0.013476004118310807,-0.023484822515412253,0.3376338712241165
0.03654604540293016,0.2452320501404003,0.04393948429016971,-0.029620700085024952,-0.014586985174151714,-0.027272562391244426,-0.04057626518659336,0.2657759326415124
0.02973023531954707,0.23230774864238052,0.036326616849146204,-0.0320547277819572,-0.044868182811760325,-0.03608344173241618,-0.05691388001418209,0.265975816542047
0.03135060601312909,0.21236669522089704,0.030382768535935488,-0.053436106609378746,-0.0652012746520414,-0.06155955269833489,-0.10304175603463941,0.27172363414074796
0.030058701760511872,0.1826422662534488,0.02017843598869991,-0.046190955288054,-0.06211825400332505,-0.03722423090028322,-0.08318881480080526,0.1974356468127447
0.03720736767567471,0.18485992403894413,0.041511909453303845,-0.0195855809661351,-0.01975063264021406,-0.004251663902618038,-0.017532022151199787,0.25297193090650444
0.035240280596260776,0.22840872816810612,0.040634281826890724,-0.019349840185511304,-0.0010364897453430278,0.014001310834557211,0.005701069243654775,0.30165657385295713
0.030557944813469882,0.20807094932578468,0.042472812402216294,-0.025949521927028384,0.004611561538380088,0.007242963589424756,-0.016667106273696098,0.28521982995994793
0.02380783781065674,0.1991293271073308,0.03157890732800475,-0.04335131288665797,-0.015354007946856778,-0.026635038615510885,-0.056933793689221475,0.28241687196951
0.02344992043931887,0.2027227374322115,0.03279363477993731,-0.0414952100242394,-0.03054276345031543,-0.0355635125325556,-0.07091983499438219,0.3487065795588182
0.050820007566949446,0.1983668640291776,0.05042438700034411,-0.013675951862470377,-0.008163336811501392,0.026813744490033577,0.011035336189829627,0.32292605614583947
0.04155732515332474,0.19652582980579225,0.06153323730947762,0.00394643957754635,0.005866766054526752,0.021589523141207594,0.03305903350570354,0.346462195535563
0.046287286223213375,0.15788435653358396,0.047906012634343485,-0.004413913707113805,-0.015816904585895894,0.018493160193408985,0.0010702698981855678,0.20341816218626682
0.03923792864272244,0.17549603448261528,0.04671403341901766,-0.022044401506619113,-0.033818608960743735,-0.01900066885485546,-0.03532009304685709,0.22462588350521204
0.04138430187271792,0.1908368193963949,0.047974573835055344,-0.013785636576434066,-0.026472431745481636,0.009169761806335044,-0.014112681090034848,0.2739233802161871
0.05077899154859027,0.19093489422546606,0.06947643443330931,0.019842299774557138,0.003534467016960967,0.035933274000755425,0.029900948506682443,0.2637551376976128
0.05627245664142815,0.17900752883588048,0.07593459305135697,0.019094280499098327,0.006823951913026992,0.030034237334833458,0.035894857352746855,0.24369439906812188
0.05541089818631109,0.19871724288928308,0.06937933365258683,0.01113391074989922,0.0012643185178779182,0.02716386357678332,0.012796150685535456,0.2339170222404544
0.05274197123905611,0.2065563707439229,0.05577791983118381,-0.004047393132450002,-0.005114543608792554,-2.653837363931767E-4,-0.023076842490507003,0.34542544462535496
0.05188333256327656,0.19985145861487758,0.07730039269616903,0.0058612911416965965,-0.016108910212585502,0.019375533786666167,0.006913610982160979,0.3451629416563803
0.05788433747544802,0.2117508009437747,0.08276056841898971,0.025316891623483093,-0.010284720501959521,0.03564906380983275,0.03792525175830777,0.3171260540206591
0.06261632917793848,0.18540119768501184,0.07242003223881215,0.028769395736553356,-0.005305032948393326,0.042102285433290504,0.041599205512893755,0.27198988801380214
0.0611000729242167,0.20362695011525386,0.0676344118366945,0.01864602612480135,-0.005182000230146867,0.03323646350264193,0.02669216825722036,0.3428044242322518
0.056676825769733374,0.22056421028903084,0.0655018432840295,-0.003950514682358391,-0.021149453577950894,0.017866980842319396,-0.014746096073881467,0.2934529072158835
0.044552204655974884,0.2312960915608594,0.057443975298164515,-0.013662769038994356,-0.0287767873203369,-0.017458793844021925,-0.04533527523521582,0.3587992707999735
0.04020874626511736,0.23449764744888738,0.046762633145481555,-0.04871157275946563,-0.05496956948336639,-0.023668128318701447,-0.07425400758021629,0.3531519016473579
0.04922956856187451,0.234097673548505,0.06724140331999413,-0.0061067694942530905,-0.020119613397503726,-1.0479806542874378E-4,-0.015382571792808414,0.2649636105656223
0.06123646562684184,0.23622709504872694,0.07367472731296684,-0.009287358398789749,-0.009808980735323271,0.018356607597296383,0.015597663556860047,0.3220765793421638
0.05975219242362653,0.2540982161654958,0.06520427197668363,-0.004483967430289231,-1.6246246255599602E-4,0.006566413472511258,-0.01378138848338138,0.3861002737127339
0.057864272023851096,0.2403384529204807,0.06901423194063797,-0.036534505872826334,-0.02308872683058441,0.0010019862908358795,-0.028553458172652393,0.34126803155219515
0.041160553762475606,0.22454455120752964,0.04606010329941879,-0.04599003540861354,-0.027403080109052177,-0.038182253555637036,-0.058456735047115765,0.3210970728974762
0.039028212302733456,0.23359041847868983,0.03469350613932934,-0.055559164358011726,-0.06989159553512231,-0.054981775343676785,-0.08867183606784687,0.3081595941514378
0.04832741029354929,0.23849797519952842,0.054666137625577226,-0.010250709747133924,-0.037048958610194374,-0.0241089201993778,-0.02256573104517307,0.36336720522459887
0.051221472896011463,0.23749821020532666,0.06385475186159724,-0.0040398330466919945,-0.009186555457678517,-0.0019546546616182425,-0.006341696010004984,0.31545762043675935
0.04985299707449568,0.2234091699670135,0.054621116155944706,-0.011103380135045488,-0.03131331737107449,-0.01847237459583454,-0.026713337633033813,0.2127859734707836
0.04877094482565847,0.22828537632335597,0.04581206305411144,-0.026245656425572507,-0.058151902226477675,-0.019567736114404093,-0.06384355720886153,0.2904946294736451
0.04428439756274928,0.19015927288807963,0.037707854705261154,-0.053083272165346494,-0.040629661045413885,-0.04263864716337445,-0.08524475768269658,0.2590412895987111
0.033808942828698736,0.22441255283420752,0.028998766245616005,-0.059380693342696834,-0.05715750871638282,-0.07642529602673598,-0.1053379231011391,0.28006551765991716
0.04624812872973847,0.22600540466053226,0.03817416812819129,-0.06364829433870053,-0.0577435664927908,-0.06495174476208182,-0.10257162398065539,0.32171183750071186
0.05157977159678364,0.24531678057434625,0.0453751156095457,-0.028159719276032336,-0.04001384918498426,-0.038937510805688705,-0.05243438723828368,0.2708898902662499
0.056444140246668946,0.27363455029287886,0.047735575992896385,-0.02495371745571129,-0.026794426864050962,-0.033906358813658485,-0.036043883350236824,0.25322163059376
0.0564539068437597,0.2853948870241707,0.04463872373460856,-0.03918022936625909,-0.05212033877138495,-0.05806572158459614,-0.06321051645248972,0.16288645177096667
0.04879904910651858,0.2602077989875256,0.015066978731008896,-0.06137359287604822,-0.04638398801269467,-0.059041749708934985,-0.08758498879263729,0.23699474217700728
0.03533393057204098,0.257860529157916,0.02291281429914254,-0.07439950226709321,-0.06877138154013397,-0.08474251878397622,-0.1325527576559253,0.28285154989975064
0.03547013975145853,0.2689958570420271,0.004896493564671938,-0.08641105228361279,-0.07955267383026872,-0.11558959037569538,-0.16972284071551538,0.25752777281775324
0.045152836203249426,0.28495405874521773,0.032052801056228944,-0.052002920206628646,-0.04737879703420575,-0.07596608943653309,-0.12282749338617018,0.29691607690782906
0.0470430655790542,0.26992871821861675,0.04616772059952296,-0.04752080691969296,-0.05632599644784973,-0.06593677230177117,-0.08661245824467215,0.32640622288430626
0.04841184801736782,0.24730727231688254,0.0359138248283714,-0.05071310942551347,-0.05389801621446013,-0.06990489389995728,-0.09362301964940256,0.369512118951042
0.04919873536048722,0.24056685954131943,0.024960163021776168,-0.06771130031889529,-0.06637684824386338,-0.08227123210550362,-0.12067464745405829,0.3292545945340256
0.036815948980934335,0.23525144245613533,0.013089274000324632,-0.08743178982018462,-0.07324604498526185,-0.09661634439843217,-0.14969222436514115,0.3361144733745158
0.03552068389267488,0.22012023032474307,0.011388867168808119,-0.08642138769802342,-0.07086852443446923,-0.10188342391901281,-0.18355090855806064,0.2692824761464354
0.043567584464175156,0.2566176420308042,0.03402301155228812,-0.05312040367040248,-0.057352189774423086,-0.08264285312490253,-0.10833897303904177,0.2661930992040775
0.05613961920632502,0.2744110188602017,0.04044676332818403,-0.03474892081394158,-0.0380129105045082,-0.0674437104993711,-0.0883448910759485,0.3526037003363942
0.045822093086363536,0.24949397500804493,0.031941825416658055,-0.04223578327366422,-0.039254074120547926,-0.06536849626024585,-0.09312241446404762,0.28540672404031636
0.04989385065036997,0.2408099949270714,0.018424933205646116,-0.059776258979309806,-0.04406438636313649,-0.09332358730668715,-0.1155547962808698,0.3332155241386247
0.03661102953379314,0.26398922639148964,0.01316309352712982,-0.07719523606815547,-0.06695710120529365,-0.09852742714088565,-0.13601199560455274,0.3994295249806896
0.037588408020273786,0.29561461860939237,-0.004952121928548422,-0.09979123916640914,-0.07517466095626328,-0.11226813006504692,-0.16949026686402716,0.46846049640225884
0.04656092234331226,0.2965112472057664,0.014173523590594329,-0.08443227837967077,-0.06468397755513548,-0.12214782101569382,-0.15497986026088315,0.4560341557701943
0.04038872816476024,0.27283901057264226,0.03142720086944461,-0.04729940378429748,-0.05220604902003009,-0.08634196623811345,-0.11531388143800021,0.4451486271392845
0.04931511733630362,0.2827387178626894,0.041995175851050566,-0.03972963075108233,-0.03533348120047263,-0.06614082961040191,-0.0836510827151217,0.42392112597384984
0.05996666544526591,0.2926330357750638,0.031459324251976284,-0.038394456935960934,-0.05657319325174672,-0.0784965628798968,-0.10473422563469792,0.3546782104022814
0.0448442778357509,0.29046927953199647,0.020266976078689214,-0.058486875499395685,-0.05183464961029021,-0.10078734791717966,-0.14061183862773816,0.36163347491744424
0.04264212784737328,0.2549167499981594,0.006058211131094313,-0.0800589401065128,-0.08760466116405842,-0.11484708618277249,-0.16742400028845145,0.3381965146151829
0.03308193509863896,0.25180268394945404,-4.512232909646719E-4,-0.09378641155893008,-0.08055825134122176,-0.1252858725111076,-0.2040202961882752,0.3212514273220925
0.050760439510260845,0.2514419356591354,0.0215587716676453,-0.05906723561899281,-0.058153423188340346,-0.0966670968989936,-0.14298891690133592,0.30301617973584993
0.05179482782514528,0.26326646972794715,0.028506560966732472,-0.0395910796386031,-0.05677568938918853,-0.08375551330102926,-0.11328121235313503,0.41022501438575826
0.048984207493836404,0.24479085495775907,0.04022152362354729,-0.04186446309492752,-0.04663400283293834,-0.08766158658791003,-0.11083214125461889,0.3838783205458264
0.05470660510798036,0.25025252519709623,0.019011108658041943,-0.0641048804925366,-0.07083141206263431,-0.08453202835543454,-0.14128525049114618,0.36653922281942386
0.04008417132795161,0.258285090468818,0.01818556030535509,-0.05984371369890781,-0.06772446784615782,-0.1038229641217072,-0.16646607034118024,0.3493333069422287
0.05876422182866446,0.2690356357791302,0.04298987245050709,-0.034670296715817464,-0.05481144811943764,-0.0747000241345314,-0.1347963790944688,0.2932459077281022
0.05927639609374893,0.27315683992189216,0.0483679992727537,-0.02786009321556749,-0.06335469555980942,-0.07254289860293589,-0.10452010889497307,0.3279661099991037
0.050282490633117,0.2794172305347681,0.0507075658067037,-0.029582390050389547,-0.03761461511522167,-0.06402423125315423,-0.10531671216490623,0.30471531427365794
0.05209070680383192,0.27480553442094346,0.03757946517300973,-0.03668623382884217,-0.06942059812049937,-0.08450313491712745,-0.11896561207447996,0.34168714239364484
0.052371114797683714,0.2628759007183289,0.03347043174673377,-0.045893351447099495,-0.07042000541074526,-0.09681856447557724,-0.13636276100517994,0.33299240690223036
0.049281210296129474,0.3137188326564189,0.020322138897590273,-0.06652125803294691,-0.07758907335125151,-0.11561003497846795,-0.16272482602598884,0.40181260705820354
0.056124407607685584,0.29839014859113255,0.04904352489359321,-0.02411458357274184,-0.0572486758198783,-0.08281362917724987,-0.12099524518653218,0.429482873105829
0.07066900015784641,0.3074608074727303,0.06766422196425248,-0.005762773422195726,-0.03931464260558263,-0.05399336796282233,-0.07235799695627107,0.4735074178734806
0.061379178795287544,0.31614176630340435,0.07120788476443131,-0.0046588475182220744,-0.045677811741014714,-0.04490568497493524,-0.05637906114509701,0.4633338782963985
0.06949800572243804,0.31029049598082176,0.052462364115311945,-0.011301946085540873,-0.05719889158809722,-0.05512316873258249,-0.08300784466824555,0.39808421222562784
0.06808089140394384,0.28313458038018086,0.04806807789480506,-0.032190189304722616,-0.06402399886109872,-0.08093929333893077,-0.13109090637299137,0.37384859540536053
0.05025954450961821,0.2819899097250844,0.03719689536314945,-0.03712039336708383,-0.07705428602580132,-0.09143842329933309,-0.14628956366151258,0.25607307031481225
0.0440509304169767,0.25203906738135917,0.026437263195446675,-0.057645826641126136,-0.07963381672120928,-0.1056916764607613,-0.1646168265592958,0.26865761956917034
0.06631633256318678,0.2738768309459726,0.049899373950011656,-0.005713416932456107,-0.0519129538731243,-0.061656461128030554,-0.09094871730855514,0.3017441890272199
0.06319854018576651,0.2945331688189421,0.07233799424608772,-5.791565324026439E-4,-0.04188356871076979,-0.06782034235439509,-0.06946989436714762,0.32542292265448225
0.06503793787189469,0.2906689406649748,0.06369048941674364,-7.332908655405773E-4,-0.03593987715150302,-0.050636286937006794,-0.07338987088066472,0.400461767034636
0.06375770460954754,0.2915849011150408,0.05744216819431338,-0.012422854617585487,-0.05303117386007831,-0.050071937875448114,-0.07812225195436172,0.3653854752295717
0.05539105627056564,0.2900914830302099,0.04612985742986159,-0.026451363788333068,-0.06321403506086541,-0.0772934512177631,-0.12278168588427824,0.46899360412951663
0.055681624558622494,0.28925731394932946,0.04581256802151895,-0.03158972782983803,-0.06290418293392433,-0.09736501678674314,-0.1155268580044015,0.411140894135945
0.06095822666200813,0.2910348080908572,0.07525217647009194,0.008429947112240169,-0.04581591301571503,-0.04260358482436896,-0.08343355590617335,0.3849909591719303
0.07112317594547476,0.298039779562524,0.07235384547106682,0.010361922118079748,-0.05485912792794048,-0.03190446608631346,-0.06292266192508879,0.28242385129695574
0.06499135081796428,0.2892691455441664,0.07814506878059864,0.01372291283343519,-0.0432009888269473,-0.04316897375923621,-0.06301074694933652,0.2727300663309549
0.06637963366049278,0.3052396377357357,0.06929544088940479,0.0078118019655905434,-0.05183232870326578,-0.06776955599258386,-0.09041987512009834,0.2744661238928212
0.05445677657270688,0.3023389017804677,0.05649651062424049,-0.005755546491566771,-0.0786794313577831,-0.06095297589869775,-0.10054855030577352,0.34440647990060086
0.06037753685343575,0.29829676290116935,0.045623063876345106,-0.0383385532956457,-0.07265999392143278,-0.09183821846676236,-0.12919312497583732,0.4518102047367813
0.04559029983177623,0.3036033046132899,0.05526411034671971,-0.031122200583804837,-0.0805293993008076,-0.08889496556250824,-0.1223624366802326,0.48806791572831976
0.06581040153539601,0.3292427948005693,0.0807218642312506,0.003982986734920861,-0.04199215040697943,-0.04105121192422709,-0.06752227467977481,0.4437797964989408
0.0634873563504766,0.31551193780378456,0.08502024883246584,0.015291118981329302,-0.0484983355328334,-0.04378040382038298,-0.05624667089977761,0.4270074255844668
0.06677308755189354,0.2671204597065075,0.07282972879050872,0.006979359084318034,-0.04268288767160558,-0.05123034444879895,-0.059440663027306745,0.30880383364122954
0.055625046133715994,0.2908662426996244,0.05551063010274283,-0.0072981969887815,-0.05631716895516904,-0.06508686909183634,-0.09370688267166907,0.24714924786889664
0.05704692390022817,0.28030025710784134,0.0451190284612334,-0.0202748197206925,-0.07249905465369375,-0.08448737387714544,-0.11876779433747736,0.25326647674586933
0.05175741970248117,0.29800080768590315,0.036791946221165175,-0.039603896936069805,-0.08429750992660359,-0.11382650359553269,-0.1641059496945088,0.25730822412515775
0.04197710921636728,0.2843196733802283,0.04343686691449877,-0.04465634491373211,-0.08408392281729417,-0.09799229560375575,-0.13523258418356437,0.3389706443805142
0.0654540569075883,0.29278495876405985,0.06371234386701918,-0.005081744455186736,-0.06785611540858633,-0.05842504622530666,-0.08881732753632902,0.36938111850234884
0.068608654951513,0.3092795403399725,0.061945394457888325,1.0095601840027142E-4,-0.03590593869016463,-0.05920262070938187,-0.07934297417928324,0.45205492150576965
0.07431591195122478,0.32152107718776557,0.06233724608191048,-0.01821792624772784,-0.05899600150480922,-0.06425114455757738,-0.08440140390501313,0.3558469013484229
0.061832963650372476,0.30322345599932177,0.050730028232762125,-0.028287795875696315,-0.052707295638017404,-0.07323381272181555,-0.12834318424975372,0.3780913129328687
0.054924562974209896,0.2715371416402659,0.0483710264844086,-0.040939739341868106,-0.06976336299812574,-0.09689511368645781,-0.14224405208914595,0.2848372284723277
0.05579206624642401,0.27032596546386084,0.027452746536520377,-0.05809188097123585,-0.09573701722688932,-0.13255836082921799,-0.17958986055215967,0.23196452130491677
0.05735297339371768,0.30146631825708153,0.052504013157678754,-0.028188718831510546,-0.07070644316418166,-0.0733588070012209,-0.1203019514508419,0.23550386363365244
0.0630225475426585,0.27417648375324394,0.05837408786635035,-0.009692322434393278,-0.04124124968249261,-0.060108114761207004,-0.09672220560628011,0.2478024258786339
0.061381080963717395,0.29384775192039914,0.06743143104049527,-0.006939412577042483,-0.04284906797893171,-0.06954003602594018,-0.096659665294706,0.3287672960754568
0.07122207362147058,0.3120415000639839,0.049005379207964266,-0.031297788871495986,-0.058131961792728365,-0.08418576498151636,-0.12180128179024885,0.38631020946761946
0.0596603657199276,0.3206933499069723,0.04682560300780485,-0.047131371971215835,-0.05887839028475913,-0.10988012662551819,-0.1552380653574062,0.3761667256558085
0.04588853928552144,0.31242762985250394,0.03767705614987256,-0.06313675227260614,-0.08897538502666631,-0.12105776417720178,-0.16796224008035454,0.3297699953280159
0.058149927773633085,0.30077700438752997,0.02615975141635311,-0.07514120257583931,-0.07866710171835577,-0.13808786315904617,-0.19057990930230834,0.3294953236366994
0.07497760400460661,0.276572090908432,0.04368571119714949,-0.031082478654861797,-0.06932660094548646,-0.11257842413572221,-0.15004364231100295,0.2740275644733571
0.07897991643199602,0.2975077907420981,0.05023028029404134,-0.008943205625933521,-0.05404556577142603,-0.08087393841449315,-0.13161602807315056,0.21675333357870502
0.06713828924592224,0.28648660093628736,0.05469599973857677,-0.017794985619062974,-0.06407382284126684,-0.07917536715744936,-0.13754418647793207,0.17648680776386125
0.06350146538507907,0.2777249989529763,0.03570585810358354,-0.03776302568270061,-0.05951868619949302,-0.10284321122673194,-0.14704001384926976,0.27724512414079944
0.06154007470231395,0.2781276267596931,0.02433816328844251,-0.05413284358770207,-0.07379177985821983,-0.11662354246292798,-0.1702859581390256,0.2899152727764081
0.058701166155440986,0.30140994345682875,0.015243216044428316,-0.07032209618705094,-0.07511629071502775,-0.13675796241490437,-0.20988444979955997,0.3111527718241401
0.048990625619993844,0.294272707709534,0.015323995156100624,-0.07370960465194737,-0.08795731749370563,-0.1379226148157071,-0.21726061930952506,0.38052840313674424
0.07497783147094383,0.3040116617106423,0.048844516565908665,-0.033351674888476984,-0.06209531143713616,-0.11586401938745396,-0.16192731509675531,0.3226259018027262
0.0739419456571398,0.28440566745634277,0.04256344670391124,-0.02929737776179524,-0.06426275641070649,-0.09991390293996162,-0.14255877077305523,0.32091938266545106
0.07253028060047198,0.2855470551727726,0.03794534868785019,-0.034843064242370964,-0.06176911174688411,-0.0998434862630681,-0.1262084647055946,0.31885102396110354
0.07487853056755027,0.292259262693284,0.03376990050076111,-0.04487817821005976,-0.06397776616460307,-0.11280947058734014,-0.17050765962898726,0.3831053180612716
0.053953621032832154,0.2943648389459737,0.021962289114869755,-0.05634235826998077,-0.08122938016230752,-0.13182612384199022,-0.20393591192348715,0.308223886668887
0.05690216731356964,0.27013251406768235,0.009521798483740268,-0.07701992999316107,-0.08203132029457856,-0.1486878362751434,-0.2353829838020848,0.2883166434489999
0.06310234074431187,0.27900404071107276,0.03239081948196066,-0.042612570548506264,-0.05039909654101386,-0.101527524747265,-0.1518029266539258,0.28790763809883296
0.06706725911123988,0.28028216727093613,0.05376710680106295,-0.021813436772075038,-0.04955005425324379,-0.09019327511250702,-0.13439296412087248,0.30352271350487553
0.07840988289717321,0.29029474913759984,0.05757031733446296,-0.01686117621920612,-0.04014986228213272,-0.08321455949410561,-0.13028504626767398,0.34548634673752143
0.06922524477842301,0.27864168681598744,0.04240453871943316,-0.02580324716946634,-0.05358219794968167,-0.09383919191556764,-0.14676636108256075,0.30713576355761363
0.07845846786047167,0.27118288508897204,0.03628768029943637,-0.047145539433455494,-0.06394628915207455,-0.09735063096953274,-0.16090791048071387,0.2983174240242876
0.06564816979185126,0.2610332731242377,0.03327389545701042,-0.05305552038418132,-0.08603785757231783,-0.10698116777645639,-0.19800363646074437,0.20256863347025372
0.06543747973614711,0.2753592150434216,0.0247934472339958,-0.0700413482971862,-0.08914174742164253,-0.13998632560148963,-0.22343363721621495,0.3068459875671516
0.07287805960499306,0.2884851170096466,0.04244864758463559,-0.03134868150266292,-0.05761106072195455,-0.1058770345218003,-0.14106847562981145,0.28460035492463875
0.0768552049570226,0.28373495351752626,0.057699884674564585,-0.004805587360332397,-0.03708064023816666,-0.08580828263415054,-0.12510062751174308,0.2961378126610122
0.07856234841504439,0.27441871383155475,0.05118382231537442,-0.009352557881061367,-0.056481991124027055,-0.07223601209768597,-0.11814598079650211,0.2990547648498883
0.08274840782261776,0.27553871195445423,0.04531559490358511,-0.01885145508981224,-0.055345461807905956,-0.09007713762946425,-0.13206109965663781,0.29889933114018297
0.07945843182368321,0.2941539687601435,0.04269023493709651,-0.04196211483992068,-0.048397335167277664,-0.09135179380274958,-0.16182514526441238,0.35538473388363123
0.06681655532299867,0.2987282556089311,0.03663254558761624,-0.06627285588552236,-0.06530402009460343,-0.12356630125049807,-0.18882535661502214,0.32830258645738297
0.06937002006165785,0.2835570454899271,0.04251190823934264,-0.038080859382450274,-0.05465417504644531,-0.09987127715652432,-0.16296387155423497,0.3544698108081493
0.07673275057137181,0.2809086239392375,0.055500440484812924,-0.020912702452348303,-0.03334365686544526,-0.0860411532655957,-0.12322189169736447,0.21698231771029483
0.09029387423789557,0.2900633361183483,0.06450775155543544,-0.00953096197042193,-0.028520623382707364,-0.07193539850788215,-0.11040672282834062,0.34004820244908707
0.07830578509457557,0.2840018375973795,0.05405365979916568,-0.02517904435571043,-0.04426522244648802,-0.07757946732293107,-0.11644866148039316,0.36204616701793796
0.07801522364414862,0.3008253465306098,0.03805812586153797,-0.03713701912162466,-0.059459796467846125,-0.09604317605353895,-0.1401924584078968,0.3118285279194292
0.061302439659387684,0.2946195428045762,0.03523441260212805,-0.054145224522289225,-0.059835850616250644,-0.10979511563881984,-0.1735945498379281,0.3411241552886245
0.06996744976290119,0.3022971127486491,0.033238695712026006,-0.06460050190648596,-0.07407665363270151,-0.12087327277081708,-0.2045105510031513,0.30326788496038615
0.07526035321557706,0.2953935991383021,0.05960881293979105,-0.03170200413428104,-0.048767525340954195,-0.09053089872773167,-0.11883147181582945,0.32697884606684385
0.08565557435044967,0.2910106091399425,0.0640115361427926,-0.014296282409198583,-0.04155627760833399,-0.058658656910900976,-0.09881128405249724,0.40844505904182665
0.0902708108310544,0.3169522852627846,0.07427239100931586,-0.0030753360511518407,-0.029331516979931794,-0.0552476370154627,-0.08754127369985298,0.39560785044030283
0.08362197843807655,0.31249846059283426,0.06834037661095255,-0.017913822300101634,-0.05350540875117794,-0.05884427247908595,-0.11263703686041081,0.330919961406132
0.08040756358128266,0.2942425043597471,0.05315356615480504,-0.03182687431508258,-0.048741898395514356,-0.07765672207536704,-0.1353268953394674,0.29326575680605244
0.0674793881870747,0.29565735203629245,0.03660308392177963,-0.0466810526141552,-0.07766957031446321,-0.09978230726226275,-0.16395294010702502,0.33708980484478357
0.07009326517202083,0.2731325742747004,0.030729816191345193,-0.06184994269422731,-0.07073946000744567,-0.12034729941197546,-0.2024420206563798,0.31742908842699324
0.0808898221589836,0.2956300901996105,0.057497965570124675,-0.021487626407880815,-0.03191697490968037,-0.07071478782910853,-0.1199778464356585,0.30811337330068356
0.07722826532039465,0.28308593095170814,0.06283041715865138,-0.011632204977504342,-0.0409513852610242,-0.06576516140823549,-0.08836864103003803,0.40427883971335227
0.08294621389503719,0.29767563624230237,0.06789526603532745,-0.013618211628125359,-0.04284196550830546,-0.05364133755378937,-0.09709983178156063,0.37893859677220687
0.08785068860106528,0.2767773391351598,0.05160730399479187,-0.02200938443788836,-0.04639964898490637,-0.057493810081871786,-0.11480168397533466,0.31447721658775557
0.07797314495364617,0.2792529021349286,0.06262865052326293,-0.029186276314794948,-0.06272787948087595,-0.07310410496326507,-0.11775387359263664,0.3171113842697478
0.07061889838903303,0.2931006017046541,0.038376113980902335,-0.044736208396579345,-0.04207156747557614,-0.08828008442814915,-0.1581548383704589,0.25239730228728857
0.08073987563952643,0.28217079219050417,0.06529072891241018,-0.007231445402257651,-0.05365877344863488,-0.07057378447489114,-0.09592475005500273,0.32391368979462937
0.08647357468972441,0.307797156543913,0.07379664878250176,0.00812869910128005,-0.0464534431415937,-0.05118903644177046,-0.060702213284337767,0.3508761570565677
0.0903975304999894,0.3098841691108675,0.0793729046511316,0.015178162210913244,-0.016030461192243245,-0.039716105498469365,-0.05812034516837001,0.38514535989135656
0.09094878193122406,0.32365567355987723,0.07390271490397222,0.013697674311808456,-0.031718924512160886,-0.047391044396976334,-0.09784675583450587,0.3138960067324003
0.09426279056118353,0.3204987744203383,0.06960858585106715,-0.011298471952934446,-0.03220049275506106,-0.060208988640791536,-0.10340201360168559,0.3385041358210974
0.0726792355439801,0.30544658427319504,0.06240760067991368,-0.033155905639466264,-0.047770571537917,-0.06580595674567125,-0.12147870433111059,0.33847516888311563
0.07193520899094848,0.31333176733267143,0.05361129419498103,-0.017888884691629792,-0.05394489887623968,-0.08381796534825568,-0.12847599582826527,0.373188248202952
0.08363020999830208,0.3229932166879379,0.08515214805620885,0.011425892422858576,-0.03695904149882558,-0.02619935637795106,-0.06063762613346248,0.31101519519111315
0.09446132085153347,0.34619705785027327,0.09686340442932695,0.029826802240816706,-0.013299809081778077,-0.02105932901940594,-0.022247847712356016,0.38691605336532386
0.09269995074131768,0.3435465673872487,0.08986145765770838,0.02448530125011102,-0.011214629371025802,-2.2177595484379722E-4,-0.042961701485236634,0.3870593313023398
0.08854597596523366,0.3350737333711524,0.07920561398428887,0.011589829659679602,-0.021370830369166798,-0.031247963855492434,-0.07762763726497032,0.31055246472989156
0.07893302362249603,0.32070089880904795,0.05799520722371111,-0.006240770383649284,-0.0347956717073334,-0.03745479810985828,-0.08499306481547998,0.36647670319301207
0.0730410687231505,0.33366687593083955,0.056213750686953445,-0.01250275712330669,-0.03224159271804806,-0.06858288650408711,-0.12228970912167032,0.26748457202695175
0.08004525645838696,0.29818312204620134,0.06731113555655399,-0.015631266154802117,-0.051955205695074114,-0.05642179672325762,-0.124077028479355,0.2704537737407811
0.09969675324853806,0.30833633122564863,0.08578429193639046,0.02734697837216347,-0.01586329752139412,-0.025881983512058254,-0.05219018802982034,0.2812034007869094
0.09542903153402311,0.3271384758897436,0.09246605734652044,0.02593350234441833,7.917303817279041E-4,-0.0013327699641152223,-0.03222757599980217,0.29504405682576457
0.08935407122876414,0.3336118679682944,0.09162850951488144,0.031465292931896656,-0.006292030504794392,0.007430781721816694,-0.030887749781103944,0.370736125238616
0.0854834912261409,0.3591333058102393,0.0871267318189974,0.022604661290346016,-0.00973349362146948,-0.02401472925012401,-0.05378896403162646,0.3179878882754348
0.07885403023686717,0.3366261632585367,0.07077559055644941,0.0010609099886584588,-0.03665281815192566,-0.04751375348202416,-0.08757565219803344,0.2952963637692742
0.08263589410919985,0.33500395268274136,0.06272608171590216,-0.01999236638505608,-0.050000176983219735,-0.05991312912918786,-0.11079072106767894,0.40405547313849105
0.08959095044241733,0.3247067388069771,0.07941911961584974,0.017365239867764167,-0.02399613445792636,-0.016913102798103187,-0.07469127291118706,0.31379985409669153
0.1022934623542781,0.36035463270097373,0.09633690039750092,0.05417604979910961,-0.01494690582272459,0.0025332954180496874,-0.008932191315988785,0.4224640236185572
0.09611172248776505,0.3359516762230823,0.09731822798422647,0.046318578697622355,-0.0042399725705063755,0.010060434786352955,0.0028238361329559667,0.4540596429652734
0.08731772250518392,0.36199985839158033,0.08687919765868125,0.032755061787114105,-0.005357571461132899,0.003204867490741318,-0.01691246726988366,0.412150121931705
0.09865373186800394,0.3343414489793817,0.0795465002305537,0.023512822676022255,-0.013365885398368447,-0.016889134663712266,-0.05636774655129905,0.37393490268430973
0.09556200141852819,0.3652701252768739,0.07650045444801122,0.008073193310242779,-0.02023203686869217,-0.02911973607063227,-0.07666420516719853,0.35228876236445406
0.08494995804661715,0.35570214323132104,0.06072663504982219,-0.011402345765069934,-0.04598366205991271,-0.04722467618797454,-0.10713846829760987,0.30806613843213954
0.08169158945820239,0.3296797280649051,0.07790752335219887,0.024882717740970537,-0.02123948192421254,-0.009046336299463838,-0.03647026179845994,0.3131706328968593
0.09042682989548427,0.3086878096339463,0.09610201059100283,0.0455169353728901,-0.008863676507002313,0.0016523305284506394,-0.0024736417154782135,0.30883461775158944
0.09456072202575637,0.30511062448642784,0.09953471585384337,0.03571678503240369,-0.008884475075744466,0.013498614166335588,-0.014932835602873375,0.3017613513910232
0.09395922520516116,0.3181632945830198,0.07660610307951038,0.03248516620388771,-4.1981113979230937E-4,-0.001963658184643891,-0.0249981580918096,0.33060265727088284
0.09593742912490344,0.3368952666646001,0.08474063557148823,0.015045665569114592,-0.025847682525303412,-0.0015787833290465245,-0.04099781318082764,0.3383030456984524
0.0876929379424349,0.31820118236479644,0.06283256005346746,-0.005042148287377065,-0.029126750266951634,-0.02821344180420182,-0.07111974003498664,0.37831958959420786
0.08478683362799769,0.3365082321152928,0.07752719753926528,0.0029805313544816934,-0.0367643796824326,-0.02991508606759033,-0.0850245232930405,0.35204604274110085
0.09600167971058204,0.31895600022616094,0.09299933682317738,0.047024383948553294,-0.012867219294795324,0.013911211317280368,-0.014412093412954234,0.2701796340311046
0.09759721250910382,0.36091487727384447,0.09221523751944875,0.04933191763195501,-0.00211098461833644,0.012120285350750756,0.006539806608384425,0.32066038480339853
0.10238728028267394,0.35433762220374515,0.10102487223778948,0.040238739334100514,0.010030106361971824,0.01877490153132568,0.010433597992575521,0.3962875518766122
0.0934948657963851,0.3753388995701119,0.08982358353916986,0.03405788558263689,-0.016349046456781233,0.005290057413477135,-0.03338960195349125,0.34436024735276083
0.08975494760561176,0.3689223787247887,0.07528559302553228,0.00999906995654385,-0.01063286880026638,-0.01478377941184898,-0.04163987908177221,0.4166267443371388
0.07977258264923041,0.3450667900021483,0.06404248220637837,-0.01587361561552944,-0.040660577449140464,-0.02967318299455555,-0.0789641511384561,0.3322049875334656
0.0845081913926701,0.3363667688145943,0.07862886532445874,0.024127204979083945,-0.015163416169960564,-0.008008683858277773,-0.028960537520996536,0.3668444764044871
0.10750678086917265,0.32787158563193114,0.11185907406639883,0.06465845005354943,-0.004782299458532732,0.02499981692896356,0.020399970161321394,0.37706212157107233
0.10273908890680877,0.3142276813613535,0.1267935314232113,0.06781713779541425,-1.6391208197486006E-4,0.043474040497347655,0.01855936073364112,0.3173990226987674
0.10385005532130274,0.3178021888604612,0.10489650247784615,0.05835162622269587,-0.013094641934255285,0.011875484333453382,0.004430640017224824,0.3584757183258648
0.10211325709680837,0.31121793961422406,0.10448866299245049,0.03845814085961364,-0.011283555695378355,0.015067744193800563,-0.008038257142623224,0.33484524428553597
0.09023180371800225,0.32272742943612936,0.08955024946865439,0.022863711313209675,-0.023805036276139262,-0.018620744495468942,-0.030871954304414886,0.32580028271539097
0.09292609031622545,0.2901465632567633,0.08434593910603777,0.004693552141848389,-0.05027682094042555,-0.025356322010468064,-0.07130541506379004,0.28520988487266413
0.1101886006702457,0.31106092285356146,0.0961452969084468,0.05022370266403758,-0.017782260506591104,0.006979651950747555,-0.011834658752846314,0.3043871546178973
0.10112421440428822,0.29227335908082824,0.12730691535055083,0.06082814811781242,0.001712505501147928,0.01732621857924777,0.02321211218635991,0.3665737037755003
0.11082680130112697,0.3176499926308766,0.11702929279339022,0.05838106182098947,0.004809433567416539,0.026146389147482612,0.01998498390582568,0.37823546473040276
0.11179253127234635,0.347006120428648,0.11650870214670597,0.054082470978637075,-0.0013497056690603775,0.021102027862299096,0.01746794727404716,0.4619241942144859
0.1012704576167306,0.3308909592707467,0.10231224050393295,0.03783625742439877,-0.007759645057828275,0.014301292703187437,0.0038794339958457035,0.40270001075128153
0.09588294069065718,0.352697048582176,0.08777968710399317,0.015537528682716618,-0.01648569627412983,-0.0010360397735246587,-0.020143919472114698,0.3950483205529115
0.09967252388639333,0.36104562894125586,0.09987512085921636,0.04039093833528178,-0.0292347461244543,0.01822240067210402,8.901779310266417E-4,0.4149021973156712
0.11254986631409566,0.36172962668042896,0.1200312328175654,0.07508493177573249,0.021943210094128494,0.03821092179880307,0.047143935761214825,0.3986775186077886
0.11905199930046788,0.37523570470310436,0.13066873141364266,0.07154381258420321,0.025773166908078318,0.056269975987153845,0.04508040556515662,0.39855482159461486
0.10676183355372539,0.3471835162723184,0.12610864763064222,0.07012952023971443,0.0088767074437261,0.048104146915107344,0.033037101749874946,0.37424660243480634
0.10762689337474458,0.34018246664156065,0.11057431776036576,0.04866090167445929,-0.0011013660470612313,0.03364819517725083,0.014173968531907947,0.3604706384627674
0.09950030458836277,0.3218618809880708,0.10255006988778761,0.044035187726527605,-0.01980419764490645,0.018887230362682306,-0.023820109466811765,0.31332349941058957
0.09432281302561547,0.31382786000864904,0.08165019001983727,0.01654260605883499,-0.029403862254070223,-0.009125513643204396,-0.03477677818994818,0.3907438392817498
0.10893896114711141,0.32231286470444276,0.1117663616813983,0.061729649266100486,-0.0033330025127803068,0.028605925242525254,0.02597908502062662,0.37358213803760976
0.1009298818105185,0.2879700532807343,0.1306783019739874,0.08455598902100758,-0.005339630982047528,0.04469082510525697,0.0591481195709293,0.3857187595871248
0.11906793122180208,0.29674999680669817,0.1295326708418589,0.098413963970287,0.015637595007593312,0.06553976841111644,0.07117349653199305,0.37055656949190735
0.12412874491263408,0.31982278072829134,0.13470409149479967,0.088952907324522,0.004659782633962782,0.0447320883760237,0.03305711805049515,0.38167119237929464
0.11084801686590376,0.31539063475512175,0.10854533087950251,0.07404702100328721,-0.0068596332172420555,0.044709009969739776,0.02280082431501287,0.3047006131001845
0.10380330417201643,0.3161579678423755,0.10678554911303766,0.05218441809810239,-0.022235073652594153,0.01325960965487719,-0.0031415012472719973,0.3327999514392181
0.10819775035227237,0.3276855090035183,0.09995471649425855,0.04461955529793587,-0.030640349227603413,0.004106139714355781,-0.012328439465770858,0.3317640443286228
0.10928831254401242,0.35886358908879673,0.13226551687865443,0.10325205350684588,-0.007849304573093891,0.03883861772895608,0.06113798722527112,0.44071844683951145
0.10759253497289643,0.37047944814270706,0.14031964419142037,0.10537750367641024,0.021834825416649314,0.060153525591419586,0.0674587308309734,0.4336006865588532
0.11515792904610972,0.3706522422496009,0.14361737329303664,0.10191508291407193,0.00617373994394679,0.0663183570082327,0.06808692813032201,0.4205541079183625
0.11732228470692335,0.36882174873461454,0.13408086036994232,0.09669265185914097,0.008796895548854891,0.05080873826158481,0.048079735908388765,0.4795591281978784
0.10792784496039368,0.36193618444187997,0.13198849119789446,0.08599866533697245,-0.016502231255720975,0.02945551230023007,0.0412624851510922,0.40160662523914975
0.10555867067127517,0.3648392627048366,0.13489254297707773,0.08823954969261702,-0.013563544653571727,0.04407771301530613,0.04986029661580941,0.4364203506342666
0.12076436458571138,0.356010310888461,0.1501097106124708,0.12870205301834337,0.015828300670837053,0.0800974897342841,0.10450425064689943,0.4534900693947341
0.12209632730305893,0.34720198010543457,0.1596476116232867,0.12714525568452112,0.027155963626435835,0.08768466432372747,0.10699270316979104,0.2362467222989176
0.11994898350848619,0.30636111855225107,0.15104520432887522,0.11650197254110604,0.02808460633138459,0.08315966151304284,0.09687185670942375,0.31675507440431494
0.11659387362249087,0.3245213154944094,0.1419952884336795,0.10525165800302691,0.009031043337442781,0.05732697421937335,0.06886125603361433,0.3490639023334813
0.11982117820126317,0.32511796360008927,0.13326159935709658,0.08451907253956098,-0.013519432342601103,0.054061174348317365,0.037869032266162964,0.32551550358452636
0.11682592390972754,0.3318748570759607,0.11759305457632915,0.0766898749686255,-0.011617077739442308,0.025429522702998784,0.028022897870889348,0.37792719260832597
0.12002356122292866,0.35042188295770516,0.15536435524719572,0.12268536442945953,8.090062279962077E-4,0.07949431320244255,0.07962299533980478,0.4182880115482671
0.12714733506346043,0.35388189425849065,0.16886352433372614,0.13344362158731238,0.020368340108820587,0.09528305445172013,0.12295086636638526,0.44920185702301946
0.12878951570222327,0.367173847098194,0.16436283792019263,0.1400672640406406,0.02929353868248,0.10214021799238925,0.12944689571850818,0.4972314273708893
0.12711569604574402,0.37540829421651356,0.14598942057527456,0.1284174627457822,0.024851393565045402,0.09577288206555787,0.10065305051763676,0.4697111837788878
0.11851117661039126,0.3722907644565525,0.1489150088937846,0.11391502062040751,0.011530218602257038,0.07368624030746601,0.08454208768704735,0.522153978888455
0.12101011331919818,0.354986633149991,0.13823266758013592,0.10274255783894568,-0.007938990721383574,0.05686086690888642,0.051605773567664215,0.4730061563258261
0.10678862281010477,0.3524978060440516,0.13029250622502722,0.08461820680837231,-0.02923706226557618,0.03284845149376617,0.034590401647403825,0.44588240927197126
0.11855438502868888,0.36009590042486705,0.15690852936184582,0.13022175631077915,0.014928870301189555,0.07174096640588169,0.10782879289797212,0.39263188453482833
0.13338572028962278,0.37907833291182624,0.16322408401691924,0.14310946127257965,0.013385812954615009,0.1006293781229566,0.12244785708163014,0.4761109813665976
0.13098910154348628,0.38124653490738103,0.16651104403046466,0.1501610289735473,0.03332275162366958,0.08210794318763906,0.11776100372523533,0.45080214418574027
0.12318136885998167,0.37117171047956626,0.1566298101778374,0.1215920557749143,0.017076454051401874,0.07376351892359778,0.11115847953507654,0.5300410995695699
0.12126681772198175,0.3755108456523883,0.15011691060170204,0.10345112334743893,0.007932961403967886,0.07147663660506737,0.09161650596186358,0.508225924833668
0.11634195054480465,0.36051749756561946,0.13048167017924753,0.09597616909357352,-0.0036846609942078204,0.04480698732507696,0.04660070638888002,0.46116111696160317
0.1165740800665878,0.3418639941150486,0.15522967221662812,0.12783849123917887,0.011755198249733914,0.06131780369545115,0.07446392032541287,0.4627010355127736
0.12404651809786171,0.37407899364970626,0.17445049317957406,0.15063417730343165,0.016862940770777577,0.09354938649211152,0.11342486116905183,0.47452111246329015
0.127761677766092,0.3542466023950399,0.18307561399960562,0.15396309639816422,0.0356942291407642,0.09896465260530068,0.12956917824304784,0.35067386213237683
0.11921265055745989,0.3540636348011511,0.1670024422932397,0.1421650077326276,0.02134460574093854,0.0797006715906735,0.11839220312939053,0.3859540575781666
0.11664611495234917,0.3357757814623826,0.15910519806126422,0.13029260069531307,0.007348245547793091,0.062435137971623346,0.07834478606347728,0.36829036445461094
0.11155486609275833,0.3297935261175777,0.14534606082602158,0.107691926937425,2.2460985779016303E-4,0.05061393006562786,0.07114177155686555,0.4466798102226773
0.10651388430940581,0.3716523526048198,0.14345464394751872,0.09174426565053545,-0.01728035389780825,0.03821383756581546,0.01772197854674511,0.4032712547173258
0.1269356494704306,0.33942359121555493,0.15985195761320833,0.1341367466997316,0.02100358750589976,0.08243110089797066,0.08967389876371237,0.4637389307814004
0.12248143896500602,0.3118061048992731,0.16955043965644623,0.15308375812318434,0.014142310460690487,0.09855570625337344,0.10811976991098574,0.4092214002659418
0.12616806875081704,0.3446812870847326,0.16255028509768596,0.1569181037789239,0.015245053171480191,0.09049171652157613,0.11659641678979099,0.45117265271724644
0.12513466335445694,0.3653414996454989,0.15624951667094944,0.1334053186401743,0.013568631598049163,0.08420020917380582,0.0852677576097953,0.5204203749026832
0.11020349052989614,0.349715311762376,0.15269321187187648,0.12336991088815993,0.009357893189789636,0.07495433482054269,0.06268487741580425,0.36469460032016865
0.10648015083447228,0.3097133299565685,0.1354545897534946,0.09596385946895004,-0.01555628240114726,0.04424264947304752,0.04466184424667815,0.3862512073217056
0.11571979551578766,0.32770262737275146,0.14267753775334444,0.10836337605369117,-0.009896636525301705,0.05539285102420665,0.04375440167069926,0.35676238025905443
0.11802535388536586,0.3263294404365112,0.1594568556387712,0.14285409757752449,0.015317343877991793,0.08404888165458571,0.10364860351855455,0.2912152430257441
0.11721796957684313,0.29315151156933594,0.1689786394112067,0.1401776270366894,0.007680895926075144,0.06734215560859358,0.11430098627725943,0.26411795253312825
0.11795407334189463,0.28199902800155213,0.15662546921220563,0.13114444369219103,0.0078674698360843,0.06871425067483256,0.07722177111024466,0.30218661781641254
0.11620442537807298,0.29904972871506386,0.14097027548857766,0.11720230012848473,-0.0071208812735497435,0.06390939351354356,0.05189850088826036,0.3042438339983115
0.11256094919877435,0.3139193528337639,0.1407269304201298,0.09825741407576745,-0.02183329699552873,0.038670134376901436,0.032796219725702826,0.3775716116677303
0.11482706603782655,0.33198270860460627,0.1313731315110035,0.10418503756406954,-0.006912255819797897,0.04348301789164254,0.04163464672682494,0.45835127139430226
0.12056207900427444,0.3673525253252456,0.15856025470850826,0.13572092866548377,0.028570693275353314,0.06876097271653529,0.10729566547029475,0.5294286642968375
0.1299343849800268,0.3339424210680737,0.1710438437228445,0.1416674790998242,0.027954148726797485,0.09666743912982365,0.11710898609015842,0.48091853359059095
0.11536333385751882,0.23716620421124673,0.15097377691701988,0.12469855716199692,0.03667868779810369,0.09146012758756158,0.08744320048682855,0.3746420311361014
0.10436645674887704,0.11073868024991025,0.13040719024411168,0.10543308429997134,0.024486385300123672,0.08060392147553992,0.0705211173411544,0.34819529096403
0.09808149861732489,0.11188602849443345,0.11448129582726883,0.08689986467713331,6.942914473845501E-4,0.05839387243666432,0.04469598288529111,0.30116835321716845
0.08687363145551232,0.14175607918069397,0.10157946378822444,0.06444948722161951,-0.00817967995494023,0.037906071440964716,0.010680655838256555,0.44067366731421054
0.09211403025731955,0.13691155456889878,0.10971803141487019,0.07485196104885365,0.022078732555247976,0.043451589094367166,0.03020268103151172,0.4285500712807489
0.10070243168672827,0.09775217531040438,0.12432773939476396,0.11366182877600421,0.02765505370764304,0.08387604047787374,0.08303959314529755,0.5120269817928259
0.10945215182142212,0.14038335235082863,0.128490110546529,0.11247049818093496,0.03251544537698831,0.08175103696010043,0.10034837201645577,0.5441848699097205
0.11821754670180257,0.15690910762664173,0.13724526539207837,0.10775687267130014,0.025022198661719446,0.07331844309769978,0.08346582158347181,0.5217757792340502
0.1042504717326546,0.13643150306826704,0.11535645766026165,0.09845490708266216,0.005134403994229752,0.055345442850236626,0.0601932494858913,0.43473247143435945
0.09501537558121653,0.12451435772576376,0.11125590533293975,0.078981214149089,-0.009079082878584157,0.04890542370031295,0.029722183050692203,0.3039318311660556
0.09888977206669175,0.12500993143267514,0.09758989622522764,0.059633170261005626,-0.02513585351690354,0.022893352594663317,-0.014653780109009957,0.28450374243154697
0.0989564228964545,0.15081151481256558,0.12399306866184184,0.09274006990222021,0.002924404702193366,0.05900160319146158,0.05412540674230757,0.35286962346303175
0.1062271435988885,0.18322348865986798,0.13554029758303246,0.10368269174182583,0.030078045396223607,0.08754988319916761,0.07735244342819284,0.47209517127948575
0.10042277020036187,0.16795456843664466,0.1271610272870821,0.09517549707221132,0.011342317664005829,0.0878910808248046,0.07551906161745074,0.5362709138231314
0.10021878997934605,0.13621186394395912,0.12415980236145813,0.07474226962196373,0.005142486440409299,0.057732036536894016,0.054807209319435723,0.4769717258073258
0.09539120066726452,0.15045493267739865,0.10678771192479107,0.0682171316695116,-0.0012974938268709311,0.027071056934773095,0.013518648153303604,0.5345836171339946
0.10392240509951037,0.17451162406743181,0.1181552600202455,0.08559323587884489,0.022555252247386113,0.050040447743185223,0.03659907443987005,0.5289472681595914
0.10651627163679418,0.18840668646405842,0.13292208951572154,0.10866866996052837,0.019777839220250903,0.0864362369252102,0.09159646021461616,0.5640238026722785
0.1062166915627791,0.1889211953340436,0.13639456500798672,0.11174592777390246,0.02804387600441561,0.08261857860918567,0.10480903653720473,0.4573196828474061
0.1137645468475633,0.16146321372095024,0.12400844942893097,0.0959224322316292,0.024729760004991982,0.06285332014413522,0.08016973186551593,0.5922761643600825
0.10306619927753013,0.17453668744568576,0.12735401727037152,0.08104903119652054,0.009040135981078164,0.06287809421966281,0.046294434539211615,0.46396636628606786
0.10218434592331958,0.19889793353284463,0.11208030620778517,0.06643708521541884,0.009121529348375275,0.03371266975315546,-0.001703184424996822,0.5250531987254206
0.09159739496322059,0.17374327793634298,0.09606982697060766,0.04877198274950893,-0.011465035646054193,0.025885035457561014,-0.03593008419531227,0.4736878766726973
0.09888579636757713,0.16447079364456552,0.12156972205948434,0.07918846049726239,0.014856428708886572,0.06011449257150815,0.028660010978780355,0.5134437241686386
0.10621001480069978,0.15867701256944372,0.12918828714644126,0.09714702298088224,0.018394149464952384,0.07342173833738136,0.07163590301845794,0.45809843978566456
0.10486881985312857,0.12116125932914418,0.12236134127376781,0.08992546918243458,0.020810065902446967,0.06859394497949205,0.06136161024822473,0.4340319367088603
0.10034720743947359,0.12384806591416385,0.11479018464060169,0.07373652553149715,0.009831754239718318,0.06062959049791832,0.03451111135280849,0.361046718185837
0.0928965403082139,0.10867513217939075,0.09854433046252152,0.05474244134197409,7.032056541386904E-4,0.03508105017903618,-0.004789138625795599,0.3446567404823152
0.09681435776608563,0.13609792177937657,0.09595826176282923,0.03582825111527245,-0.016624782633265445,0.010234206939173462,-0.018836194026754183,0.4054176239230828
0.08339543097520764,0.16605728535476796,0.0921281369440913,0.013021678956186843,-0.028591996249441514,-0.011892966297330408,-0.059607097114493586,0.39650068027675534
0.10315081973520711,0.18893787297388154,0.12447693520945743,0.06514843016751842,0.003922876315295256,0.038917154818081244,0.011684502594653598,0.4672099724854788
0.10591752029281798,0.16196095369325886,0.11706744976116673,0.07096058070496936,0.013769035594753768,0.047706931779941696,0.038126622826932466,0.4670035928172385
0.09645995853992965,0.17294831079244774,0.1050865651293929,0.05516889803706237,0.016785524219957243,0.036734827638898376,0.03147812606355933,0.44555763451489244
0.08812151645436211,0.18928464193635527,0.08925909668411604,0.04782997772553952,0.005076741607004273,0.037851740538366756,0.008254097674037097,0.36482401917807195
0.09149713159323872,0.18763928772768512,0.08330255908383301,0.025738049092510144,-0.02175368214717005,0.007889821692946577,-0.023965968961821547,0.3524043886064791
0.08501355564350613,0.15095417545575582,0.06967293387314862,0.019211838153927508,-0.03217769799251943,-0.005519299333242041,-0.07091105151120666,0.23312181750801225
0.07255637624450648,0.12951050335104572,0.07461885381269472,0.012411249937141483,-0.029440640027487027,-0.01022122637751234,-0.060675344753434536,0.40652589168049763
0.08441771423481945,0.08502369609113637,0.09063301414553714,0.04306704501073124,-0.002347466383438982,0.01384581781748438,0.006061188613221047,0.4263881191641971
0.09086820353668215,0.10745460847885019,0.09262665023616229,0.05062144864130853,0.0014911635203446372,0.023373035505050883,0.0017614456313503714,0.45652545246820186
0.08758707166827341,0.12951296902428006,0.0958246211870363,0.033235449521720174,0.004021226477600052,0.02270064213869554,-0.01929527630813584,0.41087031452972583
0.09277127954136141,0.17758474818783393,0.07885540360385143,0.01601781519881489,-0.013678379557347877,0.008057347822683697,-0.03405765444612365,0.49244083414339246
0.0725881798474993,0.17273728057129667,0.06876964086844924,-0.01097353331970918,-0.007105931210961223,-0.008929193096705161,-0.07612564191905431,0.5360998753550601
0.06783291705988148,0.16889688877025,0.04807112201721773,-0.016043081046870154,-0.03695429187494232,-0.021244601481620235,-0.0725279288393233,0.367379373210627
0.08801634247913549,0.14885059373998324,0.08278472238551281,0.013846399718175948,-0.010737737348852534,0.0069673734238389,-0.017138417795765946,0.3669388413594399
0.08758951318343784,0.17211400666301463,0.08629331761182059,0.019626462372938074,0.0010784913870420848,0.005038227391083084,-0.020198732933934604,0.368128826903649
0.08644543973983282,0.18562731008974642,0.0745934781551159,0.005659275664311212,0.0053542843060499085,0.008426144801686984,-0.030506564699055418,0.3894205741516732
0.09074663270933267,0.14194146025657148,0.05134497755591134,-0.003866937407438133,-0.01731130096267072,-0.01805792463703925,-0.049716586970287135,0.3771509655011353
0.07861947649661562,0.11742626618531754,0.05907871756438378,-0.019242197072681093,-0.019076170072733975,-0.01440007081421526,-0.0708615087624933,0.2943686540734453
0.08201058473631133,0.1497832231706093,0.08388372674759868,0.02053735228596287,-0.0010274635548488383,0.00894764506384797,-0.017876890628374383,0.4314631518725739
0.08705861006949124,0.2102003166345331,0.09776926707771082,0.030168264472590137,0.010834402800466748,0.026477305948968844,0.012595395943626362,0.44941561041020756
0.09485587250787055,0.13040562260425792,0.0862116712113235,0.02448788902854597,0.008302736444216165,0.01771475886302601,-0.010389010316230986,0.38144210635031545
0.07545057373669896,0.06782145360505648,0.07136635734514246,0.007895375481771995,-0.011089614022149901,0.016692513635159778,-0.027178114471303427,0.25320718537948017
0.07564739377817291,0.10067884442989451,0.058403048019310615,-0.0070630584254541716,-0.018837607122592425,-0.008801864588626898,-0.055586141536123054,0.16107514713429263
0.0727920385757193,0.09945072246167234,0.048454315156536004,-0.02256521381953826,-0.03033478884894767,-0.0168900755201907,-0.08391251999916777,0.2745833374362319
0.08069663671518193,0.12328582417023864,0.0713794144615455,0.014378075674701524,-0.007649531843385772,0.017581892049365444,-0.015289052675065995,0.32367606544176614
0.08456371193685211,0.10305020007016773,0.08161330797250257,0.036485867190665135,-0.0011516401047197593,0.03149205506815284,0.013847092509081185,0.2587480096846279
0.09658306849890934,0.07348111921264343,0.07257836856139496,0.03778002417518479,-0.0026677753675879673,0.043549384333953195,0.003594788350512173,0.21801449347075835
0.0876447169014962,0.11339823415927913,0.07117297404652191,0.012168278948500354,-0.0031795468353725035,0.01864880778713027,-2.2991720517480065E-4,0.2520046676930694
0.09012435155240085,0.16024763432986056,0.0753448831503772,0.0028757491542837623,-0.011864120892868106,0.02112895397570139,-0.026017270651030707,0.31600186536549457
0.06778212104625404,0.14895513452371195,0.06624802921347327,-0.015812485484720317,-0.02489609261227561,-0.004967031626168191,-0.07346651355623264,0.22053786255467875
0.07558882425926244,0.11311492290317444,0.03483444488418631,-0.035143074819797046,-0.041161962196942146,-0.015235578399711305,-0.09088856413300343,0.2674999915144739
0.09143675855164327,0.13149434369111407,0.07481639993718268,0.0029433870610013286,-0.003288239820761139,0.021779744053610682,-0.01656566575758636,0.3671694215701985
0.08910380236685654,0.16226423369360318,0.08889936693852118,0.024898577435588782,0.0029857176017156653,0.034558073874055566,0.003574767107707327,0.4635167013849475
0.08947653078585177,0.174556442917791,0.08071943940300551,0.015819730271358277,0.009698134361402195,0.05008186370867092,0.022420323484121183,0.3418846704994887
0.08481709662831867,0.12265158518600341,0.07863062579349113,0.005891062672950589,-0.003409319171375561,0.009489273899218624,-0.02371146858364121,0.22315730808258785
0.081160885785188,0.05904321678208837,0.06101206426094427,-0.00722912181366044,-0.018442439962473026,-9.694028821818178E-4,-0.055412695503806994,0.15459843871461654
0.07853903651710714,0.09848956814670178,0.060546240722089494,-0.03176209008163402,-0.028728126479613012,-0.03786384168255407,-0.08161569344588546,0.2959289678902201
0.06858007472689502,0.11644975118592617,0.04642070505258468,-0.02439033474143241,-0.03407947574962469,-0.011780833131006105,-0.06434636121100971,0.2649316859695809
0.085825210580418,0.13510281712548547,0.06928545877742259,4.27406202862546E-4,0.00728402076715392,0.008430651354728412,-0.01796157668970033,0.2201164861800844
0.08234665278968653,0.10780149672208059,0.08026700891311966,0.007846925106113614,-0.009963773900805835,0.011807871261456245,-0.004426263481640519,0.24351449760803348
0.0923607724252843,0.11117799312226928,0.060282141473565205,0.005804624952862924,-0.01063817548160667,0.01348795616258399,-0.024410840384322476,0.27262082133201976
0.07111896193204965,0.14419553243851446,0.06217462229717864,-0.028497739198319594,-0.039712904718278666,-0.021412434475141566,-0.059114700934803595,0.2834280386452766
0.07583781270343605,0.15515434066070444,0.05698914138036711,-0.043485883966435455,-0.03995441664443369,-0.02595895156098023,-0.07138885329727657,0.3410514793020755
0.07918323999449119,0.16691939858159568,0.061998664614666694,-0.018395984953109186,-0.024808765197774012,-0.011695776281314133,-0.060685556428482765,0.1998532035701783
0.0866869984563202,0.15411287324821976,0.07603822910981245,0.015583797125486678,-0.015392125488972494,0.01903850126087307,-0.015441181369390313,0.2576028458453579
0.09435119024865846,0.17226027783057485,0.08774003607152847,0.020309397166094104,-0.0011259579139456636,0.027713150292118342,-0.010353389826663634,0.3025506947529658
0.09145638744221427,0.19242323801071562,0.08603405253903948,0.003629461458943964,-0.014999441177413066,0.026353767169391293,-0.005523132307478269,0.43641097066745416
0.08606613457188868,0.17949694320334214,0.06894524546182508,-0.010076280587293733,-0.03142358374243413,0.02075015932265663,-0.035929278800381666,0.41342711072864224
0.08001667008368034,0.1642249943761492,0.049536482817813136,-0.023539295488377465,-0.02128398143839816,-0.02146801280458706,-0.07162682411733406,0.3970769083834332
0.07304467526692165,0.1547395989089543,0.04718354436866922,-0.036142559431340385,-0.036808611222340484,-0.036435241604255,-0.08733296446784715,0.4306075017264122
0.08787332026832234,0.1696708982052177,0.07663542355039138,-0.002651506494506014,-6.22916302553293E-5,0.006054637944503532,-0.0361000469720821,0.3761467098088953
0.08688511202951096,0.17463806584817979,0.08306316720261753,0.008912328673770962,0.005065751107494296,0.028364318461048442,0.018065079911533034,0.3608950174973587
0.08594431210194489,0.12334465724202573,0.0954822112964268,0.012506367958212614,0.007753856331683111,0.027490849705234143,0.00149397886698948,0.20964634338313803
0.08370601407194607,0.09493332835941357,0.06559891461980334,3.131487564374522E-4,-0.024977031626794516,-0.007917281910926756,-0.024567252197249034,0.14366700986225378
0.08181920487945193,0.13684767805274603,0.06889714999668325,-0.025481124066428402,-0.023530055463849935,-0.006937130971552891,-0.06112706915668294,0.1546797181905416
0.07999818251435414,0.13624434638675054,0.05069802450696965,-0.03696177123515983,-0.025175789823410736,-0.03476924279873343,-0.06200286748458054,0.24016081475463566
0.0807956188326796,0.17594900212014103,0.059416398564441,-0.03055210589565713,-0.052049715755995395,-0.027846799996674408,-0.07207873895480532,0.3044128167013247
0.08562994551550289,0.15713546301227402,0.06634930631206086,0.0013418596339357255,-0.01223904466141285,0.006787898633295456,-0.011752774140011014,0.35763101099779687
0.09242301632044196,0.1707663915251584,0.0813730484256856,7.415661585806878E-4,-0.0019120021068423055,0.025552602869649735,-0.01243081989750691,0.33645874527880937
0.0933119902971022,0.16519004743134574,0.07338660364854291,-0.002871079918112526,-0.02471303724759926,0.01165061982312629,-0.026992447837360423,0.3758452027142178
0.08633347370118816,0.20278801789465187,0.06999330840424293,-0.017086982958534967,-0.015085103521263785,-2.6805977514338087E-4,-0.05293090045995581,0.3213752864083377
0.07841318763837479,0.1683510585483875,0.044904737126684635,-0.03946270452213651,-0.037003200137056,-0.02090087242534295,-0.0729252865357793,0.2589222203952502
0.06929842043047695,0.11786132101117672,0.04207359699683202,-0.055935391746017984,-0.06205083777958659,-0.06525934548759227,-0.09989504232269153,0.16503572790121956
0.08219620862636146,0.12416021433843519,0.06699096442859309,-0.0190235392695753,-0.027166830662458806,-0.007253074014318089,-0.03698199769113422,0.13352683710887425
0.08887392613306376,0.15724021523323717,0.0748689454926716,-0.003625692707632765,-0.02398276296003981,0.02534623228042051,-0.0037106420581913464,0.26342440787188914
0.0968766771144784,0.18753326567088796,0.08055772942002175,0.002576781578080227,-0.0025158006415816033,0.028785787613749152,-0.006785474572301421,0.38715928319041154
0.09036952963122284,0.1686655160406987,0.07211299255160296,-0.018734238996986726,-0.013321561745168692,0.005997978247949063,-0.02365823258911304,0.41732490043527004
0.08572909500542308,0.1532247485905118,0.06468612776217568,-0.02925659630268142,-0.020296290939456733,-0.013211446033266542,-0.046962238154980955,0.4246933903481888
0.076329368098222,0.1666997474207093,0.04859373034437701,-0.040639642369420734,-0.03321493010783314,-0.034294320251135574,-0.08847873125833589,0.4319895564053057
0.0852322015157101,0.23344972665635486,0.04989014834505614,-0.04659072850938942,-0.05055130288356061,-0.03471876852230137,-0.08254558777909599,0.4608433462406436
0.09979018435758454,0.23341912298210796,0.08466504026345874,-0.0015780018084759683,-0.02657495543500839,-0.012220887439432247,-0.026453626029138214,0.35354348907350513
0.0950481346598403,0.20290943132993788,0.08277957121883271,0.003431127078864947,-0.006310379460089256,0.0193465827252967,0.004201216914625684,0.2912475549645222
0.08615805467112603,0.2090203848259732,0.07967437087178277,-0.0019310360756340295,-0.005713877129566656,0.016147323115473948,-0.01838556691562917,0.2386652654174628
0.09450849314231069,0.21865744267644832,0.06016084197786693,-0.016772654881004975,-0.010063263295119347,9.254625341890123E-4,-0.01609904512560423,0.2175759977857655
0.09459231458470084,0.23582070565074112,0.0648953502564427,-0.026515197043830197,-0.033375304270405914,0.0016191261418532822,-0.05386922742994612,0.34979974617090387
0.0838619191206452,0.28355053483992326,0.06298521776228368,-0.04324653846947905,-0.02993023669954959,-0.02899878882620674,-0.09927972676092753,0.4712927210566438
0.08556896823094548,0.25239866807482947,0.07545104137672436,-0.010788181721384696,-0.007518417885659226,0.002098161213007331,-0.03174372618467518,0.5759283249221121
0.10900044654929111,0.24469468418845575,0.07922770243399167,0.006615629559125205,-0.003117358395769058,0.010623226749720929,-0.009966694179019329,0.5710209331482796
0.09589629767152948,0.20306770048598521,0.08160380434834377,-1.9892579905493238E-4,-0.004387687228906454,0.0315965276920196,-0.014131492052472555,0.5278298328869561
0.0811644133169601,0.1399937944337122,0.05513021788672857,-0.010844154965665456,-0.018563938638797874,-0.011358630389524357,-0.03837715720672916,0.45930588153873914
0.084605095195295,0.12077122937702685,0.04282463615374827,-0.031526972165876695,-0.011844008742870952,-0.00456173876090474,-0.04402151909135498,0.41160670023331386
0.08391075849524753,0.102958117515745,0.04124225917277557,-0.04275131533585024,-0.026777056539319766,-0.016018458636765133,-0.06424078830337555,0.40793669382606673
0.09248331164893187,0.11345154113155334,0.06255423766699475,-0.0010494672825318379,-0.0016186851116634822,0.023557982036582204,0.006312958394290198,0.3940665151564123
0.09822445195483169,0.09347325325672197,0.08338838212880009,0.022053083702914908,-0.00672909071751506,0.026632102062943915,0.021075908464297077,0.39546427568774284
0.09634057893742454,0.0970119766431877,0.07308818856635915,0.007004561682095198,0.001686576010875871,0.024744407909717294,0.002409974213093272,0.3438444738692357
0.08911855218160594,0.10053098974642,0.05892235179296448,-0.0033466243320750115,-0.01694222628487146,0.010524053002939836,-0.02016867908745701,0.2674281008176775
0.09247522367556198,0.1109251376095418,0.05027609909572073,-0.011816766447479095,-0.0076353621349201884,-0.007132708589676922,-0.044724683453192075,0.26381475294929607
0.07720832946875683,0.12240096070520674,0.04871980272892721,-0.0345206760394402,-0.031441964688322485,-0.008026827299393595,-0.05388997263843614,0.3431854654868403
0.0778953367604641,0.13536950061033545,0.04266973745860217,-0.04678117660378505,-0.017757208833669488,0.004895336636487932,-0.053459069132219234,0.4161980993101181
0.10013138382078235,0.17852712315508087,0.07609733989691582,-1.7999632089320288E-4,0.0017107075591770544,0.01314768384737243,0.008874492178532306,0.46081709934856646
0.10691286029776625,0.22004603917613805,0.07840768743176811,-0.0035866662155816706,5.394503061775952E-4,0.03258531540696135,0.027994571924896954,0.4445943696101578
0.10285554259276836,0.20473449003233873,0.08473993393430959,5.805288178289506E-4,0.006881924141188361,0.014522241084325094,-0.004375145976891195,0.4395877525869159
0.09001099432017573,0.1759976623206465,0.061576785007064774,-0.027819676172646052,-0.0020784061980722553,0.019949461122909472,0.0017962599226874097,0.36698809411013356
0.08238671696593111,0.16472559503568837,0.031703040450208504,-0.05362572675146833,-0.015965785299865694,-0.015081083463993986,-0.05723997515030555,0.3540140220035092
0.07954104009761653,0.15797266836716983,0.022109218142464703,-0.07297809343943376,-0.042638325433244625,-0.029027053812552366,-0.1039530533995461,0.41551867709694973
0.08755667751285863,0.2030163214865857,0.050954690211499676,-0.03612124257550292,-0.013140516505442703,-0.014484744674100191,-0.026364301412936546,0.45149242835795905
0.10036398453769958,0.17390052820682192,0.08165400601579256,-0.025242522269391044,-0.0018028900394117722,0.006518621175394847,-0.0037182414571506096,0.40019153627049164
0.0993188665040884,0.16790533223775608,0.057256132984423426,-0.014909530358694844,-0.0029333508057643102,0.02295978757772235,-0.005690168513268124,0.4031952440118119
0.09454744488241984,0.0964363807766344,0.05732336278827558,-0.03761192733363091,-0.004131721832902456,0.001188248237147645,-0.032959308266520264,0.32556541822145174
0.09082254000045958,0.13179040423755894,0.043112202804210534,-0.04964731453357973,-0.009599165804238514,-2.6263964379831517E-4,-0.05111609043868116,0.3362986126494173
0.08265037954261588,0.1504792015504639,0.04908063205065763,-0.052997096747247285,-0.02763270863935626,-0.01576121302703429,-0.056365441788799514,0.30986214436351134
0.101458637218551,0.160465176442031,0.062039755513984524,-0.019694726559903713,-0.006970357706660526,0.016383560094230754,-0.003250089613746751,0.30348017815213685
0.09720804107980847,0.1809161515571934,0.08256696311858226,-0.009245862921419297,-0.006929465675386662,0.01866406901710259,0.022966770579918673,0.32623322255185583
0.09423259257684484,0.17516747647394962,0.08649570381836812,-0.009609068152013553,0.0011816058877033003,0.020248157928654757,0.012468684900985374,0.306758354336848
0.09674780040090465,0.21137060356620221,0.06923122614568851,-0.026449321659143342,-0.006339982131012772,0.0030948686486220343,-0.0201528918065702,0.25525593198253665
0.08983793025661053,0.22050077641607313,0.06116414732233117,-0.031131467868681262,-0.018311843616365783,-0.008254551498719386,-0.04230829312810536,0.3289439808532577
0.0916939016847576,0.23324496807302486,0.06041499284594819,-0.04788421475774277,-0.022671888892260596,-0.025451974039558428,-0.06942163208585748,0.4199597823025902
0.09173309885614864,0.24143124639897295,0.05529148494581394,-0.05325912063755174,-0.032950437061649095,-0.03394061412187634,-0.07673175910782407,0.3913806631384248
0.0994259993609785,0.22721192553304884,0.07287528393018616,-0.015642062488962067,-0.022704408755124125,0.0016435658877453053,-0.009737671111178021,0.36758064977183325
0.10871194329289438,0.215771239344553,0.07868761466216348,-0.0212438897233579,0.002784533101912488,0.014413717695265116,0.005305009403420275,0.42266749866890263
0.10022553712580277,0.22330499863537892,0.06740658574053596,-0.02219030229392712,-0.006450795788216445,0.020000340875537242,-0.0041978278880567535,0.37541243264025104
0.09702432581751685,0.17744166939698924,0.05858958799462433,-0.023142279116192356,-0.015392718303049006,0.008486914278694939,-0.050435625389518055,0.3815317121409169
