0.015232366693635011,0.09648659881434735,0.025931977956154095,0.01788685018339568,7.357639484103177E-4,-0.0014990655992108103,0.01419730615322097,0.1271946514420235
0.01100473104293137,0.09643509449919381,0.01358507829407899,0.013310387384113678,-0.009595294506954389,-0.0037933351950777787,0.01205018720857031,0.16797357896495896
0.007817905836688451,0.10134742565975846,0.015233949791319649,-0.004397623246810973,-0.012379142397729352,-0.01529888224794545,-0.003910915803788613,0.11276391413224617
0.011788283276579348,0.09738857868535876,0.0020228174496297133,-0.017946159065645992,-0.027734682443638685,-0.03485863312151029,-0.036021973361559934,0.08406381294187673
0.009998455017102746,0.09667411946109332,0.013396542273234757,0.007069292764852575,-0.03406854872974564,-0.021647830696674458,-0.028599200762010606,0.0932069925099371
0.019246797750904987,0.08238517198667265,0.028248447741615564,0.035122455009302216,-0.015535089473785976,0.008330404834407383,0.016656904359733035,0.0835771232483842
0.01736345825240173,0.09139293398803588,0.025271700990288748,0.027301911518959047,-0.010741105729419553,0.01037909428164845,0.031029470345395396,0.0611128166549273
0.011134503226177688,0.0912189387804872,0.020388702351200765,0.013881321139898605,-0.00558425383712222,-0.005177219317593764,5.575210894303434E-5,0.049731729972357794
0.018618809187509758,0.10149888946429277,0.012651542314161768,-0.0017452391433953939,-0.03308020077455813,-0.02019306316675549,-0.03813392755419888,0.07029763008064077
0.003952702799077543,0.0959932066849661,5.279359694105598E-4,-0.013083077987861007,-0.035717314979478075,-0.046180600345723063,-0.05339414323016168,0.03099702425270941
0.0014406006298840531,0.08961298305796596,0.003502862693063683,-0.01433602795709819,-0.05430446754554885,-0.050021573747193494,-0.058105570192402985,0.06306463755330372
0.01114956398101288,0.09535464909774834,0.018151340115913593,0.021355219948021933,-0.02950839439745944,-0.009408091538529607,-0.001683679912572733,0.058512324119403616
0.018588254281164118,0.08350590627020094,0.01879668720759909,0.018968904152214354,-0.027031175984928962,-0.009605177153645401,-0.002603923402676976,-0.015603800489663401
0.0028971370972811442,0.07346816282046892,0.017902224868478707,-0.0017659706318765272,-0.01977428233181226,-0.017555980036446518,-0.015967950521104276,0.015571812179732431
0.004980522758653217,0.06153776779014572,0.0049852443298662565,-0.004330451154801094,-0.036960505539913945,-0.027445740275589853,-0.05430267982812004,0.0480743044434689
9.541409530080631E-4,0.07805695178009295,-0.0053980554582451455,-0.02232382209546482,-0.04545836847214522,-0.06352120528359444,-0.06865251785964754,0.07246506717946502
0.009688833503231563,0.08172120715418743,0.007491655552621658,0.004158176901411522,-0.04177812174305206,-0.040564165469662336,-0.02821289972744256,0.10883133232723016
0.023568849520349218,0.12384819801122907,0.026626035137331343,0.025742658668242054,-0.01242931470477816,-0.023928135469990286,-0.008397229682422947,0.11055206728607465
0.01983950269446167,0.13385971722260612,0.029261214376221863,0.020026348730142855,-0.00935552804376565,-0.02169187990444934,-0.012355184507788214,0.14813260467264988
0.013832532789185939,0.1078134603113138,0.023074348255801805,0.01295427303467242,-0.02968193167043243,-0.03566261259841225,-0.05319379324603321,0.1796910009915802
0.019688731010892177,0.11142267724402079,0.02052246817161927,-0.0047606172613145255,-0.04432357175958064,-0.06029139453940533,-0.07202797305918317,0.10997431981466155
0.0015146109029378421,0.09622934519570764,3.746525473011103E-4,-0.023500117070889923,-0.05705890344268116,-0.0683516417672072,-0.10519845626874431,0.008211918803026682
0.021955468886758433,0.11351671026528448,0.03087981577223124,0.006017893412679453,-0.047705564992684135,-0.04361182370301011,-0.05369427163301718,0.07206308012384324
0.014933476594946328,0.12537285000709797,0.03980612978162093,0.019904973466323944,-0.026833420847294554,-0.024640805889392867,-0.024601301391896754,0.10822743293616552
0.024394555546245405,0.11390831764927634,0.035921532339231274,0.009730726049952976,-0.032072921883646834,-0.0178020465389394,-0.014001785628404958,0.10573843732745158
0.014545924633926866,0.09468088805291157,0.02488450339788028,-0.002336144830452077,-0.031638599189207195,-0.05542642078334674,-0.05737928854016745,0.05179342237176093
0.011267087673998446,0.08910252266617967,0.014443686366988359,-0.01895237312641228,-0.050568758061495314,-0.0670156365058161,-0.08789539201755513,-0.0458476476798699
0.006767632842098843,0.07740435882799983,3.7320400857389704E-4,-0.03785079498000635,-0.07469288094925133,-0.08693263109212142,-0.12294603630432563,-0.022262851189659188
0.005257795289684874,0.08537435385665483,0.00254436148316578,-0.03545888146225268,-0.06813374155899717,-0.0950872522553579,-0.11491321230846092,-0.08561178147120393
0.016410620691544427,0.08574332169303449,0.021955279347177833,-0.0015029508270214993,-0.05408015638689374,-0.06592573337040503,-0.06113785583011273,-0.07494124737539072
0.019741039019977986,0.1015256929114529,0.023830729819143442,-0.0022513956724657044,-0.041017926089538685,-0.05685270078031553,-0.059473503081413207,-0.0100326866615847
0.014397604817690628,0.10039996177489668,0.01747624543824989,-0.02101305759448055,-0.042823562602361705,-0.06480571005557251,-0.08195142770239978,0.010410042588445757
0.01487038478771345,0.11689601580777063,0.012029516266818419,-0.03408786218991067,-0.057237072447160496,-0.08287013549848206,-0.10700995745711789,0.06439772145215802
0.004339104962141793,0.10308775234112134,-0.0042789136789923785,-0.048116841796156815,-0.06332182916977554,-0.10123988311782542,-0.1257102151845848,0.06203627960189011
0.0023346093927238895,0.10532843693023018,0.007633911849230013,-0.03069105587546376,-0.06674349052223076,-0.07978600347961909,-0.09635681509396314,0.013218284619916115
0.02254860888659157,0.1142254742663872,0.01805095137909257,-0.011639044101206308,-0.05002736379226285,-0.0722916873183635,-0.0727193424660916,-0.004978687728677428
0.01810919134641274,0.11848044796550425,0.016031583530530937,-0.0223443555093219,-0.04433330801206179,-0.0681106848438433,-0.08021398319142185,0.060759956115515074
0.01192212175817211,0.12151623005168966,0.007243558750397897,-0.03174333897155838,-0.053048456332914606,-0.08757858623473998,-0.092912152289726,0.08153873411070808
0.01465914936765187,0.07860642403991533,-0.00638729301754503,-0.05277125893597678,-0.06345995656327405,-0.1052638163400936,-0.11791253258537397,0.0062998151168799175
-3.7573630696079857E-4,0.09020175782549858,-0.012671066662244442,-0.05464887356280806,-0.07197584699034153,-0.10562714267530195,-0.13932142026501843,-0.054095793575764904
0.018213758935038637,0.09573498702467648,0.01570463692320324,-0.017936257489672966,-0.04075027068914081,-0.06708315274714018,-0.07259333681609052,-0.020386221993968563
0.013086534336992858,0.07639954290562177,0.026719758191990142,-0.01621725043280147,-0.0309119703370098,-0.061074327748006314,-0.05561451208912381,0.06561046255895275
0.025458716288442575,0.08360617340807973,0.022523855333375874,-0.018495152124660415,-0.03923214379087564,-0.06545307286496722,-0.07102041960435458,0.1124806521466117
0.016796851151697788,0.07981750713800335,7.090139273462082E-5,-0.029895700487364785,-0.05034369545374878,-0.0775613673853495,-0.10597388721976382,0.06602839231855562
0.00872101428235539,0.07401934001733236,-0.005284235453925375,-0.04390904905327503,-0.05711179194749967,-0.08769309751136382,-0.11859881442818437,0.04275264122062439
0.0015339813840901245,0.10322332121446459,-0.006599770336216136,-0.06445934708658424,-0.06292970117163431,-0.11018098915445212,-0.16026421999339474,0.033594402898072216
0.021820386461967177,0.11326509435728485,0.010361213871562011,-0.022733194857200392,-0.05856588672345567,-0.08716103775322716,-0.10452604296279036,0.029793427609892953
0.021847268009246405,0.11904888589872298,0.015585189862877415,-0.010524630029077962,-0.0365702009843026,-0.059091995046908916,-0.06499617929315418,0.04662096904141331
0.02932463862744797,0.10970980966786822,0.016266435230315263,-0.017093966017170364,-0.04087452172764564,-0.06694064441652474,-0.07642793259536132,-0.07448017807590776
0.021151859810389306,0.1196713767674933,0.018056693643044137,-0.027781534537465388,-0.043966609051000645,-0.0785347853294506,-0.08896303539635687,-0.041386417712055
0.022183968537432253,0.11494452686342563,0.009028138833046685,-0.038748950656333825,-0.06564618242706877,-0.09728993139717246,-0.12297527701233445,-0.07605315424415313
0.014738987822693502,0.11716154487833544,-0.0017513659228456172,-0.05052121254027743,-0.07522153978923682,-0.11535155415856721,-0.1502246727432339,-0.04238148488080384
0.022643900691579462,0.1096380451156341,0.013054764687502614,-0.031358481063506805,-0.05746537907572794,-0.08829131852952866,-0.11284322502539706,0.07068814962900155
0.03673881149180139,0.10300454449608971,0.018367799029484703,-0.014159554502241434,-0.03039785168485694,-0.057067113465168476,-0.0807135740867084,0.039919042656384414
0.034413098078728645,0.12367447409258064,0.025999925506056218,-0.007677657818209463,-0.030735032115541988,-0.06243268273911609,-0.07996736183313163,0.09996337420764251
0.031501027787232065,0.12404784558860887,0.021661660248678195,-0.018161518382128372,-0.038731995583860854,-0.0704897175472586,-0.09008134840013513,0.0970679846496274
0.025804748505581815,0.12095900045256752,0.0043850184038533024,-0.029001801229837282,-0.04816206191342686,-0.09014516142611974,-0.12130515076583931,0.09385680798921087
0.01562049087100345,0.09650912985025381,-0.007719420340638307,-0.047498134748393483,-0.052390132959243746,-0.10897448526178262,-0.1425831035804918,0.05734400528171214
0.01574905425542005,0.1204389360548527,-0.0010917642418839663,-0.041126109596153926,-0.07027519041558161,-0.09991008359801855,-0.13943210425677838,0.024038903763106818
0.030254608750688448,0.09567975309775772,0.021916348803958166,-0.008450048375438723,-0.03506216997638054,-0.06617240006816595,-0.06019789177795679,0.03936215566175366
0.03323062827443628,0.09900184855875394,0.020693682126746153,-0.0019548844889200473,-0.020210182083287412,-0.04558028458000442,-0.06362590050740642,0.03590598170602597
0.025900361741699362,0.10300338828882712,0.03153649865730694,-0.010139325058302145,-0.029215512608430926,-0.05185131394648534,-0.06629897862268447,0.11446682651411903
0.03343300724340775,0.10645522925131984,0.021753233298219675,-0.024497054401132506,-0.03697101614719826,-0.06017078464218289,-0.09395034133446434,0.12214928275508515
0.02838530984360142,0.12185815328199404,0.0026253985246813133,-0.036033701425005865,-0.03842575544331586,-0.07671786653960522,-0.11521521080595862,0.12673905690778917
0.020661050277824406,0.1254957580402798,-0.006976552491666552,-0.056009101078289075,-0.06018229385276408,-0.09155892062890629,-0.13561557447161596,0.19423894997645108
0.026862434118927504,0.1445935378973864,0.00533854382273654,-0.035171039529001566,-0.045376596033637515,-0.0930284053124895,-0.12210756639729223,0.18978887611192158
0.03696722483711824,0.15365025787704678,0.028594726320649643,-0.012476810185412301,-0.02481897566340572,-0.058292264617215594,-0.06772526935970735,0.18267250029718027
0.03706730585496661,0.16189142421912,0.030988717071783765,-0.0057768268903889,-0.033029561805386166,-0.04559136560327075,-0.07997379304904938,0.09384943814578148
0.03748384501589523,0.15957373535034947,0.02434761504639174,-0.01765322888919589,-0.04102199851560216,-0.06020068860375308,-0.07799757480886291,0.10668257039787168
0.030740175989413736,0.148477457293087,0.0164776070156571,-0.03955854419419176,-0.03485635258001672,-0.0710256306738884,-0.11008359597740383,0.057587139453357916
0.03096939691679656,0.16850186589585242,0.002967087333586617,-0.04023027454107282,-0.04472579357840233,-0.09194741186863824,-0.10873741126797101,0.1284837171996514
0.035225033808746434,0.1832002906995475,0.034952244123104464,-0.003171398606197612,-0.030250071929791723,-0.05697345608543769,-0.0625354796894706,0.12204036188062428
0.03893473415798628,0.1784198241046622,0.03780948699272019,-0.003006605326016751,-0.022102020001639522,-0.04145062667217292,-0.05341620417271143,0.12991548682097517
0.033716762017766744,0.14536025379115236,0.036934715162190844,-0.009187993470254702,-0.039914006316774484,-0.0481696710272468,-0.06328989081558367,0.08278874902847985
0.03925575839225823,0.14256214304838696,0.022349423856355098,-0.024042815432824508,-0.03354935057539417,-0.06500060712730557,-0.09785268568833916,0.11530291612031691
0.032642358859826984,0.1436767132099538,0.007001498081143642,-0.04076569931758245,-0.047664302663963924,-0.07542016496447346,-0.11376130029413051,0.16726160551702934
0.0440740850456038,0.1530241031782165,0.03566178089320781,-0.012170302288140991,-0.027243055499271238,-0.05768722944980986,-0.07527578818377653,0.13480840179886583
0.05328217820523667,0.15171398429275182,0.04318408397494975,0.009284876858423302,-0.021697345557602825,-0.029017781378823607,-0.04788541453083858,0.04620621641155206
0.05454257383827033,0.17033931149869908,0.0490138268558544,0.015232085643196266,-0.01305568594593869,-0.029393946760232163,-0.03614079898668586,0.03935943493691952
0.05126653332198082,0.17355647163451668,0.04339682909988726,-0.001149777288035378,-0.01975860541058915,-0.03677273010313667,-0.05982986145193184,0.050152807669887105
0.05274418409265684,0.16472692555650625,0.04100028166722727,-0.003554261581576748,-0.031430200413341984,-0.051265958812068343,-0.08499355393069032,0.044596212414425504
0.04003796669741168,0.1496207674507271,0.020872838141630802,-0.028376910129476463,-0.04956539564318014,-0.06640887573704247,-0.10497284115401574,0.0925867291546444
0.04474735026790906,0.16141666325936155,0.03559338707815109,-0.01385273847442832,-0.03522672775481077,-0.05276370851502032,-0.093716998889753,0.13766144605301128
0.05941174327518024,0.16074830391509662,0.058844078079654055,0.0179604724215374,-0.010358737696870499,-0.0275844678439586,-0.029614473824152804,0.2304082148216583
0.05468753549432303,0.16382188690452296,0.059604631269696215,0.02180912951945713,-0.004076745856594082,-0.01328327374730831,-0.014665614584684189,0.23564328531762851
0.05573116846995519,0.17512758861618763,0.05971762440782008,0.01609939687439143,-0.010306520431077871,-0.021265991628716875,-0.032837340613328256,0.18738578093477634
0.05379326680616679,0.1733920856341994,0.05127099818224175,0.006012913422975899,-0.01761935672681376,-0.02750174926093786,-0.059453105531694715,0.19796831519856659
0.04392092149175658,0.14894186590198996,0.0448057858427844,-0.0020959297328767626,-0.021358310070196757,-0.04939172813287372,-0.0557784717060367,0.2009892913307954
0.06511138158271514,0.16578835114909155,0.06047751757279386,0.03330284131278058,-0.003250240181646932,-0.0018752337118143475,-0.014051671664376214,0.22647638207533322
0.061940550644496696,0.16327939325638843,0.06833785212215678,0.03886381530137759,6.077808597615133E-4,9.55932079218548E-6,0.008734916501535732,0.1978757769656836
0.06284811044758255,0.17401938570110445,0.06711343893817534,0.03508402046106921,0.003747892418856594,0.005047896503044601,-0.012751398405585247,0.19994397270843373
0.05719243989145126,0.15143760252303493,0.05805000528159027,0.014811209923827059,0.005836671895131114,-0.01279938488757175,-0.027483002772377838,0.24796304674372263
0.05744263153357942,0.1571545135228535,0.05354182703543564,0.027149854905534607,-0.012730964783462645,-0.022398830810672826,-0.032225540955146084,0.2199270508163257
0.0626625571697741,0.16136151867631754,0.07329312742601078,0.05036486844939381,0.008050108823744405,0.029328775700864767,0.024631769658756006,0.243390412939336
0.07190568282455413,0.15336531639831658,0.08388876350898151,0.05888361372292321,0.02845723101192325,0.03796196959829739,0.03354088500204676,0.2177164762593901
0.06841488535368367,0.13426120908056452,0.08326285127405483,0.05032390030584906,0.022415951830087304,0.020167411596332424,0.020768249239812638,0.20508760422344247
0.05950029096749809,0.1408775516973042,0.07577369544812738,0.03494686165665874,-0.0018716073626553879,0.003107272983129696,-0.00868395688466287,0.1424996234905948
0.0540858275791577,0.1326709411645631,0.060043990973572825,0.027326355697990426,-0.01597553332914298,-0.016220640331281504,-0.027988856546068728,0.08510302242811366
0.05132104856745395,0.1442501703528536,0.054477420921116834,0.020395422911051383,-0.0027046574284569163,-0.02005432722030361,-0.05042615321661348,0.14367450640665896
0.06401666716953061,0.15745204998568857,0.07652704830389306,0.05033123624493152,0.012415910713750571,0.01838850285758256,0.017371028221846146,0.20637024763239595
0.07303863972173023,0.16926927716369505,0.09418969059249165,0.05465048863984941,0.036288922712248296,0.04185860761670919,0.03595200633334223,0.26382672231981413
0.07135077851819648,0.16369864367395096,0.08540328546127599,0.05669755969374503,0.034571703978155774,0.04247192382170066,0.029564325418634442,0.3276240633510995
0.06483369330010816,0.15647965858979426,0.0726846410331969,0.045720593510301645,0.03328350756935201,0.012859179245533278,0.010734202282785347,0.23754216517599458
0.06881579828171733,0.15009465148622717,0.06452713786415899,0.03517164007092934,0.00836512497239642,0.002781386583081809,-0.016141578983203758,0.25824852679886795
0.04966039692432468,0.16392333704452183,0.05513812705565479,0.015530708287962547,-0.00951364292806342,-0.02090727646115125,-0.045008437132819344,0.19596190782644907
0.06577533213536003,0.12626169916891236,0.07221650964140786,0.045207643858770956,0.008346269229069999,0.008972087549239295,0.0037952812425523256,0.1928560693145121
0.06678275922889255,0.10845521836967892,0.07882442599644801,0.048365396871154036,0.03557499134824142,0.02177485714366894,0.02658324815909545,0.16211619350837503
0.05215712278342568,0.12040421534896263,0.0703441570414648,0.047122318872805685,0.011801925639442901,0.011610656660454214,0.005752286441852815,0.1365288688029315
0.053180221223712756,0.09714579879408725,0.06918955817832842,0.029409373250741975,-7.608800125779793E-4,0.006070783465792171,-0.016063759338128366,0.11290858053463945
0.045891960654573384,0.10642750724732898,0.04974966487400228,0.01377195884331089,-0.01616453698071578,-0.023714073698613565,-0.02555970465975342,0.1933907090467509
0.04648773863530736,0.11102324789593832,0.057059692028665995,0.015094814324879822,-0.010721511645720811,-0.019177082937508222,-0.04449995513817561,0.15810124586647373
0.05044883550090828,0.12782317989583003,0.07536859236601917,0.05169566573212324,0.02123351476411128,0.016279624707488453,0.022355642224356372,0.25150600321758304
0.05451270497335828,0.13420458818068384,0.07432874796530435,0.05155910555195734,0.031186080659121908,0.03068801323334597,0.03303731771661928,0.2096009589105095
0.05334060024415908,0.117336608592093,0.0684599574227252,0.04362925510827202,0.01368920933242371,0.004356325024260945,0.00983518566689851,0.20451293245184204
0.040609741083043514,0.12633618682175543,0.054624810153451046,0.024590480423797325,-0.0024380161462085864,0.0029194542269137874,-0.005542206512592745,0.1692765697749533
0.038654699896908236,0.10642748550378384,0.042508560794368155,0.004676854219230222,-0.011260225391714087,-0.021742559758088906,-0.031674950073359597,0.1636837133768767
0.029252931236381292,0.08620408735889001,0.03159753647462153,-0.013153660144771043,-0.02901864880354136,-0.04279194237226764,-0.07772353683961637,0.15256840938403043
0.04276929013901024,0.11710269408133436,0.05693951589505325,0.024902238535708894,-0.004418485934754081,-0.010602267892345677,-0.02995672068702889,0.2097238267270162
0.04791980275551994,0.12798359584840027,0.06945160693901295,0.037034420894364775,0.0051887632010920535,0.0014773070911667783,0.00526938958386953,0.2162183931331486
0.04590981415791233,0.12819816588313296,0.05932335607300177,0.028710012161518427,0.0059171657052957925,0.005919544760808734,0.0044008278761677845,0.272615595810321
0.04334017720215918,0.12609180810069628,0.053272001797092135,0.01657043377594257,-0.009790199617937558,-0.005916418131432985,-0.01564851764645419,0.283910313947589
0.03674334222202189,0.14083574504058352,0.03486920432059462,0.006838736011833664,-0.02629554242756698,-0.033028861006281246,-0.061392870448672636,0.22628540590420068
0.03239282856099527,0.14214449224773398,0.03306541384041698,-0.014049583140373821,-0.025868598342737623,-0.05002929482242914,-0.07788002078220907,0.19539787166128364
0.03533369131484118,0.1002561054002857,0.04392621433703312,0.014461622157638375,-0.017540857142032268,-0.03189032255904481,-0.04635781986487177,0.1941806791392584
0.03613784746364027,0.08728554725532259,0.05091577945632799,0.022286686262213914,-0.013133453237422644,-0.013380269049768256,-0.008522652951347147,0.14871657179875628
0.032170336746737305,0.08268580876150762,0.03922103766023423,0.01402056697703309,-0.004147546948229341,-0.01765150393559841,-0.011579952595909632,0.19988137741208856
0.028000598351576398,0.08290022827780069,0.03487923796749799,0.0020462290192789015,-0.025595359437388363,-0.03564234382854144,-0.06668427831049618,0.14966800965203358
0.029658387841019943,0.1189877194792762,0.03294980611258921,-0.012857362291197064,-0.02379481558443154,-0.042325502709695276,-0.06441316632036853,0.17102043167284248
0.03166746428427568,0.12226014932208483,0.03704475811399787,-0.004602116039644992,-0.04044409863149423,-0.05512928502367979,-0.06679920268798749,0.17645723910655897
0.03152187357343587,0.11334470075074785,0.049761437833390945,0.022915949550209383,-0.006723712462266879,-0.015853867927572873,-0.014337735904813971,0.21142136715828627
0.04147850281914654,0.12638815037615359,0.05062135107408628,0.030558705255479848,0.0045943662880461944,-7.626117847099635E-4,-0.004761481930134135,0.185457013427941
0.03522232233561298,0.12374335786992385,0.04173207809258143,0.017919169977436877,-0.003754728344116529,-0.013979586219771344,-0.03204563307305918,0.1979032576010799
0.03394885516916184,0.13478307474178994,0.04277652892431821,0.0037313274647874806,-0.014489596948732558,-0.029191123762378042,-0.04807523363661148,0.2468936641265734
0.02465167486421954,0.11496091855805857,0.030054306934976294,-0.010412001986472522,-0.0312804080440105,-0.04910342161493786,-0.0805768557351841,0.14384650260443327
0.028379551083332906,0.10825586633176704,0.02223053398280781,-0.026212540763683224,-0.057904394203024095,-0.07294849466518066,-0.1061195887301699,0.18977933968450392
0.0366843555307975,0.13426346839397812,0.04413517538004056,0.0049513642851807815,-0.021259998761773653,-0.03727718810888919,-0.03316971753618172,0.17398769177521928
0.03979687340724394,0.12545126039021873,0.05484777469055966,0.02502415264752987,-0.0012610461348910966,-0.008163911714041417,-0.018615875128238892,0.20731395840048783
0.03941353051104038,0.11412995034226246,0.05186159235018782,0.02058119024366847,-0.014360268454206432,-0.02035676414534698,-0.03190658498531786,0.20959850570239763
0.03715101419630596,0.11868917217948889,0.04198756083416419,0.00521799429421926,-0.021472227115982456,-0.029993354391791897,-0.04526565419410542,0.1919085216671407
0.025297292657651963,0.1153402397244695,0.03300202344557432,-0.006125529187964229,-0.0399318101673991,-0.047471657923012736,-0.0829426264462032,0.2037208912445829
0.024225909913700733,0.12152503582677615,0.019405049303576557,-0.03030369352507476,-0.048000479615931055,-0.0712004615785587,-0.10425291972940667,0.1433692552718473
0.029670716150183695,0.09839896603627846,0.03997676466788569,-0.011518151671410747,-0.03173113348721658,-0.05270849049982509,-0.08857981845006563,0.18008387472312115
0.03130821037864934,0.10130143170621897,0.04293185885339544,0.0017891730775094136,-0.0271131422243791,-0.019429002014591808,-0.0335676248185582,0.18161097484005065
0.03713495651928596,0.10991027791036281,0.044202113728027126,0.00163728771208985,-0.012289957362273597,-0.026923220018516235,-0.042622547913845656,0.13978893157355898
0.02778951997718502,0.0996122174507636,0.040776342423340724,-0.00546346318017675,-0.03200790140015317,-0.05016370971357047,-0.06938824800282466,0.12691196676933136
0.027676193266210743,0.11493287598711002,0.028369521383426428,-0.021836995592812963,-0.020744125270790042,-0.05234530437732311,-0.0918835639297829,0.17974512138672194
0.036644571019009,0.1229221415439303,0.03670303044457974,-0.010022700524897682,-0.01980099148791998,-0.055367979667219486,-0.0798174225345347,0.2149182327102775
0.04335041470995017,0.11339433672906353,0.051789440245075584,0.014961054964386796,-0.01217152072982778,-0.02217016843905329,-0.03602022423058898,0.22457050882060886
0.04147342325910933,0.13951841130551187,0.05522318218631757,0.01348144350071124,-0.008846403711817594,-0.011722983035493559,-0.01722715311795171,0.19742131615172365
0.03378648122606859,0.15805949567158728,0.04957292109671897,0.0014469984069034802,-0.003820557690211219,-0.023033144888281152,-0.05004348351781154,0.22823439819902513
0.03676094447344704,0.13413926379545524,0.03580777777790085,-0.014962161997144103,-0.018620719425789727,-0.0329025281977707,-0.07204726446844542,0.24412262136742638
0.03327382888109924,0.10949652172265079,0.0243684317061664,-0.03164466695805315,-0.044461907800297934,-0.05565441230309387,-0.0927308679285596,0.14857840177761342
0.043336967829579305,0.1247595914994547,0.05026446891020802,0.00907131568281385,-0.019980918922253378,-0.02997925216164842,-0.053469513471506365,0.17962156110305366
0.045045572757037355,0.12820387189877971,0.062016281190168235,0.020359767342563503,0.0030354375304350195,-0.008990482660597583,-0.01892272171709181,0.1217882667708769
0.04111134280532418,0.1267046486000022,0.05857365428403266,0.01671379761853001,0.009029662676973511,-0.01325641735802188,-0.030058976390146493,0.13037098943157435
0.04118928539909185,0.11742138646748385,0.04944249010289628,0.001097727408119239,-0.01665742205747004,-0.015318075099491669,-0.03874388054841325,0.14838094215460776
0.03648106078992232,0.10366005286748115,0.036774778180716616,-0.012789663051344862,-0.01569585794610776,-0.03172119159783126,-0.07035940713246541,0.18019388825159732
0.03954476576646606,0.12474993002796429,0.03619286737498339,-0.02427989852096192,-0.030482606469726756,-0.044585353212090645,-0.09262978443735591,0.2002616921049979
0.04605133712871505,0.12867871653687518,0.051686297405089045,0.015038326305287675,-0.01135612851679461,-0.022199800474172447,-0.047671691862396434,0.23343786956967877
0.05597757373253584,0.13012512599368167,0.06573404111631705,0.025302895962540217,0.001500100668650142,-0.0041343506160561065,-0.011720527169644356,0.20783904078358678
0.054800782952249286,0.14151255912104427,0.06213192496618161,0.022895285535697855,0.005083932386762533,0.0070942430604132795,-0.012388212441597896,0.2084044494171215
0.04467785369946165,0.11234129502654708,0.048256231020367434,0.0030663616555890575,-0.005399502888841683,-0.005917307790354683,-0.04817629810331356,0.14195458679490397
0.04086893664105017,0.10772355246757,0.040990449406734256,-0.012807057942719809,-0.01501285497656769,-0.02940311551946409,-0.06689434867481944,0.1356904054139913
0.027719306955144622,0.09776789863931895,0.02672430430844445,-0.027985434708953465,-0.04328634848708319,-0.05186742126794278,-0.09405571243248234,0.13165778576930182
0.042056505080079735,0.1326537309892277,0.05158217624794811,0.015234214225650123,-0.013745224953124701,-0.02714768244639982,-0.046252115821792526,0.1341416744257361
0.04224076800842518,0.1097409296382338,0.0553514057659594,0.016502370340609217,-0.014835323896528908,-0.017195069365463556,-0.015784247791229614,0.13737411197502467
0.044974035509981,0.13251166620991886,0.058983732392256606,0.012789745430771084,-0.005428061899199308,-0.011301531389768174,-0.028652977601888653,0.1406154537765033
0.03634119153990375,0.11805986213015963,0.04563007155995935,0.00853613880284918,-0.019297400946611722,-0.03398792067026583,-0.0427232236455055,0.21385706990827863
0.0360094646944692,0.13973716017567375,0.04365332708514637,-0.004224303900251983,-0.018817123753155366,-0.020213529722808484,-0.06236606776651664,0.22952988843144906
0.04814972156752814,0.11989702052640536,0.05701347761995058,0.0323486716348956,2.710128277759235E-4,9.024870059102547E-4,-0.008853736132034622,0.2009985996562923
0.053360883055711336,0.13286486393001223,0.06571217031509664,0.03870632104653676,-0.004995268457938639,0.01831896721567021,-0.002534965801997899,0.19158260036090485
0.04787617209965534,0.12056184607438658,0.0630433136881616,0.02968774731106979,0.0024372152425097037,0.006174789101997642,-0.019646545908875893,0.20328121467272348
0.04112817456772465,0.1106841407276077,0.04635680854534524,0.014085462625339166,-0.003067017846481416,-0.01271514968977297,-0.0376232273034545,0.21965864754328943
0.045437184205225835,0.11430846153982127,0.0471244722510073,0.01026097797886645,-0.013527963099566406,-0.029558872673433177,-0.06146714456823253,0.15474591302027285
0.051053319221950846,0.11501637468014886,0.05967879859220386,0.050354059724604903,-0.012057091873760643,0.01762144248266983,-0.0022034828292148752,0.13781944828215575
0.052181607169919236,0.11033413780724975,0.07051878225485878,0.05632453879252475,0.0167584225586451,0.02151013639568614,0.02061106836184474,0.1531859938399718
0.05282071685203342,0.09393300206130997,0.06861910248748736,0.05087665683185185,0.016062512816439813,0.02779068739675514,0.012106573613644306,0.163763955302655
0.04635178125827193,0.09730561437378271,0.05779364402417045,0.04234245722496072,0.004470886192991752,0.003795624023855736,-0.01310594483259346,0.16076758426324292
0.04532184612892683,0.13071719204014895,0.05254401210342982,0.02751161579754959,-0.011980414194386191,-0.004291567471362156,-0.04929418720173094,0.22097993673527305
0.04076939259190261,0.1358591317622411,0.041371840353166996,0.004814952320657072,-0.014969430373372936,-0.030966392876652253,-0.06861115761739868,0.20158107525089386
0.05003568553350782,0.15385577588140914,0.057178647226034676,0.03581221803345238,0.001775052879799894,-0.004616316465240451,-0.030885760652130282,0.24332345099582087
0.05810003374204834,0.1516254080534073,0.07254148506118828,0.058071835266669265,0.02020368263109367,0.02332658858006892,0.017071025950860977,0.2622822148723536
0.05835675466267677,0.15525734076973827,0.07657688264383561,0.05638220192549838,0.020181212128789823,0.03110121637112591,0.020215456486925604,0.2319549854734848
0.053788007380015206,0.1420796911800006,0.06550289206288154,0.035467816225708965,-0.005392210131405932,0.006820879214710904,4.6078054242341265E-5,0.23056900360178328
0.04547593512971815,0.11735228725834916,0.050541998345760675,0.02736963041356913,-0.0028798479705613063,-0.006549803902445496,-0.03915605566108364,0.20269676883062904
0.04180646422717967,0.1251314643646514,0.038433393683984546,0.01300345264178775,-0.007829775596948276,-0.0335386618215385,-0.057120446524285585,0.22376689708106584
0.043228563584781776,0.11988157261767382,0.06200375460726801,0.03328161026894952,-0.0019580796872996527,0.006989074266655268,-0.032809962983736514,0.23177925910135047
0.05087619669558007,0.11223863369000336,0.0695832070615084,0.05032530188206082,0.016972955124102698,0.027265546170674806,0.01906405201131986,0.2213016570648114
0.05746125783028685,0.1153105853937152,0.07553544636344697,0.043002634987129654,0.009613369328496615,0.013498132047381806,0.02213153693009538,0.21585678032912445
0.04642680363186827,0.09955200672987095,0.05957273021508368,0.03457013119436392,0.003730878403845556,0.015043165012256296,-0.006296779558640176,0.23018661845271307
0.038094849407180026,0.0960187493836826,0.04692262126727156,0.018464067277532817,-0.0037998780289513717,-0.004118039235605933,-0.03175783683409621,0.24210622821969086
0.03292492103480112,0.12670709867931357,0.041748502363197534,0.004721446620027934,-0.00899157919460912,-0.024545283805959196,-0.053011090944016806,0.24970443137481127
0.042841299900104234,0.1226543749263816,0.047081692530654154,0.017901354626915434,-0.0030509043732516927,-0.007403503001873887,-0.035380540880522504,0.172428044257207
0.054057161959817995,0.13467815702644362,0.06457227071536062,0.03871576428403215,-0.004489332853625911,0.012736431192506193,0.0051507278078467,0.21370906179619925
0.04637877702508693,0.11602617320809834,0.05553047161747531,0.031406740620012245,0.004491440365986045,0.0075223174033412,-0.0013053441832166744,0.21159175071339514
0.04003632205556998,0.12660244256333952,0.05014008431374729,0.018650773409697383,-1.708479384956189E-4,0.007117686436288141,-0.02212772607041647,0.20070331301028368
0.04020251517859251,0.13624980457875308,0.04639459441597688,7.405689822645185E-4,-0.004757272291856591,-0.019159837579458026,-0.042023139528352633,0.2105914095015285
0.04483401716540002,0.13895714006902654,0.062059932065733,0.026756459289163002,-0.0019681891819591803,0.00555556842338016,-0.001555576091821029,0.2304332063416611
0.05173947595088197,0.11622010906225401,0.06252231747785535,0.04534633275125381,0.017082601470532893,0.028829676672714466,0.02320104783377046,0.21439449890789958
0.04784084364762682,0.11400889836607087,0.0685783311617368,0.042169933479317676,0.02068939285693403,0.030034516691499778,0.02899437301238089,0.21051641841529714
0.04950606400317337,0.11847995351897429,0.05985456095862429,0.02013061536308289,0.00934919031379222,0.01723310564299888,-0.00490392329658304,0.20832777306744485
0.045815604367219834,0.1337697844961186,0.046794983897630205,0.00555342520062883,-0.005034110728540022,-9.181436200164442E-4,-0.02127786506597602,0.21093881221124275
0.04621623988491319,0.1342915993511172,0.035497784840012064,-0.007908644247286732,-0.018067247288525434,-0.011041621129810105,-0.05501086429928569,0.23335994229206766
0.03898184358948826,0.1264961630304002,0.052584564651518825,0.020275350314403043,-0.0064235735667481884,0.0064268008605956155,-0.015694605733964417,0.2199631428816292
0.0482213794215565,0.11885137554111519,0.06465317221441615,0.0372869468506566,0.019318959939305665,0.029479268812175156,0.03470899865074828,0.2682495940070789
0.05780248464624182,0.11320093416676895,0.06588898130146627,0.035556987100264816,0.01788795066647042,0.03833148764057527,0.029083881908987426,0.20219812815305513
0.04470449297254524,0.10007284835312448,0.04945952460219962,0.021296354656182286,0.007835440525970691,0.019482322400892746,0.010522513092034717,0.2014617877552145
0.04511645330186359,0.11282878673312269,0.04208405229266716,0.009383174162527458,-0.006441518205394379,3.6107835425921476E-4,-0.006944815539818405,0.17281948599290775
0.041325416515381554,0.11642508459377589,0.03360036325823798,-0.007022022615644849,-0.020060412547421996,-0.01787500953470014,-0.044812307732318,0.17554182354146808
0.03886897640232222,0.10543970136510578,0.03301266292256294,-0.017746326633356173,-0.026187337385083047,-0.028783576943915107,-0.0697718511700243,0.1490810428877564
0.04649436547621043,0.1352918608531288,0.05713009825954195,0.020462008106787694,0.002875575560469443,0.004182299811510301,0.006467412653626331,0.13209082098187944
0.05563093956922081,0.16251200513208183,0.06242126944822321,0.030337772957106088,0.01063305206686262,0.008174431994983787,0.02360586945473597,0.3270559916797606
0.057194829137523065,0.15735556193093653,0.06145858441553931,0.023028791110260932,0.011226312037058874,0.015699120685164665,0.030634957889660273,0.26659830443441673
0.04392034940103946,0.14472459663382745,0.05130314453288169,0.004595659909112357,0.0057412391175418655,0.0048255081190529975,-0.017901544750397444,0.3004252710392034
0.03989567124938834,0.13287739726802658,0.035919580439293414,-0.017730305044375595,7.034333197455518E-4,-0.018507556026568457,-0.0492187954870683,0.20435631816283797
0.03933252037878261,0.15363194164428084,0.03078204123907714,-0.02245192560354726,-0.02493114722322208,-0.030523092243434493,-0.085844969087461,0.18112080418701734
0.05394172926201921,0.11567028858380049,0.05041849970449085,0.005280588228547793,-0.015690475514898904,-0.009251131926476003,-0.02557510028384383,0.1380708724465155
0.04390749861844902,0.08893271742820212,0.04284752424017259,0.014661178987474207,-1.3454800084123004E-4,4.0092222278687896E-4,-0.010347494508824502,0.12130229338649161
0.03919784348752797,0.06721869948553638,0.046813610972874065,0.006689546873761623,0.004797967921272864,0.001359994499680885,-0.020197397944109467,0.10512615955172276
0.038069312551379436,0.05967582413072284,0.033117464726278634,-0.006684320991651673,0.004079634619365664,-0.017676492784220236,-0.04493804831310753,0.17176986753058637
0.029655935322831374,0.07130561158600732,0.023058011607948133,-0.020145912899025776,-0.018093473495271593,-0.029236143718217287,-0.058117375558194476,0.11588012178813416
0.03525995785557379,0.07375161993421152,0.03724274223009973,0.005409690436520072,-0.01538092647328462,0.005246230793906341,-0.015112897432072116,0.1977331419708004
0.044452339704898904,0.08215454061391256,0.05629295330909486,0.029610169860661933,-0.0015979128610883958,0.014043427658958794,0.025863282861170577,0.12279725599060735
0.05344787104991701,0.11102211489980812,0.060583954815738264,0.033571171733938865,0.016450377471088854,0.019734659169721135,0.016078555611006875,0.2347946797541123
0.05207931440250917,0.12946695277327155,0.056743834434326776,0.01830464859289129,0.022142107535031527,0.02053969243865913,-0.007317083657519451,0.25902008699908685
0.04121419830375686,0.126076341631848,0.044074228362563264,0.0016400100746656095,-0.007669637335644158,0.001097557143070309,-0.020178082347230814,0.2063295096855399
0.04099148560258815,0.14086844249067068,0.028241138565305596,-0.012248037016703583,-0.02533833543298969,-0.014959023100526221,-0.06509526980884006,0.22428293812392402
0.036135402533285885,0.1636018051208625,0.026786215230084898,-0.007459033391631831,-0.03963375338890864,-0.029967426764888658,-0.06341951779349118,0.25707342455552495
0.053259205173215675,0.1668952050036872,0.05312953991418824,0.03512510669822051,-0.002273707279374077,0.00913525063474871,-0.012154895591839444,0.2171441818877427
0.048878804525337965,0.14970843381901588,0.06307810637590631,0.038037291632801125,0.012211980285750339,0.02396449156536102,0.011397604677109256,0.2478497973134291
0.042519278311082966,0.11585808623118082,0.05312395322659301,0.026432274264376013,0.010209058742945344,0.01080841860064587,-0.0031552133452690282,0.213398336235471
0.05045810589887754,0.14502501144233407,0.05150253410692945,0.02000675963927717,-0.0017372155355990916,0.004290678524803993,-0.01704939778357381,0.22600269734212017
0.044134723697710244,0.15784573435047794,0.03840122064178654,0.0036840311156339824,-0.014871215110413723,-0.014150921369861125,-0.04270987956568191,0.26321687313562825
0.04142563253331697,0.1295557466584367,0.031719018375274195,-0.02070146337832706,-0.026216021167667875,-0.0301331165640688,-0.0755877445720608,0.21352022812278615
0.04166660403434111,0.09227267700998967,0.039697171669182664,0.007058866897665203,-0.017853295416744203,-0.023420065660371612,-0.04601279534324834,0.15015592617094561
0.04488344471526825,0.1184309388392742,0.0541974423829915,0.032634703081803,0.003641016456097436,0.015087616622849475,-0.013975919949900837,0.13107419653287689
0.04160701698820074,0.12495581756497866,0.060222698791748686,0.02996271716247087,5.742274355131066E-4,0.013139128526118857,0.007093308491154401,0.15062482412316341
0.05522428263766427,0.12351649909434882,0.0518113529892732,0.013746167347344043,-0.005382003527892774,0.0034752773798304927,-0.003538512328445747,0.1554245258077211
0.04521689983635678,0.15758124652250982,0.04004441329989781,0.010024056381760531,-0.014221821839478458,-0.013388450344012797,-0.035119277465755286,0.18274480626588255
0.03895162287631521,0.16205471772124005,0.030154671198868672,-0.008693213745520637,-0.02681518957613875,-0.025928038759691203,-0.07260063499485826,0.22120282983147366
0.05088804018286108,0.19078541021783002,0.058001211054912155,0.02845065231817519,-0.011897556151417063,-0.00756444757472189,-0.02562296422050913,0.21855138576381583
0.055542286756075754,0.19845981080484462,0.07042043369293571,0.04887861438260534,0.008772367552101215,0.030294626691883177,0.013873589565033203,0.2360788062070764
0.059321412286019844,0.23781450664435946,0.06674375990999463,0.04629513289576195,0.010522144778832369,0.029569285507183282,0.016481704929466313,0.2419077157643449
0.062232845249777895,0.2358443650522345,0.0768628215737032,0.029269511162193132,0.005643469104800043,0.012337648270830883,0.0015847531943795695,0.28186272294933307
0.053589044262301024,0.23148259774912128,0.05519269691372443,0.01396541555183915,-0.005313153798102864,0.011938858002378344,-0.008083517868407629,0.22919698186090542
0.05074397296166067,0.2430079617428466,0.053565274770636453,-1.4969346584633135E-4,-0.014944086606763513,-0.0123808664325647,-0.03713198199320943,0.20764914926696557
0.05440182188832481,0.2227745281240484,0.06377877727763348,0.027305394601425427,-0.029492499104696833,-0.008859306947494655,-0.017217019411167597,0.22031570920934232
0.05909759476669655,0.22828207624589578,0.08097531909468812,0.04899830389322042,0.01645281539030418,0.034702554075781857,0.026542925610650824,0.26506615782555093
0.054459781724117196,0.20083142328406822,0.08329463961621777,0.044588430352465715,0.028845881346373725,0.04070953930167248,0.03839355319807644,0.3345854550278329
0.051344835452933585,0.1909795166496088,0.06565923323508849,0.03271955833798146,0.022091475298337854,0.021104789439015587,-2.3137999315036087E-4,0.2789738197694195
0.0552753551834932,0.18889673051905614,0.06397105730765558,0.01297545356784574,0.00503013131847476,0.013356835983368037,-0.007923740268875969,0.25580298539429674
0.05141557933914985,0.18084459506015035,0.052632635553902435,-7.912256572267708E-4,-0.013352120120446273,-0.005324238756160783,-0.04132078947997636,0.19454302986779753
0.058328293448312314,0.20177361491208962,0.07562321066208831,0.0409011650347432,-1.025844976679513E-4,0.03450136850992118,0.010442154397380176,0.12427929595039654
0.0602831751574676,0.213739365104244,0.08548937316661404,0.04578430949382695,0.00670173441104723,0.046918153965918474,0.04315186826786533,0.1612973289260158
0.05810286862202174,0.229875462088451,0.07752008564452378,0.042350664849761445,0.01526915650713391,0.03176972876445139,0.029541197780255282,0.15922330489759867
0.06350459401591965,0.2303383412940743,0.07223012248662813,0.042686969546805696,0.0017618657282474554,0.02844677524131459,0.009134632806570016,0.19775900106566932
0.06157545748375473,0.25037059739189194,0.06308938002924655,0.020389576442820398,-0.01771047879502584,0.008230067529105857,-0.011070461009941742,0.26162600344827003
0.06544942871734814,0.2706177854953539,0.08439899138016058,0.03439858583465992,0.00406722551966293,0.031708855373412025,0.020191721388434378,0.3270688375765871
0.0665093515175646,0.26497501782826266,0.10323979014524574,0.05815195234143715,0.027669417688881266,0.0671360331823529,0.07503341372088566,0.3859692055270784
0.07115211947563677,0.2614225670954743,0.09880188195238757,0.061190407474992305,0.05049667128759228,0.08370220500412824,0.07827667217820988,0.5347704583392937
0.07308435733406406,0.22963331569247897,0.09430734444404157,0.05796440583732715,0.029541991982696785,0.05855252902758225,0.05423035721257567,0.4688689741893889
0.0679168494308341,0.24884409648843808,0.08179567670310053,0.04004687302677881,0.018369678126036855,0.03432029993336465,0.014221015181356544,0.3674109588516806
0.06686781793306043,0.25318164870551657,0.07740022041303472,0.026924759653212546,-3.062161867652357E-5,0.008752575592768147,-0.015899204389508287,0.30962247238457846
0.0531995863215809,0.2326784400725906,0.06593331191997721,0.012609572741035538,-0.029273881198270145,0.0012014298955225818,-0.039783313353533696,0.29006386468860346
0.0683881726014443,0.2583807239562685,0.0903555140984505,0.05073682607306787,-0.0039592456087864155,0.029158794372216912,0.03481417383363415,0.3372528754177474
0.07558877682345277,0.2575498608062534,0.09351620536919428,0.057476651137102576,0.02948180408863024,0.05948095986344701,0.05634700767929596,0.3480198271800958
0.07075458744412032,0.26213857727632417,0.09335085738766666,0.048292276419360826,0.026814795648562303,0.05000849623371684,0.05434864413508757,0.356924852140579
0.06716444982331685,0.2729120548255369,0.08860533050156885,0.03939175906300702,0.011948703941317695,0.03361556170377247,0.04090527487831925,0.3828585791474617
0.06786005887223301,0.2507366931448769,0.08022470766817993,0.0313689203640503,-0.004895605959160577,0.017307717999919606,0.004075255381601545,0.3564968237002189
0.07601859573221093,0.243179081822888,0.09825197228411563,0.06147767682606181,0.021406403915205763,0.05242270332981002,0.04414511172304396,0.30230209412366116
0.07300249266197013,0.24329512534778625,0.10140252964717544,0.06422922939850619,0.008684827375261392,0.055095348131212085,0.06661343415859892,0.32003174481745233
0.07132119471807537,0.24656862093099713,0.09867572509972515,0.055029164259473615,0.00807931999976646,0.05268641026360944,0.06241504144289609,0.3411791429669684
0.06670791760389466,0.25277569217197615,0.08516663765848628,0.044411467948570066,0.005959033655466447,0.03015164426202812,0.021333192506204114,0.3235231776508338
0.06597876186823942,0.24444703427977055,0.07294785520439492,0.024037745710847026,-0.013414774394109878,0.020494519749157104,0.0016146856583890406,0.25036297566331883
0.05971063704798604,0.23214032605504242,0.0668930816361516,0.014006830748865584,-0.017941154617702793,-0.002171605238878247,-0.025680741935952614,0.26761281055232844
0.07361549192496963,0.25625276275029785,0.09348639393678497,0.058719782985882985,0.014481799812262048,0.04358734675684851,0.06101340631833094,0.3355116164579445
0.07005052418594925,0.2519069890179947,0.10104585349954942,0.06735929031608279,0.021727759078558676,0.051595391133586,0.07401656790728771,0.3356625937594857
0.07323935764790239,0.2538724863982918,0.08908397240633056,0.0678924595210908,0.021234904687497846,0.05455112407269246,0.05997511612242788,0.2893061517867214
0.06306969073124473,0.24611981001983343,0.07997644508720025,0.04526528530150699,0.0036474499943800216,0.03968135781717105,0.029609555635370707,0.21427432121804005
0.06119854493448064,0.23797851597243908,0.06585798809652699,0.01900513538810412,-0.013528701529269074,0.02961048425360919,0.007493316009288957,0.2564370637278075
0.05234564649594096,0.2212074578036556,0.050514039084935076,0.004015511959713027,-0.024953074344310162,-0.005855371136529652,-0.017034235504678294,0.26377083574277305
0.0553709672252601,0.20022919871859307,0.0613944392588794,0.020297599688674707,-0.01845536811211523,0.012020547036089135,-0.01195465358494627,0.2015775303222333
0.06036568560740572,0.212427859484072,0.08226308360873341,0.04606137053413704,-0.006961144391903939,0.03817812225648736,0.0420824567747172,0.23799275756221167
0.061664798568669056,0.21363169495601905,0.0704175688425728,0.0458281381631212,0.0011261489991524817,0.04710765559775211,0.04313280604780343,0.25723878638937986
0.061594156640220735,0.20226868870780945,0.06803108820266471,0.03364099920011619,0.0038138244352009425,0.042249266127666614,0.03471193001424256,0.29592490099798346
0.05856367251417695,0.22325599296647147,0.05686522163498543,0.018291171744360773,-0.01045446350036339,0.011417382431584628,0.011148587554258144,0.3539034122446727
0.05151392323833645,0.21145199907373743,0.04303785863650071,-0.004182047879572013,-0.029381787388488706,-0.007510001561797658,-0.01378825226567574,0.34930055907478313
0.0587720868124654,0.22155779130499634,0.06263339408989746,0.03634050255720312,-0.0033683594740175895,0.026927070093540846,0.016780584847956928,0.3436029255489488
0.05777617749800475,0.21397741461765712,0.07614364934138707,0.04462114159279616,0.023523134561599608,0.04435362445031099,0.03989098915162822,0.31187458676843954
0.05872766086773063,0.21967294172706814,0.07366356131313954,0.034137582932807546,-1.4046617371655558E-4,0.03783795797097626,0.035933931767181536,0.28480868066077564
0.0598059655205055,0.23375939306170135,0.06049535337005797,0.01816621415052565,-0.00338569224962151,0.02481844525751628,0.012925808260858903,0.26271710765940776
0.0459778092993229,0.23636180467418955,0.054771176127278165,0.00809076003853956,-0.02319905176741515,-0.002083684202308073,-0.009884192995175413,0.2682973771392245
0.045393161447001756,0.22989823121759081,0.0400499614828577,-0.009906205435228453,-0.03900978938389445,-0.018150240159789797,-0.04798884062203628,0.29941757198052266
0.03816733103353402,0.23052692851549966,0.042280064391361005,-0.011206030078766683,-0.02801937654807227,-0.0169006920692535,-0.047167333042674314,0.2578774772671747
0.0542129319867969,0.2462201220168593,0.05939363954948822,0.027192804200528442,-0.0037304020467263032,0.02337251614494313,0.010541025254715314,0.3112718426070825
0.054608784749701586,0.25120817387708694,0.060525038367912946,0.025894513891537324,0.003455634130353281,0.016436017810918753,0.02313680250038006,0.32957384961950786
0.04615556082152622,0.22433888884119108,0.05288157856105439,0.015916150329773823,-0.008309241195846478,0.01774825932589283,-0.006883405608344309,0.3083978207053014
0.042226531421911566,0.20148006975953303,0.0475828374661625,0.002861146054879878,-0.027017375096229264,-0.002709190009657082,-0.028992155219526337,0.3138846660054341
0.03980334526251848,0.19953684064424182,0.03719589535409071,-0.018200190578894212,-0.031245717016395166,-0.025932339545920433,-0.05664356361968157,0.23782062707732435
0.03313400964468721,0.24037889359242814,0.017582706443361785,-0.034878296161834445,-0.05442652146933057,-0.045941585611948846,-0.08473752375657498,0.24005952580083223
0.0371327225560365,0.2372787651520751,0.0368786933602153,-0.009741838368855948,-0.04405412129241484,-0.023063445728445365,-0.051854731382571156,0.24002259077983268
0.04268991106500633,0.22130631270369838,0.05538734450216888,0.007246795459068525,-0.027645905695471894,-0.0143870618699229,-0.011338831074342488,0.23099383112180605
0.04234307319130977,0.2324643511512257,0.039882885572928455,0.003912446049254207,-0.011885008564087486,5.915735677479612E-4,-0.008706002047045816,0.28696767637894566
0.03540393878949455,0.22278262217839234,0.03602772664669147,-0.011249045456106294,-0.031289422700629836,-0.014483592481952526,-0.02629515564182165,0.2762254794352467
0.040081818293148025,0.23252761755507426,0.026656877051965972,-0.023542417365797378,-0.030681801741118703,-0.026771263951670187,-0.042834461154520234,0.3349299524154332
0.030199888028671407,0.2381001298741149,0.01929647544103874,-0.0362247028193316,-0.043933643113809484,-0.03959068144916143,-0.07903406066765087,0.3410144217402568
0.029951165059570815,0.24783131751659498,0.025200947934567203,-0.027223200870082696,-0.046460107855416516,-0.03666583810122308,-0.06815690003992646,0.2677084925842624
0.03707499873085084,0.24451749231413,0.04761721485153688,-0.0029127683993286184,-0.023314604925125694,0.003531777535123931,-0.0026804192171484068,0.23014819201545547
0.040427823853699425,0.23163224561730286,0.04664461603866929,-0.005107882482268525,-0.02526706907901173,0.0013391688533384155,-0.01223137694816771,0.2675908591937006
0.04253593224017691,0.2404449488087862,0.04107325626685917,-0.0040303302277864125,-0.030530018528362665,-0.002416268981675535,-0.021159503084305743,0.32216627805759956
0.04384735804299715,0.2299485034033006,0.03093825648720147,-0.016077989533936306,-0.021387600070963932,-0.028423333743209617,-0.04296611948812136,0.3203854915538368
0.03174559353856691,0.22634596078730987,0.02640758594205978,-0.03541372438235932,-0.041583696757847025,-0.020934045369783008,-0.06051536233717206,0.2774436837785064
0.027132272352023624,0.2519296917333228,0.01912823185341872,-0.04605676908470774,-0.04672976788538527,-0.052458348987713774,-0.0849763009905165,0.24131012309170424
0.03290987695883591,0.254921022761826,0.03726716352279337,-0.03191418905374359,-0.04012032729084397,-0.03771159769076672,-0.04767870102032,0.22696035622448962
0.03870867573140773,0.24168010084182298,0.04786062654551384,-1.8490715755833075E-4,-0.025850925290448468,9.613031307954545E-4,0.014305795934717903,0.26659271240511984
0.04363767265821997,0.24831877578454192,0.05377489948744482,-0.0016414316774809486,-0.004714985664393169,0.004277677841697343,9.653785048901881E-4,0.28378754979099885
0.042183827413294,0.21371978677202608,0.042179530619448936,-0.01727864840596216,-0.01244027579424043,-0.008255627230558487,-0.020038958841056248,0.22959996775276342
0.03621036925879017,0.20164149322269678,0.03689521258380362,-0.01946436031957975,-0.031134130889878122,-0.018099243007749698,-0.03506809977178856,0.22972594913095068
0.03983400116001182,0.1871913456660253,0.032129623465411844,-0.03418568618426206,-0.04798309444676037,-0.038716127944262685,-0.07402726981280983,0.2267136168659178
0.03170673562319887,0.16087790680683386,0.027027736685018008,-0.02721043772668439,-0.05173944131673957,-0.02623593366994654,-0.054835014088988804,0.16648794863753644
0.04147364036450177,0.1661836452789472,0.045468231355256614,-0.001871840674374941,-0.011980424311543891,0.00916486265834901,0.0011075274082005225,0.2184869128039428
0.042031422827499595,0.20209000898399937,0.045320496650266336,-0.0042911177702128125,0.005740333753962813,0.02457170249391932,0.02267852819925939,0.25965016305232835
0.03885045594056222,0.1848333201540145,0.046953808217182494,-0.008384117056839824,0.012441974700434129,0.023120784947973847,0.008023123678686277,0.24934388188695567
0.031243059589643147,0.18047173555464704,0.036937553150183884,-0.024325006871335743,-0.00742856804487209,-0.007006535400735838,-0.024804670273279844,0.24394915311315282
0.030034565509139757,0.18318418534316905,0.03969995481616108,-0.022332546002842152,-0.025690959165076452,-0.0173060022355597,-0.04602912672078601,0.2864378765057696
0.05526677034890099,0.17987651983987496,0.055793615717156284,0.006221085879859813,0.004888876729361006,0.03989730552291266,0.030384284352201613,0.2776347372338981
0.052382913343512985,0.18252953494012053,0.06558999620769419,0.020484237712116538,0.014861784408302239,0.03711975508074828,0.04409020463157867,0.2988959690888242
0.05116430893389084,0.1489771041369421,0.05533561741581245,0.009997696213821005,-0.003468469414171749,0.030254056893029832,0.02083362883457035,0.1831737803095389
0.04717957354276592,0.1657623717601476,0.054372020313650175,-0.0029113784341473214,-0.01858958144705332,-9.039536385439702E-4,-0.011109990983089586,0.19597030933946707
0.05307348347857282,0.1784879567751945,0.05438442483925382,0.0035215130035541973,-0.010588076780201367,0.018488737088622923,0.00576119181698412,0.24124170443090626
0.05981973790288554,0.1801606719666291,0.07446573909695123,0.03452900584981767,0.010697424679112113,0.04235301033246003,0.04817735538973121,0.2311870423464324
0.0665010313679188,0.17078075979204033,0.0807874312231084,0.03176623788480984,0.015937317395259894,0.04311118447719045,0.0529201276661912,0.2189784852677844
0.06497620741533112,0.18599996468300364,0.07496560106803378,0.024827389282299536,0.00992477537985966,0.035515525668806364,0.02502232076308332,0.21253117737908878
0.06234842195977629,0.19447351301511887,0.06061399925551204,0.012818811447036844,0.0026153237729293743,0.014873722438613634,-0.0057954514061928294,0.2975567038592673
0.06340562257789234,0.1882998060102702,0.08353516986735346,0.025060837592871876,-0.004341719611762955,0.0320725002609152,0.02122801667659756,0.29570397640016405
0.07008102031315812,0.19936418583734716,0.0887627643170815,0.042877371388382365,0.0025097477938049867,0.04342058065002862,0.047705186194648655,0.27417394617460505
0.07081526285533091,0.17886057219934906,0.08146363931449879,0.046006040057045505,0.0071888363306844985,0.04733309397678611,0.05544459863191117,0.2404170239365201
0.07066671727802257,0.19494170144585093,0.07615644060163221,0.0356818564846961,0.006286964635828246,0.03820615564129689,0.03341794633755742,0.2955901556301705
0.06746539772194665,0.2079492896621737,0.07372671872231737,0.017561346309255422,-0.00978952104806579,0.026551208324320688,-0.0013217761814963615,0.25194995898937583
0.0572749022121926,0.21460060619488885,0.06585878345014673,0.006465456251418486,-0.01207295199461032,-0.0025653602618700404,-0.02684424424188632,0.3025819235083673
0.055595419528508744,0.21886937604556003,0.055784876738111014,-0.019505464729322467,-0.03970230252442559,-0.012822171993164742,-0.05574452949800114,0.29439395642228516
0.06264860970270589,0.2181065045282719,0.0770185041173608,0.021908009214844083,-0.00897882402158566,0.005476305126077756,-0.002363065485739115,0.2239152276730674
0.07178756640023226,0.22104375945332552,0.0832221845935459,0.020038021453705646,0.00279700399726171,0.029072890970252528,0.030151050229684416,0.2770577092419613
0.07394369890299116,0.2369861846263104,0.07749641867846667,0.02290356095398015,0.007700350235092756,0.020809293926063684,0.007366181780344804,0.32755136144265684
0.06838493424647908,0.22403759579420854,0.0788812880839571,-0.0021600605105933507,-0.010253189881267815,0.012463287264520766,-0.007725672682771571,0.2914237005734128
0.05541236723289472,0.2119246386627247,0.05934279787835195,-0.012483625048356609,-0.016186708577634823,-0.017000664159027873,-0.031233151200133324,0.2776753360273222
0.05137807546919507,0.21827086396015952,0.050377206985811745,-0.02016592724495922,-0.0484017830576981,-0.03358034527824147,-0.05432226843406558,0.2613376352229819
0.062256547611609064,0.22285408545770394,0.07007326322128907,0.022797543804953416,-0.016628083140165225,0.0022386031112242334,0.001695791986520638,0.31307118807048706
0.06741996520679602,0.2219988783929471,0.07726703317325172,0.027894236075828954,4.5928510350781195E-4,0.018506854798706087,0.015863764334904558,0.27549514371515804
0.06288717825653348,0.21143782544978124,0.06882975393828539,0.02135144310209913,-0.013903936299366596,0.005087036112003385,0.006299182611024131,0.1912402373749566
0.06014529039946034,0.21340401613300328,0.06025276660949533,0.0071428026485625545,-0.034951227762485215,0.004237050168013869,-0.029523745955571508,0.2528894605791642
0.05338480802497721,0.18331440492846074,0.0538985282424352,-0.012337166433159082,-0.026854164565469053,-0.01948080003802462,-0.04836441742009363,0.2245984931266578
0.04943086702915613,0.20935343544552934,0.043569496007191004,-0.022590238439244605,-0.03736448004797378,-0.04712946158352811,-0.06853429408194371,0.24534521482049926
0.05605703303573191,0.21504429166069516,0.05529213116811656,-0.021468485873200792,-0.0392721714713572,-0.03557460331715381,-0.060717841095926116,0.27915224630956015
0.06592441297451614,0.22935078073939835,0.06561055405900944,0.01435176980451179,-0.020413848188864964,-0.0038133445970949392,-0.009579769592500856,0.24225144460098424
0.07066394892576826,0.2541130086936896,0.06836261675385098,0.016362735729503017,-0.009107371192775906,-0.005586941315480699,0.0030401233067693517,0.2284513707102993
0.06574343437407314,0.26370794804070924,0.06408742242518439,0.0052862424347118395,-0.029130100076731256,-0.02155140065282104,-0.017020150176930413,0.15790951082904917
0.06376154005954138,0.24364925594335068,0.03954911002796251,-0.01525294224175338,-0.026247360107889778,-0.027037348335992556,-0.0419840924711177,0.21491003501584358
0.05408585207960827,0.23854334279248252,0.04556655838607874,-0.02685194009501731,-0.04483093992415446,-0.04427389533965049,-0.0750488463686193,0.24861920255274578
0.05111204478268526,0.24675422724294363,0.03131760343945878,-0.04187764630195929,-0.054250977997717456,-0.06866598198327614,-0.10320129493511426,0.2262797856154004
0.05941980521973898,0.26331624863834713,0.056448825369474584,-0.0012304831876899514,-0.023909896071636204,-0.034718235446135566,-0.05987390910499847,0.26309799657478306
0.061919322034109825,0.25157191453981614,0.0685988897868219,0.0035467696526785206,-0.028539519945431864,-0.02131585498886264,-0.029923008078229736,0.2892067304123013
0.06492348783875485,0.23625550197857864,0.060718885857557886,-9.689747886058378E-4,-0.026634551777419083,-0.02114199824292732,-0.0275979147437371,0.32341965996650446
0.06338291291109988,0.22818374445614487,0.054381426481201575,-0.012593121973963575,-0.04076682688498441,-0.03111846509897285,-0.057864828572836285,0.2900635616360952
0.05223096190101999,0.22317493566105048,0.04430288605405998,-0.027956012159929863,-0.043865398970424595,-0.04714646498613256,-0.08008208177482748,0.30014360987494515
0.04707519173634859,0.21094245625570315,0.04212015350449167,-0.03068012934909782,-0.04354384604776785,-0.05405749156413566,-0.10635874624019398,0.24361536717607835
0.057148848334022985,0.2442790484959972,0.06347540721385572,0.006076137066225604,-0.03238191186478042,-0.03376898556694704,-0.039014698632673914,0.24847995861157016
0.06887580780406506,0.25738328694300017,0.0697610617197649,0.0209944115744378,-0.017715129229953625,-0.01691053901506226,-0.02429715529441176,0.3130209717782337
0.06174426028747425,0.2394088908352962,0.0630000319972077,0.01660921423201165,-0.018217255292701483,-0.01632381214540919,-0.02441486864917844,0.263400546717507
0.06566331727087446,0.23162907424645005,0.05190592338443904,-4.233727107222432E-4,-0.020372668470862124,-0.0397159548885391,-0.048705826098600205,0.29968090886726967
0.0560187394591939,0.24782942913924422,0.04772676506417179,-0.016170198641040363,-0.03971917268013914,-0.04435843611698484,-0.06778407668584448,0.3511343639203077
0.05450028253783926,0.27427063124537776,0.03316040600557022,-0.03254761441313368,-0.04569154632300614,-0.060756035457295306,-0.09354164995548186,0.40526867469000394
0.06254264665345677,0.2784123845493045,0.051775787802541974,-0.01680114936076839,-0.03599471399616655,-0.06478592291718566,-0.07343775868783105,0.3958831696990864
0.05885008756204975,0.26062448768851876,0.06758405578563828,0.015928213612120337,-0.028248584971157675,-0.027567161822864554,-0.03300247391268685,0.3897892877268325
0.06780991812285453,0.26623187980228324,0.07740679897351438,0.02340233184855279,-0.01383258279170706,-0.011961341713653824,-0.015281894352347086,0.3730533064607958
0.07553868101120284,0.27748269636265466,0.0680641709779803,0.02145118689458174,-0.02938198569743178,-0.025827726102322875,-0.03652499209605985,0.3180294561859722
0.06535241764944608,0.27469488232684275,0.05801518692009037,0.004284615912521078,-0.029870841159123165,-0.04447070344104706,-0.06662633455052329,0.3249646110116091
0.057676163490290644,0.24244775781243516,0.04549009950117479,-0.014480071722484722,-0.06028083788626052,-0.06293267550719503,-0.08913322070909302,0.3033636152644563
0.05248587756179554,0.24080834616417507,0.039644062489409514,-0.02536679590027452,-0.05869463213129804,-0.06770875514122796,-0.12039921004616025,0.2844189523429509
0.06904916622802247,0.24254154133631176,0.061743915788588774,0.011811790661043528,-0.03357553681801992,-0.03827762016388108,-0.06397413414341455,0.2758855216842649
0.0663685996402187,0.2556939542428579,0.0693212819325498,0.020433852526354948,-0.026855330264873432,-0.028896190885525315,-0.041723032546420194,0.3588361719096712
0.06635923266203637,0.2405261183960196,0.07815942189644046,0.022375301244015523,-0.024328206969743752,-0.03586530169935348,-0.03309149683258002,0.3434359795805818
0.07052203661057677,0.2432451812645431,0.05863562073510602,0.00397317107136666,-0.04725726323236658,-0.035046264988499325,-0.06941865517185139,0.32943898354202034
0.05713946240688919,0.25063529576246296,0.05797167468600088,0.004101323070120788,-0.03833401388179173,-0.04657587132075016,-0.08550155125172536,0.3126408383950221
0.0719864531734141,0.26148200394164045,0.08131074888372045,0.031198079013591992,-0.03014644261870403,-0.022704573683590037,-0.05652480499571606,0.27275972523809194
0.07342349550999933,0.2642081487794055,0.08512471914069741,0.034448937889479316,-0.03612462749331706,-0.016479437511279428,-0.029812769403418163,0.2978836454819645
0.0672410059944501,0.27080195133580215,0.08737291597007366,0.033748009992448,-0.013867183401459284,-0.014294012147971602,-0.029314089998960638,0.27903024196640197
0.06979701036716558,0.26511226113835074,0.07469589383949649,0.024359677460621613,-0.03835924554020991,-0.034101888394737316,-0.04638569823406556,0.30554943561324494
0.07129469968036647,0.2524796484944625,0.0718298873275175,0.01620926546677757,-0.04135124993941747,-0.04410817671890793,-0.06766956007180037,0.29780121577978114
0.0652907152777728,0.29555095141748705,0.058227042804024326,-0.0029682572846328192,-0.05053449125046959,-0.059185478313277445,-0.08826136474689644,0.3538814499408297
0.07600562078226616,0.28624250905070636,0.08611352688448592,0.03861635880791281,-0.03344715640173627,-0.03327027754897228,-0.044756784703273,0.38021496051085
0.08536927433754718,0.29487041363892474,0.10304530390398184,0.05544835817054658,-0.013746713812938766,-0.003320699028883968,-0.009069850548296274,0.4165634036843491
0.07917267011079518,0.2992310182640836,0.1057524881929085,0.05383423283755203,-0.019045736972584763,0.0021292272563519857,0.0011255814342533005,0.4087553695097837
0.08256481506874773,0.2942102312697562,0.08886927133326594,0.047950826881474076,-0.026194618918577346,-0.007202638174905525,-0.02681813745515709,0.3555226393974951
0.08322339780245216,0.2708446422254171,0.08342478821536348,0.03062272752291975,-0.03778993905192624,-0.03100002759065501,-0.05785215539142449,0.33202258298009035
0.07111938589921948,0.2720403164816434,0.07274334618365698,0.01993433484689751,-0.049533219090507674,-0.044589957039803535,-0.08137175791967857,0.23416687150347
0.06195052137925,0.24506088131268286,0.06388113139217375,0.0023058096382294405,-0.053501264091884215,-0.060062347102323374,-0.09359416886812504,0.23958535253226093
0.08216012978780621,0.2633661067526485,0.08566468994228045,0.04988985979841911,-0.028923413729734008,-0.01833104016905259,-0.026087029722307448,0.27408775673040925
0.08120727002976469,0.282327922915022,0.10464667096191006,0.05445630934198776,-0.015455087733415716,-0.02470704014850044,-0.0064280030324064125,0.290852241061862
0.07814555179363025,0.27900592199527996,0.09795950952592633,0.05460015585414566,-0.01768690721349342,-0.008325425310966063,-0.009846842530853842,0.3535101517330343
0.07790502172914944,0.2787531811710914,0.09167280991937071,0.04111407223446901,-0.027544849871503057,-0.009014351788577131,-0.02078643923352335,0.3290306070054864
0.0689067766565516,0.2760636745763271,0.08111586892234943,0.028932194856413507,-0.03781078254417637,-0.03040486721887216,-0.05846174201941848,0.4079570754843038
0.07226718846336953,0.2725575004352444,0.07736512917107469,0.02374510284031643,-0.03837887060491227,-0.05039177047057129,-0.05396456958627635,0.36011493381715093
0.07691174746848495,0.2791092379661138,0.10690131357456692,0.06049266601905728,-0.019642413511037387,-0.0010793405653222246,-0.019156670563751726,0.34362342467496576
0.08370336012306612,0.28527216367561536,0.1043213066489025,0.060990586583334776,-0.02705504856847762,0.00649310985021645,7.073007200985998E-4,0.25796599786704266
0.08071280631208827,0.2764896243531354,0.10611720725167474,0.062184739052319984,-0.019044824540444247,-7.920022650862238E-4,-0.0018474362433909264,0.2522321892157757
0.08129206565580634,0.2893635803606316,0.09733568719626663,0.054376779131888965,-0.028126706204805885,-0.026597392131381854,-0.03351517674800608,0.24929583826016768
0.06957832390601405,0.2846606332082267,0.08747369873094925,0.044591395129503685,-0.049276870949015776,-0.02247112238018023,-0.04133209753967662,0.30318070898028754
0.07659120193014299,0.28007313138974216,0.07682689095782069,0.0157338251346692,-0.045887643494618574,-0.04376797699420637,-0.06345341033636077,0.3924737065858356
0.06503979384339838,0.2867222210608507,0.08407968802692772,0.019106128296108933,-0.0519684361782891,-0.038865964201619425,-0.05900220804422339,0.41581795924921316
0.08110295977690087,0.30884434722022575,0.10913013453956022,0.05690565679357564,-0.01764668347069839,-3.683124022139661E-4,-0.006902828828159492,0.38720846839456036
0.08195493385073105,0.2999117304584942,0.11281943864621846,0.06672980702973776,-0.019457413060399834,-0.0018275402094101376,0.0057503601254297945,0.377719526028282
0.083809883342304,0.25851394913392095,0.10054924663563893,0.05479119519211832,-0.01939822534878642,-0.008180369607001928,-0.004088800820871333,0.2811813962792114
0.0714580816367488,0.2744590419723969,0.08605917026131417,0.043809390591735844,-0.03175090749447372,-0.02369874873322142,-0.037855875995494656,0.22989775040250596
0.07131830442514113,0.2664885009088316,0.07622530984100025,0.030748273331271374,-0.04620494826518995,-0.03699129857528827,-0.05317640775415629,0.23619076231187225
0.06427281141596568,0.2791431810700421,0.06818830545807161,0.011607433730135688,-0.054569563552510095,-0.05985615171513233,-0.0940671100285887,0.2374016624972096
0.06252887654723317,0.26774823769584893,0.0764986528465295,0.012492245110516033,-0.0556750889976538,-0.05080092688435695,-0.07137579898084154,0.2988260955800508
0.07792433188982668,0.27913305297681845,0.09564769506284942,0.04855531748461741,-0.03395682566424352,-0.015786725251859243,-0.02201001043803627,0.3285705752600912
0.0819924467272661,0.2923447635860718,0.09542209258243195,0.05155101039586565,-0.013395039069348556,-0.012547064768235784,-0.012076179870998877,0.40029380340092086
0.0835757138139783,0.3025614793654952,0.09369944837312505,0.040532423934106235,-0.03300998161462635,-0.014054655208851949,-0.01567701016272234,0.32402716725194536
0.07772546933735897,0.28940724564226605,0.08508906123910893,0.031115149399782435,-0.024627274052959485,-0.02117440488608756,-0.05225830035030246,0.3331308405513159
0.0679225274432018,0.2607178914972276,0.0812336650187154,0.01987643829459073,-0.04372678610713088,-0.04645459418908005,-0.06499226015734874,0.2618873527227077
0.06769715650678601,0.2618424061894414,0.06641052468078815,0.006572928535964688,-0.06515944084224633,-0.06982673457075518,-0.10366076986727277,0.21904678312228232
0.07332549109690573,0.28981199451453427,0.0916752730409589,0.03935963472947619,-0.041325566853472336,-0.022486621213316606,-0.0433463906564822,0.22230283172268167
0.07854450022240239,0.267464194014936,0.09975803280020847,0.05569430066078031,-0.014073435860105558,-0.008052911978226364,-0.019600889403283986,0.23178364726081122
0.08059316075239191,0.28534048774583726,0.10631800645915021,0.058747229636931735,-0.016703891892603896,-0.008822995488986102,-0.018673490333870668,0.3007410915989292
0.08874065823630886,0.29903994906075776,0.09187579827192108,0.039890445820949035,-0.026877472836114705,-0.023997386829681902,-0.038735631596455336,0.35002860703414873
0.07696585441632658,0.3067506156240285,0.08951811057884737,0.02778408154008384,-0.030753290734398673,-0.043576299647750616,-0.06760886827763832,0.3402290517065881
0.061988664191743786,0.29903178488695686,0.07940509171675195,0.013769538690970626,-0.05604036562583296,-0.055576110433516,-0.0825091523146976,0.30407297025750246
0.07598943806463357,0.2889685131979302,0.07099792001324037,0.0043949333662438445,-0.048673441865793886,-0.07106886601844814,-0.0991989797840553,0.3025820663890382
0.08915838098621115,0.2744180720795583,0.09075003639565975,0.04352696239205668,-0.03779656717294165,-0.04582473113912529,-0.05413314869661706,0.26018944109710124
0.09102726099734508,0.2897313373005804,0.09951043482099554,0.06739798350533076,-0.022680299585689463,-0.015541455677489477,-0.03576356230860686,0.21594983356998698
0.08758600277334129,0.2819444730189749,0.10274824009587398,0.05924158795803796,-0.032405482624577264,-0.01704111922530884,-0.04086875528647964,0.1857121119058673
0.08519349270430296,0.27721423398333755,0.08842747665479808,0.04704448808097564,-0.028043224937969957,-0.0329304820707865,-0.053303328658750274,0.2666286926480878
0.07964789102417255,0.2749897555308264,0.07908299449009233,0.029643386064263685,-0.039789682016963715,-0.04502099637867718,-0.07620016856826853,0.2736856875463014
0.07882958840574021,0.291575462028957,0.07097680533052865,0.017375417187746545,-0.04122794166213108,-0.06209593840345397,-0.10478081085795737,0.29273123685462404
0.07346818026339963,0.2886618174231855,0.07202850617529397,0.016482693205474908,-0.04938695536684045,-0.06405340861567035,-0.10488658334632342,0.3500180829015682
0.09245049442058405,0.3012941243473712,0.10313441922062422,0.05523682167489753,-0.02909687580490771,-0.03563985006888187,-0.0534489441173618,0.3079755423045106
0.09316603381561435,0.28520755847269413,0.09931465236914083,0.06131898693653279,-0.030817853666511734,-0.025835495453287546,-0.03611010699050074,0.301559137653807
0.09417019578779867,0.28767915149426004,0.09705394957635657,0.054328769468210164,-0.028437778307999456,-0.026078415947770134,-0.027677952133644934,0.30519172669292344
0.09480917909987875,0.2922591726188026,0.09281679354771827,0.045990305514492104,-0.030641432299090242,-0.03476842784179748,-0.06174092277268038,0.3552284856527492
0.07675888583928846,0.2947092357179885,0.08385999772683633,0.035985505960608566,-0.04405462684866225,-0.052774697501435264,-0.09432099568656745,0.29022517063771774
0.07898066695574532,0.2729790625083727,0.07191253149782084,0.014970043164152819,-0.04843372142792769,-0.06824577500812033,-0.11868186688955094,0.27209163857610164
0.0856295810998441,0.2845049167289089,0.09699424194488121,0.05004708293727941,-0.020058253182630312,-0.02739272267750685,-0.051336642470417804,0.2754092682880102
0.09052129953420024,0.2853632595943019,0.1144131631008678,0.06802741275771428,-0.0197258822299818,-0.012989864544585783,-0.02507519557017955,0.2891380247479401
0.09677981024014007,0.29498391485035264,0.11644060087589633,0.07259731356519031,-0.005851622297989252,-0.010371574569268016,-0.02632274899388247,0.3242135507903676
0.09250274270658876,0.28707260195304446,0.10277981472313498,0.06296548970992764,-0.02025081892458569,-0.017034695766284844,-0.03867170477610245,0.2952689533477968
0.09773367992290749,0.2755643907125715,0.0970622291520328,0.04299563471695493,-0.030023594744973334,-0.02849614414805776,-0.05578413781970874,0.2888576586413396
0.0851559558823643,0.2701153252340662,0.09103117429321794,0.03378275327969037,-0.04552565151141787,-0.03807814024557063,-0.08859952877144096,0.20663151186681086
0.0825353247533895,0.27894595877490747,0.08571917764530959,0.02014157767554471,-0.0545366911860737,-0.06577173121931798,-0.10736764112820762,0.2852603438144382
0.09402150780617835,0.2914909514965225,0.10268203216893122,0.058267743524537986,-0.021950166798251472,-0.031196514980114498,-0.041036070467184535,0.2740468588071154
0.09735288409883572,0.28979719964548306,0.11558077327504962,0.07761574792943603,-0.008799679646065001,-0.017221815462458934,-0.030573799347004132,0.2846784461491162
0.09646835155038887,0.2811357403532063,0.11127118032910407,0.07272730182289022,-0.01932820231928164,-0.007727870320238209,-0.019547517723556326,0.28104837357941137
0.1044911255816488,0.28013158388049963,0.10383331550404329,0.06236146379564436,-0.02252940920469511,-0.02393124617015502,-0.03759098483543191,0.28246532570352306
0.09682704986837483,0.29527363297849424,0.0995555574946661,0.04391034989930341,-0.02310082971833905,-0.029107605068657387,-0.06489135879673344,0.3238818684029598
0.08771503484074367,0.29544619646498993,0.09285268169623262,0.0195680047764034,-0.036706305294174554,-0.05552678777818704,-0.08339338366414252,0.3034136512034364
0.09016608457913156,0.2867563370693098,0.10012148106206217,0.04535741483053103,-0.022157398855764628,-0.034481618294098765,-0.06514231335424384,0.3280958060470743
0.09633370608120766,0.28711570937685404,0.11164290270990507,0.06341847964164041,-0.003787298323984268,-0.02115805539150442,-0.027220375588512563,0.21697433498683058
0.10601578422773794,0.2906753461655983,0.11914205333432923,0.06766979744941425,-0.0036153748848574037,-0.011894141422873213,-0.023594365348759333,0.31504730838850054
0.09636760381564013,0.2859625605308926,0.10639280172741142,0.053909582879112614,-0.01862557110390212,-0.013964867213600268,-0.029879164225739926,0.3314389304555014
0.09608954325138819,0.2985234360624559,0.09403859817647424,0.043004966040062306,-0.02529375877691145,-0.033038161077470915,-0.05174216496261966,0.28988658129475225
0.08246013867128123,0.2917511602901027,0.08754576898006454,0.02355121038872216,-0.033510999854798856,-0.0421787980734023,-0.08194616033654642,0.3117041969746373
0.08762011066615868,0.2949738218032696,0.08494126413682249,0.014283714385303542,-0.04148812551178302,-0.05717673936209258,-0.10917296843044581,0.2779241607125087
0.09194482654944185,0.2933802920878998,0.10944564980716341,0.05086270827812818,-0.021449951830680988,-0.026631216368065452,-0.03465130891100773,0.30358127077882757
0.1040847443991965,0.29151958355410706,0.11607276976737937,0.06477783127855986,-0.010213358453221848,-0.0011276324466037158,-0.01652337919389968,0.36800737867076766
0.1035259552596409,0.31351688389034676,0.12327261694686169,0.06892118338786561,-0.002367503965757009,0.0013043615683138096,-0.00995429538817337,0.3549120052068987
0.10003420867902207,0.3082748922295742,0.11635796976937252,0.05355046125362917,-0.023905562986632073,-0.0037026945772494213,-0.03593955121852674,0.3062553880802069
0.09787583273049649,0.2905085812453252,0.10222852276405031,0.04219624267769984,-0.022277202299949905,-0.019698607398982694,-0.04893004791084364,0.27010125512824823
0.08347632196587246,0.29122714084632934,0.08539493774731688,0.028969735431825683,-0.0436604037972262,-0.04050021531890505,-0.07793811918183412,0.30806815133220167
0.08484510544198337,0.2700671815643617,0.0814521895779075,0.009377781214554688,-0.040108316078694695,-0.056168903970900144,-0.11211315382209616,0.28569101853633116
0.09556325386910883,0.29126910597114614,0.10547834448586267,0.05295682334383441,-0.008647015744732547,-0.014910777098264695,-0.04077380313175,0.2843354518002928
0.0923971668556691,0.2819329114353289,0.11150110247336834,0.05908302774351099,-0.009200260581276827,-0.00934233601749189,-0.012060670830554246,0.3610994751269351
0.099337512109402,0.29237921002905415,0.11424961868066141,0.05793878109046863,-0.015008534832092895,-0.0024083328271762502,-0.023579317107345968,0.3413781361835983
0.09964716505644175,0.27242567551927566,0.09942918465412659,0.046408499460018585,-0.017426173885680955,-0.008233269377275657,-0.032890034875569324,0.2888939867779882
0.08962381020081951,0.2766556559065651,0.10553931636544067,0.03682278383224083,-0.03213576636216983,-0.020804598780723896,-0.04385154403960434,0.29307990311526383
0.08555868362545965,0.28466050963724343,0.0854201960763053,0.025947197036773055,-0.021072331063383562,-0.035041469720481305,-0.07866024220093012,0.232100642988486
0.09480447016498149,0.2806700851416902,0.10998647865183994,0.05956996322356168,-0.030015605089121523,-0.013795720449916192,-0.02320259738753512,0.29248314115342794
0.0996272011108109,0.29987018267808563,0.11699021826944701,0.07666585751512678,-0.013107159408441156,6.73624513192958E-4,0.008751845994173016,0.31501883922828694
0.10275127372388992,0.3042100009428262,0.12044578268626147,0.0817445683603336,0.00880376853446332,0.005752268218907022,0.004899191838326135,0.346491850303431
0.10207299712134921,0.3110203780066739,0.11512223027912546,0.07736262015776568,-0.011432928453388537,-8.744715901189623E-4,-0.03019233195343063,0.2876038174684995
0.10527747169291209,0.3083638145561846,0.10873175721504541,0.05624348187936605,-0.011312557251720187,-0.01590258292981283,-0.03527320440967545,0.30359457704010373
0.08773021574903636,0.2954895241807932,0.10180817273576995,0.03706830698721538,-0.025876908125297624,-0.0163261741854083,-0.055542363720852236,0.3030465941953598
0.08529153139615302,0.3006475215580889,0.09431297225098861,0.0477519984907389,-0.02960589690048923,-0.036283042123805946,-0.06029800674372712,0.3257858565470132
0.09719742477269884,0.3095638508173369,0.12388377730834013,0.0775471756003115,-0.014501928992702626,0.011478940495393941,-0.005924941967543125,0.28290912261924583
0.10941810159068875,0.3316039464949494,0.13463585787359744,0.09018497490685376,0.0031523603848801866,0.02072958320526899,0.03066633298515998,0.3435657753705134
0.10453904832868136,0.3301659742866915,0.12726159179910507,0.0865795760782096,0.004427892052933086,0.03468172480150881,0.012772145703723037,0.34417467985834654
0.1030758689944084,0.3201528804583274,0.11774980010946579,0.07221633473112918,-7.2020597372352E-5,0.005130204135066391,-0.021246039167665758,0.28093100103487856
0.09125059235225227,0.3061840243864927,0.09929642317326257,0.05645019223337852,-0.019976887281956013,-0.0015232565219853791,-0.02918446390622218,0.3235028744805631
0.0875966074514668,0.3148273550460728,0.0944417133423032,0.04717081512357348,-0.021069376026473956,-0.029267248836308393,-0.060192513833530706,0.24054755091690128
0.08985184271957773,0.2887036305151609,0.10491208260411858,0.04622200102362853,-0.03047108695807394,-0.020721377077562345,-0.05858931378908375,0.24341177703553235
0.11125854800325957,0.29942974119707094,0.12235711060953149,0.08592515654063207,1.105900248625849E-4,0.008761103107066327,1.1727331591099982E-4,0.2541564876728671
0.10661373555524423,0.3149020746537273,0.1289352588085365,0.08578361523364483,0.009533916535992629,0.026784509392866755,0.01281795758668048,0.26596833660381786
0.10356975362448193,0.31653820082940565,0.12578186493203447,0.08542061620199916,0.005453397598453786,0.032294388861908954,0.01275241884456254,0.32414483349394896
0.10096514494789502,0.3383733016383975,0.12203871784155097,0.07949625388275511,0.003445704207940088,0.0069455755307088925,-0.012513696407222656,0.28052639941992236
0.09217608279021106,0.31923310490218565,0.1073791952599423,0.05799349213708265,-0.019708359788527346,-0.01166354230450016,-0.03495984882578942,0.26160632174118253
0.09643924132001523,0.3168366680358745,0.09979430244054813,0.040017724041025826,-0.035054428254730104,-0.02441080091800281,-0.0574612693857893,0.3436237661395306
0.09991829291407914,0.3119573419537371,0.11549890978596236,0.07565669381880748,-0.009700232006364183,0.011358775876251368,-0.017827892702575995,0.272419571628542
0.1121153773107721,0.3435497065154119,0.13159358020130307,0.1058594415685454,9.341662137109935E-5,0.030154986953383634,0.03308320538406154,0.36615335614754296
0.10597750464824295,0.3230563950004459,0.1335296895604871,0.09777877600560214,0.012997176284557654,0.033199935542767504,0.04201419598670372,0.39232156660250633
0.10453936720785047,0.34393673706761624,0.12351749234983739,0.08636760822145856,0.010799981492290372,0.025914321490852255,0.024180807849336104,0.3551107722555451
0.11094978944665607,0.320506031095088,0.11640256734600125,0.08104323666460714,-0.004023616585173221,0.010549776356298862,-0.011042049690000527,0.32212256943676865
0.10548170976173049,0.34281337833308545,0.1107720907261002,0.062561114331924,-0.00905271880053754,-0.0022119298253526175,-0.03367548136132819,0.30216986770728993
0.09226960230687965,0.3337787037437947,0.0967778336255649,0.04400222125386841,-0.03186472238469018,-0.0233236362732845,-0.0632144786242412,0.2627278575716736
0.09302446458564219,0.31545671666978564,0.1148054054148624,0.08396546088208116,-0.008997016735208732,0.013845723862565523,0.0037054384817606853,0.27049884562237925
0.10211654844723567,0.29814614355470415,0.12978347768656642,0.09377007718114674,0.0030937499286137447,0.02669156590907036,0.02905771779478444,0.26568641351226113
0.1030418094799681,0.296698453223531,0.13143684629107177,0.08988622195605268,0.001263973737802751,0.0350005408713941,0.018784475764223096,0.26187132893463877
0.10332888634168748,0.3054511310132636,0.11189093105761222,0.08613338094399617,0.005799807581376551,0.018391279213555666,0.007877812371470769,0.2836031956755962
0.10349690509107268,0.3246290894734774,0.11850748003255078,0.06797432873894346,-0.01249550324480441,0.01689640464832916,-0.011008115854622656,0.2899700088122854
0.09716361745395274,0.30246938876961726,0.09959005101282686,0.04885190100330694,-0.01716950710452696,-0.00751831456419878,-0.03175864986638903,0.3170062593406142
0.09433252010833448,0.32162497011585944,0.11185516297419501,0.055972003006933495,-0.02592818837589135,-0.007366428439796711,-0.04578296805300672,0.29830476409155315
0.10579894510242693,0.30553365543170596,0.12907734280373018,0.097434326157666,-0.0059078497189181175,0.02695196717698704,0.02381241280296463,0.23824535330738625
0.10805492209599632,0.342250385042295,0.12585589492487917,0.0981769142981317,0.007778580947715083,0.02435441142735275,0.031077232511779206,0.2768884251382267
0.11264321443445761,0.3363912879827737,0.13178192152910748,0.08728959420075211,0.012931780266043153,0.034186612752640094,0.03050812189206517,0.33581712175783124
0.10459249844145294,0.3518059531136096,0.1212105700337308,0.07921611892658172,-0.005913259108730896,0.021354376757140785,-0.006515223236589946,0.29623523928261136
0.09971320618522445,0.34887277526124455,0.10745132054967416,0.059742680598182794,-9.628094535042275E-4,0.004615646889090079,-0.015746255672137728,0.3509595762318677
0.08951957040876068,0.3244638495221282,0.09824361758708083,0.03455157685915245,-0.027329204980310932,-0.014139260684848623,-0.04597926847427044,0.2806651025744762
0.09536767033263335,0.322199988924273,0.11622628870768711,0.07876433116858084,-0.004386043160059545,0.009254685175947188,0.0013970736350695338,0.30793138972954165
0.11997599573770314,0.3274882242088609,0.15601715536949567,0.11915912962010983,-0.004614711821307504,0.03542167731045237,0.0436204691281155,0.3181278725036011
0.11948449932679561,0.3198906874794828,0.17009829826076892,0.1258084888108402,0.008120148462147318,0.04803353109725551,0.036923821311072164,0.2709106248384983
0.11676916136954812,0.31845714317204304,0.14966293662264252,0.11030991272215415,0.0019427387554835675,0.025262724699354297,0.023061004852969934,0.30346291671921394
0.11527387653426896,0.31345042217700736,0.14558013994445118,0.09286814792728494,-0.0062760170802915885,0.022809707957957354,0.010154159710017421,0.2854782872444666
0.10562639302067542,0.3215957584947826,0.12939741829935175,0.0802862154266869,-0.012910694418304749,-0.003220545010257543,-0.00979217413312079,0.2737463117716541
0.10311883321014334,0.28867667125521623,0.12399052080361167,0.05846492680688501,-0.03948992278432244,-0.011921714299636534,-0.0442530555423655,0.23981211424059912
0.11764609966635736,0.3105970766144948,0.13950041899759016,0.1022268800980376,-0.010227716913892508,0.018971717209564212,0.006943961663902449,0.25649549520527615
0.11246347082070195,0.29756166758155683,0.1635809882482468,0.11226100471961856,0.0040196997001437085,0.026183019933099013,0.03947716453188919,0.31228996380808477
0.11916695466132209,0.317135166197874,0.1537054432968119,0.11142641568007122,0.00823203822319558,0.0368479788915802,0.030185434642812377,0.31993950259927106
0.12441272958513461,0.3393133690210205,0.15214122520124104,0.10554951946223971,0.005223377230735552,0.027149446791774924,0.032791580738559874,0.3845326073720037
0.1122345278368486,0.32794837350975836,0.13879837159935204,0.08880634098993978,-0.0029759316637723472,0.01919155916434467,0.014437948245208158,0.3368828564030051
0.10652569334899742,0.34093843984651734,0.12312668894364201,0.06829453869233279,-0.009980032845048389,0.006466467565639598,-0.010945355816982949,0.32910412150309987
0.11049373177354191,0.34849407665188364,0.13729463337769315,0.09110323182178842,-0.01983919858843474,0.027967340262554333,0.012681343444665955,0.3461048144117901
0.12208132662601354,0.34922142284305996,0.1536212400286422,0.1221659928245171,0.024588798516483854,0.04272769536096396,0.0593850436675769,0.33452355918645904
0.1298038217824818,0.36087092366197954,0.16166319625014008,0.12207825113081255,0.025844716586773123,0.06171946742700659,0.05477896484660213,0.33397735105331916
0.11768677393454136,0.33713904791268967,0.15510625864876282,0.11376460648792594,0.010882410610146422,0.047904865073942,0.04209983605454902,0.31394605833833134
0.11592999076550929,0.3256073639899809,0.14080820937163904,0.09640493753900917,0.003889375187478012,0.03472700090328748,0.021502934816020728,0.300235705483007
0.10741727522632023,0.31389797137914954,0.13326159894313636,0.08758385578224667,-0.013128347793024058,0.020396303146328103,-0.008284728854225468,0.2571674866597995
0.10060347697206616,0.3046165002125024,0.11333209228763513,0.06379348521668105,-0.029569861443551646,-8.041344677874613E-4,-0.025612503766984842,0.32037142824321035
0.11386046689804838,0.3132157470144384,0.14215471738112548,0.10883524759265618,0.0014116327080426648,0.030941654918924474,0.026797949822676893,0.3119720695754316
0.10865788325715145,0.28372154886266776,0.16101540358016905,0.12842706417141136,-0.0025774847966840856,0.04469902992092099,0.05778344672705213,0.321938749641983
0.12676153351087371,0.29669942209544964,0.15872070130389423,0.13682436303170026,0.017645558083698536,0.06501470372865362,0.06963407678279425,0.31049316122209
0.12808232322572288,0.31239795532555836,0.16187307349918909,0.12941502399320515,0.0066314115305188765,0.04743127679199335,0.03959438004277445,0.3175891641384689
0.11936228860530435,0.3080460534038938,0.13865993428095907,0.11017729915165107,-0.002990674530194132,0.04290629437053969,0.024075968651428806,0.25762174245965824
0.11284591330892836,0.3063185091258635,0.13524383789140854,0.08994614546864846,-0.016342975020715612,0.016174722063795964,0.0027865572902237555,0.2768155127828982
0.11322456935470517,0.31533216826766297,0.12933592567165778,0.08657738955583487,-0.022241044422909834,0.00886223420383293,-0.008207129475818885,0.27185230185604
0.11826900591249202,0.3416898586406158,0.15913800038310766,0.13903214901512057,-0.003296211338789933,0.04350550135816952,0.058922923018585184,0.3634756106521819
0.115596527139506,0.35266965468873535,0.16487881229414572,0.14196979478256563,0.022435334492479433,0.05429568210402317,0.06642421949302485,0.35822328517477936
0.12111951873095353,0.35269278426160466,0.16595211224987458,0.13824214010651298,0.01140721508393712,0.06579887367389832,0.06245607722184611,0.3514168343319021
0.12175105017624731,0.34893091240283974,0.15577776533121276,0.12865175384455896,0.011039532242706448,0.04553977927576684,0.042012843159622566,0.3982789612545896
0.1144689535461934,0.3439828790969622,0.15359887775023093,0.11923061863412032,-0.006997053294572066,0.028484435570040354,0.03266612024048478,0.32755794397949767
0.11754736171715016,0.3476979004022401,0.1572476765274059,0.12100384839356434,-0.009278691185444037,0.040723684426816766,0.040510686296902465,0.3610002567779819
0.1266406432011203,0.34032795240485175,0.17121678794936204,0.15998959718304712,0.014715359693481717,0.07126219939920117,0.09058031974846215,0.37508846771476667
0.1280385786636053,0.3328448897896036,0.17836995898335614,0.1528590181281514,0.026750824388574033,0.07809405568036172,0.08943697422237698,0.20039745114309027
0.12315857260422881,0.2973575370895741,0.1698962971614148,0.1437844899560239,0.02166430939211919,0.07032701501433045,0.078677278601291,0.26325159148756244
0.11985146583953649,0.3083784285472045,0.16213211533633798,0.1316759667487964,0.010112926465466942,0.04769469126565161,0.05102677536316648,0.2876840045332711
0.12055867994085201,0.3096607849835043,0.14916181042963242,0.11346926064548074,-0.013234184316547399,0.04082859877976694,0.0239217056755887,0.2657821013881212
0.11754311055555734,0.31385715803043573,0.13645903001408508,0.10309945982126778,-0.014852804415370898,0.013527323043782687,0.013240029714701647,0.30621168096199025
0.12357190466002499,0.3327393424031294,0.1707851250879941,0.14685699481615172,0.0013245240077161106,0.06331431412719428,0.05951512032614495,0.3406012726269435
0.13166201909836917,0.3363749478730253,0.18341219761392832,0.1576207302849835,0.019609456429685413,0.07854214956958677,0.09679829454746997,0.36768410886961117
0.13296437211948114,0.3461312846554097,0.1795436716343367,0.16172759384526822,0.02924223412058263,0.08561132249752187,0.09747882563881613,0.4072902545182496
0.12704726186345888,0.35214070977404655,0.1626813718532723,0.1500233595505185,0.023423932136326712,0.0764580532906328,0.0781940731854871,0.38631982560108086
0.12024132642557142,0.3460112638081083,0.16487775244711683,0.1336190788737636,0.01103558979586836,0.0540756504071927,0.059224066942453996,0.4244797597785289
0.11990689379595902,0.3334056436472752,0.15185176351551666,0.1230707485863413,-0.004338821930503611,0.03669204844621721,0.025626521406768396,0.3838573909128606
0.11049864375913702,0.3295387234866468,0.14222718064434267,0.10621014358092373,-0.02354006456719937,0.015473326964016688,0.014615446721518443,0.35593359138609026
0.12371032484900335,0.3366779897542981,0.1705920552047284,0.14774112657768534,0.008986887027442304,0.05357079353851692,0.0777415862235432,0.3193176024124146
0.13160417737718902,0.35332929805239977,0.17571498829630466,0.15847046374559448,0.011012318316128911,0.0781501487181776,0.08914542321558533,0.3865148764862225
0.12912620449378198,0.35538621544362303,0.17701485977166356,0.16286822902746192,0.03114245085762087,0.06386806138766424,0.0837519557402148,0.367558698246747
0.12475250151430363,0.3453558496989271,0.16642311836301477,0.14078073299054578,0.012219385916932033,0.05648168876170055,0.0819187889265627,0.4325637212995532
0.12113919621979755,0.34801339289874245,0.15893206224465203,0.12006201467450613,0.0071866537865199545,0.04649259739591763,0.05716698171308749,0.4126627955202626
0.11477371939309662,0.3339359025607157,0.13961190067695511,0.11067229104524154,-0.005128079926517534,0.027171046235805973,0.020691641121635795,0.3729908109242562
0.11906544286096434,0.3202635657230788,0.1637419526570019,0.14288255889222626,0.008705171013637034,0.04233393897638703,0.054433982189631566,0.3743176886430064
0.12339398725530372,0.346711188990607,0.18062065296558363,0.1617071256887272,0.01688750986462834,0.06697825841798898,0.08835511641689858,0.3868796613762777
0.12592587378075593,0.3307883708128574,0.18795406222820074,0.1613731372790658,0.0328555830065154,0.07529574574283786,0.09610917523458465,0.2886620559819395
0.11894996785725724,0.32996481777388875,0.1721585957941149,0.15122954315295817,0.01821731374266861,0.05851427937640707,0.08726033223956317,0.31532597445342686
0.1161007165699449,0.31524843007906395,0.16462689744145456,0.1366207314393704,0.002994366877633596,0.045334550673158405,0.05602500364997353,0.2968209987840403
0.11267233411062438,0.3073230317171573,0.15084908577089282,0.11644653906483396,9.455890808445153E-5,0.03176663047838155,0.037717497268119356,0.35605578013109296
0.10886068418165902,0.3390934468448895,0.14679391810458559,0.10332104059024574,-0.011136581273751393,0.016276993939428636,-0.0016071509019707567,0.32631224448185947
0.12329321514042287,0.3149217899616702,0.16552349894020704,0.14417722324680476,0.016370250344303193,0.05810566435103595,0.06110113320902984,0.3780410409979067
0.12207090559759937,0.29542420858717977,0.175534696370505,0.15835413453267677,0.015016976038331459,0.07473895745219944,0.0803828613741217,0.33475576214645664
0.12266596987643655,0.3211457742172185,0.16664384991198455,0.15714551479686512,0.0201344902573951,0.07203724594056524,0.08534321663292849,0.3661775186728178
0.12085406059630746,0.33662428271164024,0.15952607617159686,0.14020080170697927,0.013755620386971161,0.059455839073101854,0.059747535396420456,0.42029906002626227
0.10810841485864772,0.3207516891599399,0.15650134961182002,0.12721753982604508,0.005671385947996509,0.05140446576457868,0.03594740023198202,0.295422242530062
0.1051282885088528,0.28733286227291155,0.1411048231826336,0.10173543583654084,-0.012242072294716785,0.028706200059210922,0.010488149564800882,0.30846203034164255
0.11319118865120628,0.3002441945138066,0.14726940196564287,0.11814628716500847,-0.01218335814598425,0.03067050946437009,0.017728253901213565,0.28656337347309
0.11665066458422156,0.3032329808657514,0.16238936302581589,0.14628054496494675,0.009541069129079842,0.06227506304194644,0.06608241856086189,0.2345122357462609
0.11662486207940924,0.2775364459036723,0.1717534220197372,0.14449363782774802,0.007401719294958954,0.049391630509409035,0.07602356801973281,0.2141966662068278
0.11573432161730299,0.2650321023473986,0.16011882941129577,0.1346470329512067,0.007120136411303799,0.049553541940457,0.05492063780076908,0.24566800404443406
0.11229835668910061,0.27777123166667694,0.1451109181276392,0.11779376009523689,-0.004972694846504424,0.043482504722640196,0.029341083742166207,0.24674038517430977
0.1077542172350801,0.29154832518965085,0.14257925872861016,0.10445188826046714,-0.019375341813064762,0.022755451078393385,0.010120675469507262,0.30030638004361654
0.1110489359649178,0.30531149900354093,0.1354310044366002,0.1107665650507074,-0.007335600271943381,0.026599933325062577,0.02006582194083941,0.36828276185767644
0.11854226606566373,0.3359186508731041,0.16146550913626279,0.14165478695397887,0.025793588598977367,0.05343441669473776,0.07485790712071397,0.4304971353326307
0.12309101860175017,0.3087624062734508,0.17064798469380632,0.1467644105550157,0.026086225953745577,0.0721383529143699,0.08474023178007736,0.3940467452354227
0.11053043929567546,0.2282106182482553,0.1515967660021037,0.12432764814127968,0.03265120232522844,0.06719182848517655,0.054959848167621395,0.30763885371939415
0.09400072132674288,0.12347998701447968,0.13105233026107485,0.10510624648187503,0.01910369857994849,0.05244300294871297,0.03471528600647317,0.28353183591554143
0.09007470381077866,0.12055670045582542,0.11346186296476311,0.08249120359673678,-5.613651031558255E-4,0.03187848890808112,0.01899489427941242,0.24262854062207012
0.07898857898847204,0.1407802251923602,0.10031871662569831,0.06136984034848863,-0.010916651631686761,0.011888344664476063,-0.01714612374405765,0.35582790313466717
0.08341030919091441,0.1377556906385734,0.10786917983530113,0.07398853612479267,0.00961833977273043,0.018257391214519966,-0.0016613140771080462,0.343879562494372
0.09166527671825277,0.10902215054155631,0.12144826782062686,0.10505817918972428,0.022934585777809973,0.05412667698795834,0.050654288037679907,0.41801097446892466
0.1017383447237729,0.14493238890162716,0.12743742192346438,0.10717665158546198,0.02808502199396639,0.05561676417449647,0.06477578733456393,0.4429934624987719
0.10694257105819305,0.15828840765249705,0.13211516059411352,0.10125640457505418,0.023162489969487568,0.05053039008628359,0.044492602870346926,0.42299191229037786
0.1010337704986687,0.14235346436034615,0.11561699948407343,0.09265876235346955,0.0038699758911388536,0.030942427857213864,0.024767259851380244,0.3500074609230465
0.08474843310805186,0.13219622868724637,0.10899966904769105,0.07301254132670938,-0.012960711299536447,0.020044610502657694,-0.0015830009708854183,0.2388406316391828
0.08817865946539583,0.12749718640912083,0.09790252349614184,0.054725400469048106,-0.027124981100728873,-0.0011902175715810606,-0.043927690574784656,0.2212295693052029
0.09173569866076113,0.15170480429723116,0.12241638523429889,0.0887317196483918,-2.5071408349361043E-4,0.03126695091987302,0.019333322400768023,0.28391327583644843
0.09920549828745989,0.17684416997021518,0.13283860293592403,0.09560844554181239,0.020661035257394215,0.053171490993350286,0.03649560658026894,0.378667113390408
0.09507739941017783,0.1649824724902307,0.12233532510020044,0.09200598699123406,0.01056375119474627,0.052444394331610314,0.03356322326547123,0.42766332918325145
0.09155449771927615,0.1390324783374205,0.11971142845454773,0.07126351744916333,-0.003732510788953553,0.028789941219770143,0.011839786628028266,0.3775491367772623
0.08788119235360675,0.1496337250476829,0.10231860126727502,0.06212231067920299,-0.008073278385763966,-9.657697187821432E-4,-0.023170605576898932,0.42477628526899935
0.09903080068673374,0.17177650255943056,0.11640916307166871,0.08334466680029566,0.01546367755885137,0.02478163648502601,0.004989961961582329,0.4181324795106692
0.10168780565084622,0.18431277656058107,0.12808716762016775,0.10115566237848013,0.0133839292850216,0.05092194362631469,0.04904871560671627,0.4521273400355436
0.10147276880810809,0.18625591155285268,0.13087597905874784,0.10275598031172702,0.02068220442905817,0.048943618568161776,0.05352203313499637,0.36282730542460845
0.1041920809451777,0.16059961372064158,0.1194391068632822,0.08898895353651415,0.0168240301262438,0.030876752266517683,0.03047803504916439,0.4720061167555785
0.09702735055953553,0.17044871601090275,0.12001688086801253,0.0716088280683961,1.5327344698744597E-4,0.0262974773846971,0.0028499328129101206,0.3628364183360211
0.09495342127530251,0.1874454533726691,0.10650772323928762,0.061527693366100686,-0.004024404224290805,-7.773306104620764E-4,-0.03694860738810529,0.4102936422589532
0.08346506180124132,0.16635469329784236,0.09144911090552789,0.04403529374842947,-0.021992615569948113,-0.010862392648042968,-0.06695182010492393,0.3695412005276219
0.09207700409739228,0.16315838155588386,0.11723770710808035,0.0780061034052598,6.427131848949653E-4,0.02354288392018248,-0.004609936770199774,0.4019744922435248
0.10090092185706791,0.1592486655374904,0.1231862220275235,0.09274947112518966,0.007915968159279595,0.037686234456740075,0.03159787289770602,0.3642500869307064
0.09631429815061149,0.12762798166264733,0.1189392411111584,0.08523882859360037,0.010500784887304136,0.03364455964026043,0.020873307639218262,0.34535922981177447
0.09528132396366065,0.1282195099475651,0.1112263942934068,0.06981225832035223,0.0015553959397446426,0.02282844823035962,-0.001779531602307885,0.2855932086820798
0.08558528355128554,0.11602485639589324,0.09566549963389578,0.05093889073544034,-0.00757766939575102,0.0025881267828252244,-0.03780998185458033,0.26741327191557795
0.08398053636714188,0.13565497924384498,0.09267609734457602,0.035868059350583854,-0.02361710646586733,-0.019857372463422875,-0.054931721773627075,0.31074513207459065
0.07719080761994833,0.1591771861226353,0.08716630523475057,0.016275497697384688,-0.040138385784992126,-0.03731972963169812,-0.08550861349900946,0.3066846456340485
0.09388329830784428,0.18339369860533256,0.11801388821307972,0.06428034266310892,-0.006496834478081219,0.0047838239757174925,-0.021140791242908956,0.36637077343442437
0.09805304843406273,0.16023516742130284,0.11335535461956539,0.07023939796424426,0.004518377207862559,0.016213166082953333,0.003447370951269242,0.36939459725083584
0.08698844185627261,0.16439892468807457,0.09952072905113127,0.0550433434266077,0.007159973663944245,0.010929001084425207,-0.003056138841994689,0.3486932620759794
0.07778566515942796,0.1693284991187936,0.0790171659650583,0.041187800374037825,-0.0054707932119976545,0.006266827553041809,-0.02262558363124033,0.2866351158168418
0.08065407260237635,0.16969627670592746,0.0765550192418798,0.02279362265702158,-0.030938627267106028,-0.01740750077993892,-0.053557397233308796,0.27034060846477515
0.07630711589459926,0.14279424746857047,0.06526175004274941,0.017003530299702828,-0.03879219604256284,-0.032138761601733096,-0.08786696886493292,0.1784829522302779
0.06313008084957338,0.12472143415952587,0.07124590318885317,0.014253344437843143,-0.04208281570793558,-0.03441075600150337,-0.07960306649368039,0.31266477576157026
0.0753588602811852,0.09095636572500573,0.08743230245159236,0.04293131360734084,-0.009677982753928718,-0.00854064536523061,-0.022988910103459194,0.32886887318859753
0.07979135285232046,0.1095106248618244,0.0887527444994562,0.045852868337264686,-0.007352854318273618,-1.9427580233892516E-4,-0.01760723070909482,0.35735779163751635
0.0798575434853101,0.12527850394903906,0.08976276004255532,0.03472333721446885,-0.008460038106340228,-0.005012737544217879,-0.0418598992300315,0.32033961382688086
0.08305344136532636,0.1654814888909653,0.0753192432866348,0.018443256054941404,-0.022250514523097273,-0.01815213557343672,-0.053989908926893246,0.38057066499543823
0.06538561745667953,0.1597511362771059,0.06675565425735985,-0.003807726445995663,-0.0198077179222599,-0.03611746237697758,-0.09686523272444121,0.4196262195526587
0.057941827966304454,0.1529166758394459,0.04883284302789122,-0.01145561436794211,-0.05176708682928151,-0.0444666785092105,-0.09233095544403246,0.2794215919016033
0.07768354501033464,0.1410343094812402,0.07789024397522509,0.018441280662644853,-0.027932463555437857,-0.020639533983269537,-0.04130610473794001,0.2803061798692971
0.07846054317276649,0.16144499357440523,0.08182563826470057,0.02526138382005677,-0.01703132703892992,-0.017983616589631296,-0.04187844809840623,0.2793748386091519
0.07426562726167887,0.1692598377684765,0.07154962472055593,0.012695643028852635,-0.009234077940606567,-0.020023100913917964,-0.04587234778681058,0.2981568657924215
0.07471954548412912,0.13424532129353192,0.05225747908280771,0.001434762392623541,-0.025929970317372156,-0.04169625141618312,-0.06897391096082964,0.2847802038626578
0.06661649538714504,0.11341502584651664,0.05652431867370762,-0.008411097089083306,-0.03435358963198423,-0.042222671441232935,-0.08812712823221426,0.22218223880358537
0.0747481429185327,0.1409990825205359,0.08125428948487129,0.026956604486321756,-0.012268352750813637,-0.0164453692125314,-0.037647171397945156,0.3353531376411085
0.076843612301973,0.19173319408680078,0.09083161876001822,0.034966995890437086,-0.00369385953524619,-0.0010792515722084749,-0.011104778004286197,0.34902794099095513
0.08117916364442018,0.12489780858434055,0.07982892072055572,0.025579965353132495,-0.007090575271429662,-0.011232227049996674,-0.034162725617699105,0.29611527889287337
0.06692354597058182,0.07269207279359079,0.06757055963666117,0.010825001866471728,-0.024480971897519264,-0.01639365999329595,-0.05726657205784172,0.18485308527873515
0.05976830001811986,0.10022212998937517,0.055264694343909286,-0.003458765674839762,-0.03820046512921077,-0.037325738004661095,-0.08633441673544415,0.11348925775313332
0.06022047402724791,0.09689051319048043,0.046065627968923786,-0.019948353086755057,-0.04942943471217112,-0.042400482408282966,-0.10711518600863354,0.19573800837590083
0.06742276514318206,0.11909122021960061,0.06912447220510849,0.018573816243978553,-0.02147274389671346,-0.012160828986659277,-0.0462430523353854,0.23880432689151795
0.07279337371852018,0.10267619838198523,0.07820107223737532,0.03686393550941358,-0.014387136067408605,-0.001144119012512393,-0.022520900127023943,0.19295347504656232
0.08209168968536847,0.08248562063470509,0.07129562328217538,0.03632959807646472,-0.01636564301944048,0.006223389268556714,-0.02701360965054465,0.1569244645005155
0.07594670635715316,0.11296684898741421,0.0694710044897408,0.01576103652468202,-0.017387425655361808,-0.017094924478375646,-0.03339584077935757,0.1855225644066414
0.07869724349250315,0.15116825416051957,0.07000756611546075,0.007645123659531969,-0.026568065349961506,-0.01680596455651358,-0.053472410515238045,0.23693621095945272
0.057417430223348026,0.1389314308265577,0.06159254090771067,-0.011154897709299035,-0.03779155324283438,-0.03547059983594945,-0.10217137927328987,0.15741914139104174
0.06171490148952853,0.11052773884191876,0.03631210198962785,-0.02650959427516831,-0.053062685181574074,-0.046372692678173226,-0.11813764573257593,0.19243297848944582
0.07926882472952472,0.12811796048017296,0.0726086052534288,0.013299273510862315,-0.018466177206604276,-0.011399438721093287,-0.04370687682649073,0.2760711603143388
0.07713220701981988,0.15308703368219043,0.08581084874359124,0.030513739880410517,-0.013053838002071733,0.0015470483441537355,-0.02439997409793631,0.36152999575642575
0.08147120307269756,0.16505551680720656,0.07904870960200051,0.02181702240750897,-0.0072526225170594875,0.012548249930447647,-0.012683528035079012,0.25924935979250185
0.07554357460701253,0.12236568324251064,0.07632580683843242,0.010483189593808898,-0.0172544497425962,-0.01992067460619764,-0.058534492269951666,0.1642238221639286
0.0691539751053123,0.07070194202843992,0.058819466974108836,-0.003031495784971751,-0.03722193860406128,-0.033436275008259776,-0.07601295372198053,0.10423068010282341
0.0652405836952172,0.09895592045264048,0.05906359772872678,-0.01826657434438824,-0.038744803301328255,-0.06070926662465777,-0.10104504752416506,0.21709775596825875
0.058821765248558214,0.11301681735885244,0.04863013312360245,-0.013913157898296802,-0.045929807231465114,-0.042042048577049455,-0.08889846618657034,0.19388446017767025
0.0728610498957375,0.13102180670981745,0.06906701446458954,0.008441374044409106,-0.008277547863109642,-0.0198879840118297,-0.04728531718718463,0.15966006299606691
0.06909911371745155,0.1079883976637132,0.07892866803396938,0.013326117556015826,-0.02204343916023062,-0.015945713202260917,-0.03527272041811924,0.17959682158982526
0.07666789876786617,0.11022968508841093,0.06045724299111235,0.013999272977315003,-0.021529594984981595,-0.013458330836434385,-0.05010311953516076,0.20655981103530918
0.0634156587257865,0.14018318843136715,0.06131017046548293,-0.015472395509003894,-0.047675391828647246,-0.04323922739980305,-0.07704262615202717,0.21293483518680523
0.06672455088947234,0.14701889143270463,0.05709681521304538,-0.02931793157186198,-0.04707946165518686,-0.04952665394218993,-0.09134040094679925,0.2575655110092318
0.0673110922051606,0.15513086479683733,0.062046715456286164,-0.00699077138002982,-0.03791983029667758,-0.032308443567024406,-0.07879402672235183,0.14532757132478788
0.07434830834329097,0.14758507800275836,0.07354138355323525,0.02432308286804348,-0.02544618278771961,-0.005415651417227354,-0.03505457684080016,0.19333602648495546
0.08251084091465458,0.1639915965380356,0.08440660423638767,0.0251630116393298,-0.01150574356520013,-8.289831671268524E-5,-0.031037355528153086,0.2286687698506267
0.08164442058753527,0.17748206963932311,0.08255010897399043,0.010374197188187296,-0.022089485854645482,-0.004633544594415295,-0.026529818138451258,0.33982902325165515
0.07402812447968385,0.16693184635556113,0.06671571844974124,-0.002398557131717375,-0.03666872145625658,-0.006390419432618255,-0.05119832646926257,0.31612224993251076
0.0705886300835069,0.15168091383538168,0.04847567815656594,-0.016247689018803683,-0.030870230518829665,-0.036980468776484435,-0.08377753369038213,0.3033803713288601
0.06343259986174149,0.14137462584343133,0.04602158021553513,-0.03074376922496063,-0.045365903866701585,-0.052937515711249924,-0.10786204354240395,0.3291192126802159
0.07807361389211152,0.15793839989319491,0.07351472286591125,0.0070214583557796344,-0.012193952648668264,-0.018438400995781517,-0.055863226721631215,0.29153918497710574
0.0759586627283244,0.16378623568419087,0.07968646517056971,0.0165555699585866,-0.005610613718186716,0.0017947196695812968,-0.011283407630139977,0.27632160394685235
0.07378275410465407,0.11894515943690447,0.08865800708689613,0.016023323769849503,-0.0063036818472608095,-7.991413408543376E-4,-0.022047440019355297,0.15937867137087777
0.0700060290733732,0.09682500064218595,0.06335634607281206,0.002381916499138678,-0.0326277631052912,-0.026747248028011913,-0.04523723446207348,0.10141841248387815
0.06895973629792923,0.13021735878665358,0.06574869993646068,-0.021719793937342507,-0.0321231598040759,-0.027423258120069516,-0.0774103901293538,0.11324475225057168
0.06844438242353558,0.13084494875843478,0.049206682775659705,-0.028181958613606464,-0.0353633083218384,-0.05057888387796349,-0.08318888422037621,0.17952062194321405
0.06787310820472467,0.16521507850214573,0.056824843222278654,-0.023838469331887803,-0.05373751668254047,-0.04500580332130352,-0.08610463093605371,0.2302448585272298
0.07374208926298056,0.14880961516915314,0.06440892025873103,0.007371443320128667,-0.020106919589909268,-0.011592791982056885,-0.025076241255157634,0.279678794735014
0.08002851094101485,0.16065058422803932,0.07688520874074342,0.006277503562494654,-0.016510680572243988,0.0019974588632278023,-0.026216749576819715,0.2586081476991179
0.08008610483926878,0.15558224517704267,0.06870679993427836,6.97404018185706E-5,-0.02684935543969723,-0.008940069790362833,-0.03983968778264248,0.29414987068183795
0.07345911114999422,0.18310715262925642,0.06503362285470039,-0.011896045741768385,-0.02842801745930042,-0.020175689227532517,-0.06701004596700316,0.2505004772100318
0.066037522627983,0.15465395773024723,0.04334038780582034,-0.03325917102499429,-0.04565530713045146,-0.03458885468744189,-0.08964884675181832,0.1922473749300308
0.05403635358712129,0.11209944850760331,0.04040333220440097,-0.045171472117192815,-0.06990287296633826,-0.07591367787106507,-0.11072509688287153,0.12546507938689896
0.06581993135648577,0.12294266312509053,0.06482460015592673,-0.009705646242156675,-0.038165492766655054,-0.027050212491738314,-0.05164921462408816,0.09689069794232771
0.07469914410041432,0.15015976782157076,0.0721880715856416,0.004771678933205856,-0.029219234890559956,0.0036615111160520353,-0.018444981024915593,0.20729634637914676
0.08277125215845806,0.17485823955122934,0.07536969883478783,0.009576095375731775,-0.0069268750554744634,0.012957129429611091,-0.01923325275259157,0.3049829084377663
0.07565061356018701,0.15772725619275504,0.0672883331244355,-0.009238980665965853,-0.017814121984432756,-0.011005471903230457,-0.03849387747146447,0.3286661184214823
0.07324379005641943,0.143087060923138,0.06244705560212384,-0.02300859620767319,-0.02671053088767373,-0.02593737652737853,-0.05714662657300112,0.33414265284519196
0.06439568527216694,0.15567981289781183,0.046075574331186836,-0.029453380484032392,-0.039288576170188494,-0.0458047477177861,-0.09169647931248898,0.3402140091368566
0.07461552915680686,0.20838594621559692,0.04935057842361201,-0.03563269552841565,-0.05336010540682701,-0.04394038536766787,-0.0880975803730959,0.3643204236633725
0.0852588245362249,0.20986519263441566,0.08063537662615296,0.006319415340014646,-0.02861013733043581,-0.02230572455570904,-0.03659767602798281,0.28047521639674555
0.08129936500468346,0.18983049353194187,0.07949565258040206,0.011593679309131938,-0.015620163638821514,0.0035213670476843123,-0.009450009695092108,0.23107523439904948
0.07760769936901118,0.1904767084219673,0.07629717752815618,0.00481270649337933,-0.012642946801622618,0.0021359296559143627,-0.030748936883765954,0.1848135262379084
0.07946354723709596,0.2003014303213953,0.0608486857792959,-0.005001783269964878,-0.014327366590734216,-0.00719109919009105,-0.030163581019424002,0.16757915003049303
0.08002824193376683,0.21419609362436165,0.06458276100555736,-0.017141851376744177,-0.03326096110796519,-0.008932394052013765,-0.05640884382419518,0.27606623620246334
0.07324142954523395,0.25284589267273117,0.061810101290561706,-0.030064037829099444,-0.029176232989167585,-0.033860529325753494,-0.09617903172576597,0.3726391807513235
0.08066046155767831,0.23214272966137964,0.07717515225691136,0.0032274483196742757,-0.011014849404870172,-0.005643387103788625,-0.032312525517527356,0.4641424768131114
0.09932904694435832,0.22664465931838695,0.08328927412067708,0.01878773351983814,-0.010292437832300778,-0.0016491629050991753,-0.015876084489421027,0.46165265412624024
0.08703665756437096,0.19283733700402433,0.08439111543598021,0.014551676700412191,-0.009169435230892139,0.015554242820357056,-0.019602456222212433,0.4214206380827573
0.0733886914314074,0.13693243849006514,0.05920972984916698,-0.003804768032909414,-0.02087462470842196,-0.01980604828162526,-0.04704441645378042,0.3643610264739091
0.07173080836395217,0.12074068665198873,0.04732959141021321,-0.018955214525511417,-0.019853974072497844,-0.01498055552626587,-0.05270005043514618,0.3261804442549062
0.06860347657949308,0.10443228376899548,0.046675875149719916,-0.02796906430600662,-0.028934944357782984,-0.024916039832160283,-0.06280015291883646,0.3279570136908768
0.07796513010752258,0.11627489333025023,0.06834933037883324,0.012794570051602842,-0.005664572661448589,0.013378603507388143,-0.002025823409926958,0.3176903603007299
0.08418769794968056,0.10302456661690801,0.08465890659643487,0.031044150612225256,-0.006272220494713857,0.015718698148915584,0.010443483383097195,0.31505311189459895
0.08006495370451944,0.10290685054532024,0.07738428574167776,0.016372222564534997,-4.260810897275609E-4,0.011998448905393583,-0.004711990377871814,0.27716875799409574
0.07848325980079661,0.1081625243269387,0.06403565643120779,0.005291308181642269,-0.021342239449255326,-0.0029731841757284737,-0.030548483306147976,0.2102601905505545
0.07870334406846888,0.11331333043479493,0.05611169874743136,-0.004963205950902652,-0.011675864603283332,-0.012117901152501673,-0.05246582064170363,0.20964477404613968
0.06859366199503536,0.12385728962463616,0.053253231449370705,-0.022150650700280043,-0.030570971481493604,-0.0157151797611473,-0.06023225736012557,0.26975246576960643
0.07039328295899483,0.133324255148247,0.04836381849407406,-0.0288916870909205,-0.02009103168644655,-0.010038462520218387,-0.058239647275416674,0.3307225288240164
0.08934974253278119,0.16809014237717104,0.07937355069251348,0.014693452445580794,-0.005021349636893258,0.005967336757469735,-8.302037025606085E-4,0.3698000431851814
0.09248812684480397,0.20728310009630668,0.08306785314299447,0.016205615326888835,-0.001969352855826447,0.02463636096901524,0.015332047127481463,0.360265481083324
0.0908733355326841,0.19531799255824037,0.08631435145250463,0.019672283639407578,0.004662378192000069,0.005818437007189465,-0.010163394707689604,0.3539059634287985
0.07779081508491568,0.16452053158813765,0.06053107250036503,-0.017942313976843902,-0.0016207938692334493,0.010232059374131821,-0.008711364697951158,0.2967908729541336
0.06744790393595392,0.1448260073258868,0.0251880012321628,-0.051030977719729864,-0.017326743944418025,-0.021779835043234004,-0.061356024498725216,0.2843455958725189
0.06423212099386935,0.14041335026397597,0.019626887795615562,-0.06410544077436466,-0.03842634679082724,-0.03421949195486099,-0.09796117098963388,0.33699189950429714
0.07508367263170386,0.18574894541940745,0.050234663322595546,-0.02004846995838647,-0.010035104551756149,-0.016750920019919704,-0.0338672211956698,0.363930109469098
0.08543089939413555,0.16242363086908018,0.07892377085533797,-0.0068752325292809405,-0.0027838618679455326,0.0059724674512185265,-0.008341288824500314,0.3214508185338296
0.08501092668333907,0.15692793944043315,0.05931891920940024,-5.916727248438981E-5,-0.0069260262419492315,0.015515245038662442,-0.006947479652918342,0.3279175243955559
0.07883394416378942,0.10113964421268373,0.0589913206456608,-0.01888485486373985,-0.008208882938279639,-0.0018477471467599153,-0.039400416599643766,0.2624902277925568
0.07837043537244472,0.1266844721589801,0.0471950500145171,-0.03050799939416895,-0.013038395258745268,-0.00340780367382907,-0.047717582489034384,0.2705024026820685
0.0712234975439739,0.1421211003726754,0.05112915848069703,-0.030413201401223888,-0.024849858970640043,-0.02267055914088144,-0.05126348950141263,0.24005111005075788
0.08653021920584929,0.15453876951438547,0.06674232748416524,-0.00208137821815994,-0.012908708139165493,0.011044615091078364,-0.005773744289193725,0.2437805374170918
0.0828172377346462,0.17075067986096712,0.08286328020853088,0.00670329481104681,-0.008573311166328281,0.015966630145455074,0.018303859568114252,0.26661940818183183
0.08240455441907123,0.16673136607226163,0.08446279395958482,0.005084785036210491,-0.0032161416492720012,0.014922356174463266,0.009850894450395505,0.25085847016960733
0.08612294688948904,0.19228443229943626,0.06997073640121892,-0.010002318344715409,-0.0057329938782481275,0.0035898607197893595,-0.01869398541769115,0.20597699773290395
0.0790837479188333,0.20159406375102487,0.06186324303160556,-0.013167032620897159,-0.015872103073602192,-0.008450605799165383,-0.03804728240356563,0.26539550026162106
0.07693979147494952,0.21099137080989855,0.058240967829710645,-0.03109758759714705,-0.023563403368846537,-0.022469004414902814,-0.06743519318777617,0.33645978709548136
0.07730928511569218,0.21413186489281377,0.05476349677931932,-0.03637892163353508,-0.031515422907940446,-0.03344389287426409,-0.07174989833995972,0.3089997447820808
0.08405585340744191,0.20465158333800065,0.07389647843222084,0.002398933233062412,-0.027800303224091442,1.165420118879215E-4,-0.014555678106713328,0.2990776011141267
0.0900093467207835,0.19649523981486197,0.0773647184971087,-0.005349270163697743,-9.06582451170211E-4,0.013778124956129113,0.00503907924599445,0.34119176147510455
0.08393764298170131,0.204110970988693,0.06919050731343102,-0.004985580355038814,-0.004667097266534041,0.01572815102205365,-0.011600629954567473,0.306413867632312
0.08108820807265542,0.16441776639373515,0.059949530876572,-0.01064237941855081,-0.012408737531275402,0.006419090672360487,-0.0389092184646328,0.31137860328559175
