-0.07849383491811712,-0.1907761517032574,-0.14927960947142013,-0.1562734945068927,0.05169968318040553,0.0692788037982411,0.131305585655893,-0.1334358211119406
-0.0711153504101203,-0.21843853349202713,-0.1616435450572202,-0.15814099609249846,0.04810862901366014,0.05979028878870595,0.09263976665859518,-0.16869090250648697
-0.08387936884640156,-0.19465677029018924,-0.13364421505248286,-0.15347625349628147,0.04068400690545098,0.12193295125927867,0.05606044097101499,-0.15785991307064992
-0.09066508800276961,-0.20002877184444265,-0.16237283679424025,-0.1442976777638273,0.0645783322006075,0.10294562184045165,0.06556759524585297,-0.17727304988311762
-0.08497459721848741,-0.2354040258762471,-0.1607204936520635,-0.16598894856129873,0.05195479894977924,0.08856621893641013,0.031107735290511543,-0.24732537247608796
-0.11144000881646061,-0.2616621165562862,-0.16033619867801938,-0.16396066452735958,0.013131905685171542,0.042961340274523786,0.08173673659213834,-0.28382247698458973
-0.09798515598388792,-0.2416587242051866,-0.16933449437026984,-0.1341138519965509,0.059924341517251824,0.05712341404276321,0.07427553716269941,-0.2196690845995787
-0.09948957388007355,-0.25623646593036564,-0.17201189358988228,-0.1450207558880302,0.04105552858990074,0.09051931063882845,0.09250702456170201,-0.18270090084164062
-0.10124449399274925,-0.24513779339257252,-0.1769060404175887,-0.16146588283167856,0.07021796412446554,0.08920068194824778,0.09991885671979141,-0.3088287067059044
-0.12482709147102292,-0.28621524959219324,-0.17492938685223766,-0.14962807198934103,0.012352688183023977,0.07380931433445503,0.0647174327686311,-0.2604330041296051
-0.07896612675038238,-0.2364839127591804,-0.16666768288254907,-0.1475573433318594,0.03193857114824342,0.0718711192617924,0.037828714231999225,-0.237712488922879
-0.09556009269419492,-0.2284091770284094,-0.15744330481680507,-0.14177327374313575,0.04408033713014264,0.08641884195372818,0.10260300938295691,-0.18710184435411872
-0.10015908454224541,-0.2621010786589313,-0.15129909710507894,-0.15032641230231203,0.05738707766003185,0.04569422353825316,0.09296732213587756,-0.21908837957876817
-0.09809881620284437,-0.2341956827721743,-0.16899204658312797,-0.13856133517742994,0.025389828464156192,0.05394535587259274,0.0744154214691647,-0.2627166489768402
-0.08632658079012141,-0.2836635692197936,-0.17480948950858627,-0.13629744520648426,0.03835692587408162,0.05723679609795329,0.10857863870766932,-0.3194831744832975
-0.08405692502990743,-0.24524701851194,-0.14483374386777825,-0.14730143254984682,0.051389005056881897,0.08555762853116237,0.15047059824496659,-0.251419247910231
-0.09262897851709127,-0.2515734223447595,-0.15161233626307893,-0.10538897541027221,0.06560036895824016,0.05909382913055727,0.08843207056174607,-0.21804948528129378
-0.10500596896022432,-0.2651133342094309,-0.14791457911641961,-0.1327100965194685,0.047103354553294376,0.0993661028705249,0.08847336725466438,-0.2507874687925161
-0.09817658436114675,-0.30491940532460426,-0.16269628766492336,-0.11731030219404269,0.021645077720215934,0.06535039453161058,0.09636391589870108,-0.3258626889231015
-0.0874726941417116,-0.2599654136764609,-0.14502903009064946,-0.13166750382164433,0.04753409260142507,0.1085361641645814,0.12403291956276205,-0.22719432105298357
-0.08379464690223501,-0.24925176770452104,-0.13760964621501343,-0.14677765250834093,0.05062792706212394,0.1001497730959431,0.08364120597886708,-0.22988352671718726
-0.08105022941963376,-0.23512062603958817,-0.153122742589243,-0.1362606071254804,0.06670497142198605,0.10999504841025703,0.10831863592350574,-0.1760831970393422
-0.1045519908293921,-0.2833896981036928,-0.15515194195354096,-0.1108424316912136,0.028224650550649263,0.052921218159258626,0.08300705535982635,-0.3008344951812602
-0.09799661898811957,-0.2932624613080405,-0.14978265025067178,-0.11123009688624398,0.040325915952274215,0.06653492592228422,0.166552533752036,-0.26071496353540297
-0.09156007607004948,-0.2418472638607102,-0.116950522199575,-0.12711733847706458,0.041703463523848294,0.11600297839075734,0.0882622109805498,-0.19747992018457391
-0.10113485576625802,-0.25877188011778623,-0.12999293520347183,-0.12566952958835664,0.048896988676960886,0.11160577005459643,0.15699080441541538,-0.2800000689437643
-0.08806441537641042,-0.265201267473716,-0.1455283334485265,-0.12891327939231417,0.027100398780145783,0.09391725205934472,0.11247300193603521,-0.22405899277481153
-0.08797840625614138,-0.32297493840322655,-0.13604702414200426,-0.11161989844669207,0.03787339297247589,0.08775176502458551,0.10969869579037154,-0.36271125171934027
-0.0695627557551975,-0.24184395889042629,-0.1321042125340788,-0.13352417020337837,0.06197978267226806,0.11377065420410114,0.1043334987717924,-0.24119433819699984
-0.0771319311038973,-0.2700595633672609,-0.12652846194520845,-0.13401460396263834,0.026719280767975372,0.05384138976096361,0.06930823916695944,-0.24299471026582803
-0.09190746696574732,-0.29900387012440083,-0.13904300837883218,-0.10642849338674866,0.040858040245201954,0.10289122327696347,0.15297157287512264,-0.26319652318283365
-0.10980104330359966,-0.3064069746422865,-0.1446759276387115,-0.09570074910427151,0.019032044018378352,0.06802636119124439,0.13200117808294223,-0.34756082146324835
-0.060303466304363444,-0.2633733916149683,-0.11625868575417499,-0.09256147928375792,0.05524363197800464,0.08692016024230659,0.09787169874722289,-0.2357046184608521
-0.07485259808845221,-0.24522170809305738,-0.11242049149155474,-0.1018946362530884,0.04963559147510758,0.08788996908256567,0.11963132770428893,-0.2608043360262474
-0.09345654617982878,-0.27426804859066073,-0.1332489746054571,-0.09529538118085887,0.08583766339050085,0.1139649220314773,0.11884885431716534,-0.2233930106143484
-0.07155095454383767,-0.25266740820414624,-0.12346132102582898,-0.09958224015290416,0.03447850666429209,0.10184282974460925,0.13514520883260622,-0.3205571806590173
-0.04682342146379585,-0.24835989050902252,-0.10769305033804925,-0.083823432027702,0.060899688633528785,0.11227574213711675,0.16815608756660544,-0.2536742031482944
-0.0698545941620918,-0.23310867298681356,-0.1136292080620205,-0.07264322932612036,0.0554830465892688,0.12841022124343995,0.1778310863871093,-0.2608099231548213
-0.07628451931585618,-0.23749991911486018,-0.11154683646649619,-0.05881495513535895,0.05083050336210797,0.11235188473292367,0.1153385198948614,-0.23100587819750457
-0.0713865999845986,-0.24126195632695646,-0.10765661440541187,-0.08194078768613296,0.05356132587518597,0.09601086803347073,0.15183926329528777,-0.24687818625146057
-0.0632331970624514,-0.21615337530713297,-0.09347680083644676,-0.07432392788867985,0.06260733955827477,0.10852266124670924,0.15763453033260943,-0.20585498924565224
-0.06805050694018488,-0.20199117485390314,-0.1016531082537144,-0.09511413091516971,0.06297301452530518,0.1289142413759765,0.11883729216987324,-0.1768850782274906
-0.05361758669564237,-0.21486280539105307,-0.09729625671219905,-0.06579636184879321,0.0867151686383136,0.10034731829341499,0.17915080011136764,-0.23971503072651565
-0.06427306194950184,-0.232353937006795,-0.10628403196869324,-0.0842455094166667,0.058501423513777476,0.08935292861141217,0.10456864044371415,-0.24493929034658718
-0.04840926720096562,-0.21419380262579188,-0.08675442201351717,-0.05232029482800327,0.0798204131323497,0.08141072630788805,0.1555564539432148,-0.2321951395809774
-0.04739473468910991,-0.18692760469989905,-0.08013836272659938,-0.025687398321605385,0.07124784949188587,0.08214837952122296,0.135039344443234,-0.22399673133190118
-0.040649327156947364,-0.17869839708103175,-0.08704971525569627,-0.06689443963344742,0.10063417334437855,0.11842861613950714,0.12347215299158981,-0.14039197865964345
-0.04416224327248617,-0.15627115026076047,-0.08519426556092843,-0.07429377130724277,0.07143139617917314,0.09785554807874869,0.1481134879360508,-0.2064305121650779
-0.03639328657171694,-0.17455678705486846,-0.0636082472549077,-0.04923061973470493,0.07873795661710548,0.12716247069653225,0.17073962867325213,-0.16734356147794366
-0.023780969779413207,-0.15211371819595684,-0.06923070400033207,-0.07329887622477822,0.11804003546423238,0.17408510667364505,0.1246802465571164,-0.09907381751101046
-0.049186066351515935,-0.12179038302947522,-0.06927994441639089,-0.04946860457135983,0.10214296227316548,0.13546854613955764,0.09417724099432903,-0.2148643442621015
-0.06966012585035097,-0.13446085981949943,-0.08204654896827979,-0.04227246087597842,0.1186071687963602,0.12327609098732892,0.2042208081651686,-0.30110009151196154
-0.06894626305806185,-0.18430536715688922,-0.06719665411906464,-0.020347119808786916,0.1085987329132754,0.10203321015539293,0.15409146962458917,-0.35598975933616617
-0.09282677400196829,-0.1433140657223785,-0.054034297721682806,0.005821247653456627,0.14288196713209103,0.10799906551740768,0.18978432634495848,-0.3216684893868376
-0.11480251468863155,-0.152138740282181,-0.04135494532479999,0.02030479289366983,0.12716078144074644,0.11125759967934361,0.11345595724937764,-0.28668396538465685
-0.10755491764774758,-0.13337197318896804,-0.035312216202976775,0.026341882824204785,0.11833215212549633,0.10078667369033202,0.12592712466209202,-0.28548024113861953
-0.10612794356014803,-0.15332600740351301,-0.020532730433160014,0.028290474958076794,0.08841832366509654,0.09080804763279632,0.12099554735678039,-0.33451993169639255
-0.0839634390276814,-0.09836350946400191,-0.004105111307018036,0.07806095315576467,0.11317048049602578,0.07709333986737388,0.06396556033100916,-0.26311046398976856
-0.07421781323342656,-0.10011684131113746,0.008497736361914964,0.04842428389032035,0.12133482796190485,0.08497669865530343,0.0614844821522824,-0.2706283011707182
-0.04778919663375062,-0.0724281486874732,0.014675453007934262,0.06995870573251034,0.08711873844621529,0.06823124787576687,0.16012150948169104,-0.25115060464313105
-0.0413791670229598,-0.08309626466030537,0.02413508138515712,0.0785992525112673,0.10496238820625016,0.13165288263628921,0.14849697981329169,-0.2574162862499652
-0.026943385606579433,-0.06374827740464625,0.03939507919368923,0.07581145370488226,0.12372104592100204,0.0947094806197675,0.15439519956722356,-0.24292843741760464
-0.03094699572815846,-0.06703304427287579,0.027155176475159536,0.06125523895705988,0.12531362773198884,0.08300733405510345,0.12015922381931299,-0.27295667429800974
-0.03871810595152705,-0.03807624335344807,0.030482441860093128,0.06921899443441318,0.08719540820503664,0.11526427772683051,0.09791336720207766,-0.22254163461406634
-0.054382859504570655,-0.04438391808510622,0.03218740068794412,0.06455880361464827,0.12696889918922977,0.062444547302946914,0.09015186481341256,-0.3227060547684134
-0.039965893206586084,-0.04188780292498176,0.03881701075200678,0.08857434894286997,0.12857459394677093,0.055649909373999044,0.077840271765172,-0.27391371205265486
-0.02683332539906808,-0.03394930960371523,0.029483648117776186,0.08092269005591646,0.08976680603548548,0.11533005186709668,0.13869269262982561,-0.18489303306900104
-0.03116009622346321,-0.0061652287309688645,0.02350648762786487,0.08663335192970247,0.13205074695689514,0.10429503766840513,0.1790564703871303,-0.21736098531606718
-0.04539629207904862,-0.014216850228187874,0.03119406789968026,0.08545715153908247,0.11829078563754673,0.12278642195958074,0.1611556548056271,-0.1990090912441683
-0.02074671481159152,-0.03259511919749894,0.009472061116757573,0.09603505128417565,0.1328810195196249,0.06622646065243698,0.14746360666658678,-0.2996236486685249
-0.04559886435158895,-0.06837072342671417,0.01318339050296192,0.07665252326827456,0.10690769249281645,0.11334177741466653,0.17044365213634982,-0.24207670841714798
-0.03914972086233166,-0.033135152326766525,0.017825960230609176,0.049410891309443504,0.12367465123840238,0.1651734028111105,0.1936002418619085,-0.14985484817412587
-0.030467809554603962,-0.02808350246456813,0.015349898995730334,0.07632406249485472,0.14811841140299067,0.11330306965595352,0.16305399916867072,-0.1527081608452658
-0.03451902246836522,-0.013489296287614463,0.01574020906628801,0.06341575127625582,0.14269509877699613,0.13762830247296287,0.18300645149618827,-0.2666303279263165
-0.06602613062657889,-0.03824285828412579,0.007066140948284122,0.08724822126530357,0.1143673044421869,0.14468917721285895,0.1972943173382262,-0.25698741778524886
-0.06387717621158008,-0.035867412162790255,0.004775541801942961,0.03715348850761637,0.12951160630662134,0.1774608031691286,0.16734527641539068,-0.27983344007721594
-0.0413726717399316,0.009354509880271021,0.007113508125065517,0.051751447072697083,0.1400142126012273,0.20270643262292787,0.23922148848738264,-0.19557656283888508
-0.036338682272470745,-0.018906910532489767,-8.431597650624053E-4,0.045695836836232274,0.15571076596720093,0.1860447155424286,0.24481876776012207,-0.18579886312207686
-0.044278852143680235,-0.03084037128429279,0.008318214734454843,0.04650361000386237,0.0940096911037958,0.15330684927288424,0.2756701133874993,-0.13938565232202013
-0.04593498336213405,-0.09859747021792326,-0.005302403653368633,0.007921391063042136,0.07272611392931477,0.1609475794341599,0.25076170695142025,-0.19280436554810873
-0.053056970257427824,-0.11803236381511838,-0.01838804603753732,-0.011410178587705613,0.08802324970066158,0.16675012269051415,0.24326257001988486,-0.14113664605294163
-0.03762118838155023,-0.08758082258381962,-0.019656100582277035,-0.036264728683702244,0.10593599187833683,0.21709547511264513,0.2618095478152727,-0.1039251830444985
-0.05256293507801413,-0.13363363558414598,-0.03394677117087842,-0.03824956604231703,0.10357931244660644,0.19130814032522847,0.298740299711074,-0.06922858663533404
-0.058877208242997435,-0.1334028149601369,-0.041737940731648264,-0.06250826741697148,0.03500200952176183,0.19366167712210475,0.25812861853094016,-0.13169285880072906
-0.07466664243595511,-0.18909216983162483,-0.05859916252045315,-0.056366433205284616,-0.019590170374000855,0.1396365682733114,0.1681914168918943,-0.03505504144978485
-0.06580960665889915,-0.223509708619525,-0.07544284773142165,-0.07299255772195327,-0.012627193073070295,0.15844222094226848,0.1718139429444356,-0.14283712594690962
-0.07709596885229127,-0.14730273284483314,-0.0631338016958473,-0.09478249446183405,0.04250763008982495,0.1359105691916564,0.1669154229240189,-0.06637959704274023
-0.062035820963855265,-0.168863347163192,-0.0661965086960175,-0.10722628164893074,0.03506068720545338,0.20380443077454546,0.22312949976211854,-0.013499335734368817
-0.07681464751282739,-0.1907728268203583,-0.07859159233884859,-0.1022230674319137,0.04330471374841506,0.13092914623318494,0.18496888242893905,-0.07079415464687402
-0.08958494207747372,-0.23095073848594594,-0.12238437183460521,-0.11688426319997354,0.06589399477449645,0.14002474130252807,0.14772959650139036,-0.15928052180748728
-0.12294012693875238,-0.2634094424399547,-0.1266662083850001,-0.13222588500939403,0.07694418785216929,0.12794961551470835,0.18819854601983346,-0.26046251821695693
-0.0983179608160504,-0.19513193709734,-0.12268128532046113,-0.15408178580651188,0.08938445742330828,0.1291869091972391,0.18368354294577738,-0.17823188729334222
-0.09656782644302662,-0.24673427770407955,-0.14805413120230476,-0.15432679719831652,0.0923672502935857,0.15577944461054277,0.16381311257619263,-0.22680103679434035
-0.09120561782698441,-0.23805200964774695,-0.1433028258230066,-0.1270327605118145,0.053707504376601344,0.13899330252900446,0.21982561442204301,-0.28170241256154654
-0.10326927578505948,-0.2511716574136003,-0.12724265063176118,-0.13343707567410232,0.06287047414257427,0.12246476570234327,0.2000825068366012,-0.24991154815220704
-0.11617699726941243,-0.30123660160180077,-0.1421268426911351,-0.12256076510682637,0.06365983530590426,0.15839798867983815,0.2037496276242939,-0.20407383193899956
-0.08200481716151611,-0.2589040551012553,-0.110540460652942,-0.13202269440940975,0.11073490113108572,0.1765497260777015,0.1188193275933211,-0.030144442536886848
-0.09001754917698698,-0.2920342336100592,-0.1223402843547075,-0.12085630390318185,0.02429304816917268,0.1787519316745902,0.17902835187343666,-0.026395223923250413
-0.11275533916275089,-0.3300402167369053,-0.14856985649765056,-0.14331763644818557,0.02572191385966164,0.15120631323763653,0.16360353350226398,-0.03850638706258874
-0.134589490349584,-0.4032335839510502,-0.16673121393763013,-0.14973879562227366,0.008575594316199786,0.15009570389735485,0.17051490623200335,-0.15698390880892105
-0.12594678096357528,-0.4381978583798603,-0.15884966333740955,-0.15147900093801675,-0.03476042511251008,0.10434601771026181,0.1774078174068758,-0.23694064856731065
-0.1095729379569812,-0.32941938805304805,-0.13556350035556625,-0.13950399063458904,0.03695018625306817,0.15033024413282323,0.20987851155978066,-0.13049264988781825
-0.13053141564941412,-0.3274870870923224,-0.1671502483183484,-0.15929951059494318,0.06488018237749137,0.12670130708703056,0.13702150239917285,-0.14091433033548456
-0.13324358530045888,-0.32727177299151344,-0.16703376443473827,-0.16514622184227273,0.05132680420636831,0.11229056996517157,0.16599176905516766,-0.3472163021945906
-0.1694872836461427,-0.3220589829087288,-0.17037064042195288,-0.11945106467959163,0.02274786645527565,0.10615718452226641,0.15148964580239327,-0.5416000394550733
-0.18014804506788276,-0.3443545102975386,-0.1703424429871788,-0.09018561503890428,0.07408289737272324,0.10570633303035179,0.18981919365223915,-0.46424846985104057
-0.1901095131774951,-0.29189549241809676,-0.16523707465844,-0.09504245750441602,0.07686681489225682,0.09335767328162063,0.1204406825030501,-0.4274278802012755
-0.1875740731149628,-0.3116748345805267,-0.1605617866044553,-0.09696698187360912,0.056902304473579544,0.056357655776265524,0.1019368463484281,-0.44848818653663264
-0.20258726108619543,-0.3006654290830864,-0.1562672210871025,-0.10490822605983875,0.04373525345013647,0.0808883855026337,0.11545698505606107,-0.6230888451742115
-0.2205269857092608,-0.3561034695644342,-0.17559019720014846,-0.09010797516173252,0.044912504294842774,0.06078748440062618,0.10402287035306226,-0.5254732215608362
-0.205195335290137,-0.3121627606959576,-0.15413512234515875,-0.07454416569564452,0.037714527245135646,0.11408370816232692,0.09587831682471518,-0.5103997782631908
-0.18264649356015336,-0.26490656390630546,-0.14891906565204477,-0.08989785029497718,0.07530159462092428,0.09164983905301606,0.1558242741482776,-0.5229088059413113
-0.18313248721672692,-0.2935550314365255,-0.14843795305344362,-0.07352190235983921,0.06832876552240913,0.08918675330798972,0.14491778882043485,-0.5765606713517534
-0.19333833871703998,-0.2756333979506711,-0.14540781827122912,-0.05639243834210944,0.06928561802632574,0.049801644275885494,0.095264636157098,-0.5346232014681503
-0.18984334196125838,-0.33193346790616557,-0.14239772128771605,-0.07368072349146043,0.058146959210324284,0.06572186461101111,0.11602702493582885,-0.5878672269112937
-0.16081252748901798,-0.2867506219377653,-0.12966200826727775,-0.04362328651024745,0.03764945912093626,0.04686118845743698,0.08869854753094927,-0.5744238302722463
-0.14985438295100026,-0.26156779929152657,-0.12565469928246484,-0.08515283837473102,0.057362538129624815,0.10820240513386097,0.11531268141297192,-0.5328284587952629
-0.15238261632307964,-0.24427330533522063,-0.11361953749170998,-0.07062033561958832,0.06912816990317108,0.11057234501469271,0.13191397165855312,-0.5628883042590495
-0.14598281337795185,-0.26648491466880075,-0.11977100486868063,-0.05464844039082508,0.06967437349791337,0.09869525868470709,0.15263835383531485,-0.5392219475176396
-0.15277282525002103,-0.2867707854655271,-0.11538013074850695,-0.07047572969507196,0.05179664710534261,0.07430623815869186,0.12514231095033537,-0.5728326345309622
-0.12134218667771322,-0.23899332866620052,-0.10319832412331735,-0.049773233420820406,0.0714314460145688,0.0802178052633931,0.19388787503211685,-0.5596224795821759
-0.14701121642608397,-0.2215356283959714,-0.10854318664748785,-0.05036256648927031,0.06277525671411188,0.10983236259683568,0.12430314276532632,-0.5127784836961944
-0.16046830560944148,-0.22552055737704724,-0.10927750722733053,-0.06503023225916119,0.07870576831627185,0.06379245240083595,0.1275426386726125,-0.5464985429961059
-0.1574267271082759,-0.2357917163872917,-0.09837756333262249,-0.045642115747701315,0.036937881332244286,0.05904790158801066,0.12835007987752467,-0.532027765628238
-0.1463808357563615,-0.2710370458652179,-0.09810023188463662,-0.06549858110848299,0.04871974664198083,0.07662120983636904,0.11089804430614646,-0.5733299287863326
-0.12908333008705922,-0.20380949310906699,-0.09152033244565709,-0.024052952026672014,0.07643079659871996,0.09822030061477913,0.11133097005738997,-0.5483840461854569
-0.1312301880548423,-0.18968900362168337,-0.09389393717781092,-0.00984696958281205,0.06280721789997608,0.09574993494630524,0.14453060482264704,-0.485512095814393
-0.13662413137293397,-0.1980092260919742,-0.09214256879276815,-0.019397792347300144,0.10142744226532956,0.09694666955953601,0.13576545570906845,-0.5523858678355801
-0.1289019666585723,-0.20305739523978183,-0.0882974659101064,-0.03752983701478391,0.05738693536801255,0.09900236387856007,0.09141000261199453,-0.5431387409256291
-0.14151299340996332,-0.21109758925939218,-0.08043463901371262,-0.019457098137688686,0.056125627213694525,0.07928220652899746,0.14511161662502994,-0.5592541968844132
-0.10376678047513384,-0.15359213103701735,-0.06061752787251522,0.0011913626992838444,0.11589673630311513,0.08329773542429449,0.16893391952667228,-0.5123946460067557
-0.11449352598932357,-0.15457929264353512,-0.06412044123511049,-0.03427291303825879,0.08821850703505942,0.09388302020116351,0.16432614138796586,-0.5312313795989145
-0.12426000812257484,-0.16503988888113455,-0.06866432982842927,-0.006359047650160942,0.09025197440552847,0.10534649729271822,0.08413697357487855,-0.5341012979472699
-0.11579038102326204,-0.17535729391499713,-0.07764245473986697,-0.02523412964150323,0.09045369203620238,0.07797710651021082,0.12383980111547578,-0.507539288509966
-0.11253287205504423,-0.17732071027641585,-0.05968636294649024,0.008712195150524385,0.09944288875499595,0.0852529602266971,0.10420954089641524,-0.5337577846406804
-0.10496591359900773,-0.10769343886041013,-0.04922490950033422,-0.0015291337160234914,0.09141827333607053,0.09241274236407626,0.1310618800285093,-0.4681210445773676
-0.08329470967759865,-0.12190806029504693,-0.03870087296719727,-0.0011599010995351027,0.09314242147967272,0.04609220231423987,0.16331428937314998,-0.4670186020143889
-0.06154125305298781,-0.11530316110874478,-0.04409374815852686,-0.023742753259601818,0.09932817522316847,0.10598595763589991,0.1836949903162133,-0.4673934621108542
-0.0735694611651189,-0.15265065096423203,-0.04524982493963798,-0.0070995750279257515,0.08445107921457817,0.12308166476817903,0.16196559644565348,-0.3982339095726263
-0.045502199554282176,-0.12559018553894463,-0.02374515808939327,-0.02492406998686159,0.10552295996530264,0.15515959603734705,0.20400444568788673,-0.28922889664385376
-0.04158587986512444,-0.10139516718772129,-0.020036570310461268,-0.05738127884319003,0.13584706562177024,0.18993073376430786,0.24735098607720452,-0.19387958142094824
-0.030335640265606936,-0.1086425005474741,-0.02090638851930238,-0.028684816064652337,0.13216666187977344,0.19869587135895822,0.17645475792133467,-0.22153763887835015
-0.02906541045064191,-0.12355358617213456,-0.0068865320636899135,-0.028472322620861617,0.13464310747207528,0.2027773362469811,0.17763496779247925,-0.2097392966689988
-0.04631537013131018,-0.1769192128953811,-0.03463302962159244,-0.05111554364384175,0.10059741261101014,0.14929880239764984,0.21606782173197323,-0.17994878722034482
-0.02171018632988025,-0.08600770738161027,-0.014209985002188,-0.027288616140888143,0.13125755058704933,0.20727915118275728,0.24475289816704293,-0.23348177556813773
-0.01728527400738059,-0.09257222708444553,-0.033172081982671915,-0.03505434034930732,0.13094474876876347,0.21895914407917702,0.23676521600069061,-0.1349529405095441
-0.01535483657493821,-0.1085300401573059,-0.03124656096851814,-0.04010801340553947,0.1297700377019809,0.1726777068108804,0.24409120379945107,-0.14490676639244626
-0.03778861578212001,-0.1491170594833877,-0.03679446923948576,-0.08214392786768167,0.12013507561573064,0.16999894704720747,0.21443360152697455,-0.18628497187442838
-0.03923273249916056,-0.139868761433106,-0.029011609878412923,-0.04557184125122841,0.1330224223378201,0.1357908361104844,0.18997299052921426,-0.22267220010844313
-0.029989117642586882,-0.10656437301649349,-0.03160007528018307,-0.052141876947389316,0.12470181571272877,0.19017183080324523,0.1568749997865286,-0.23624739916992588
-0.02698651875216867,-0.1005467749579659,-0.046780248789271096,-0.06873419903538545,0.09926230610436426,0.15953009109716135,0.17388171229530333,-0.1507672566827293
-0.04259323127965483,-0.13261355296204297,-0.03889852793294247,-0.05691592086285612,0.11544541979200912,0.14973169394960256,0.1710704841446374,-0.24920494356618134
-0.034875547103601315,-0.13241992738670463,-0.04060390486061916,-0.03689989114065101,0.10236091733544568,0.16911090300201012,0.21604637254539058,-0.2277874630840371
-0.007519445761142147,-0.06458138219698603,-0.022316541096339192,-0.04534698319637053,0.1426642021989162,0.1749385936148688,0.2135509901034418,-0.15363783227331987
-0.016721666878919076,-0.07361860326882606,-0.019820378002877455,-0.046801881972222854,0.17237563566039768,0.18771679989603185,0.20415686342660969,-0.15301538327169573
-0.03779937453694819,-0.09980747370160298,-0.021407899319117706,-0.05490184307453198,0.14278909295138195,0.1836505612947218,0.1767149955978571,-0.079358232051808
-0.05489579806253033,-0.12940501728677475,-0.06268532744320442,-0.08792227010251356,0.13688619758716336,0.11884398604974931,0.16653596597902184,-0.07097493590622564
-0.03158562351097381,-0.05309184437941154,-0.048394261899119294,-0.09832990959333493,0.1364147109716473,0.18533031602365907,0.23165659708245834,0.036366446838460055
-0.011471655917837604,-0.05825049316342496,-0.05084133651403686,-0.0675441567690154,0.13969002329285216,0.16582492837443197,0.2038605313269184,0.036346755806616386
-0.010656051428100123,-0.06417487989822769,-0.04169604477541389,-0.07633609910718607,0.1436498687525154,0.1875161672384409,0.19832277699205667,-0.00900282369679303
-0.028527109022453895,-0.08074000489775103,-0.05596688573456095,-0.08026497129411253,0.13536388570948807,0.15420617041852935,0.19325070794512084,-0.12021579835885939
-0.011350011139227583,-0.013703223139620717,-0.0459226453359006,-0.052686118578363514,0.15819574395703456,0.20696762838555657,0.21062361092371826,-0.05404682711640998
-0.017554957094547526,-0.04583273255428077,-0.03018322298332929,-0.07383117951358627,0.18438392759971797,0.1882218961744547,0.20951456499222085,-0.0983268364205047
-0.02015552745073018,-0.03826732238692674,-0.033748078617144024,-0.05409921189738739,0.21876878577114095,0.17757000398437944,0.23610019246166836,-0.09187675140649389
-0.032973192171479246,-0.08653964017271179,-0.0492583050607896,-0.04907620225356985,0.1482742871004682,0.14567725438935808,0.15962828611563756,-0.1002279931067843
-0.010820540709917998,-0.045644921112731725,-0.03463929441335116,-0.057849283186227965,0.16741614470811525,0.16734100646917044,0.17964864950192821,-0.02606879550415561
-0.027035381779461264,-0.05355807640212703,-0.03258355159086814,-0.07611694725482164,0.17457786728280927,0.20062434954529945,0.15854119068328468,-8.103465015098869E-4
-0.029361361384553288,-0.05348793121978885,-0.036084699795671984,-0.07387491815997375,0.19418452812980824,0.19100581110721682,0.20310349325148375,0.012009675349089328
-0.013835341443020982,-0.07995602936782699,-0.06417521539835849,-0.08673746598863917,0.17191345200054697,0.1847502583947387,0.15577720441551032,-0.015991582310755436
-0.022232956778084054,-0.062487928087880215,-0.06749368033498496,-0.10114037385324268,0.18452846217557287,0.16998131983069334,0.18861585840318557,-0.010384775080874896
-0.03536997583369326,-0.05788591291678798,-0.062394007172700515,-0.10645460692892063,0.1795303019085539,0.18662307777096498,0.1505819883383214,0.028839476757111893
-0.03874171166432732,-0.03422062252626103,-0.07477298875574237,-0.07887030644360714,0.19202338135260638,0.12907178580548254,0.20270370416134756,-0.024008583206958443
-0.04216625234185197,-0.05934208964554904,-0.0760416879294459,-0.13570160110867294,0.1691949513456325,0.15316146205276934,0.20428530420301055,0.00278342368001654
-0.0438385446791166,-0.0865243189804578,-0.10168921326442162,-0.1078590132253785,0.15816247917733472,0.18059481625740004,0.1708206419895564,-0.005851142281231871
-0.0389497712407263,-0.0592328415172695,-0.09241341898017001,-0.11153835938964492,0.16824427336940193,0.16394293617770964,0.16863741437743981,0.06625336296505377
-0.05915582850278864,-0.06061043373996345,-0.1296826164162223,-0.17026018051901426,0.1685075227131997,0.18078516623051974,0.1849190735365629,0.09903855374111314
-0.08076496473833154,-0.10272142313266097,-0.12901329813422782,-0.14841255881420293,0.1791382151797806,0.23208171705888525,0.17993483365051907,0.06056411349503708
-0.09024155880699213,-0.12263888586465152,-0.13888898525603655,-0.16890249696726525,0.1608837026967722,0.15367967624876727,0.1854080028021967,-0.059174589171676825
-0.0789250921444301,-0.13924799443926109,-0.1305014547299799,-0.16416397685291614,0.1561835582323912,0.1838399750563858,0.15762520386507295,-0.09071180507378833
-0.08030670054935009,-0.09772564563440256,-0.1391953495235033,-0.20635738859454641,0.18641729453652517,0.17162001003921812,0.17000303424827803,0.03622364516416214
-0.08701920146068584,-0.10963994946374105,-0.14946872452155066,-0.1573688559268325,0.17369035104217062,0.2122630247703437,0.15572884012756727,-0.02037327154376882
-0.08747249562791405,-0.13928311775309624,-0.16015824571436613,-0.22142754309427945,0.16029444472233012,0.1377986890443416,0.18584347812122065,0.004894191069432539
-0.1045215747516777,-0.15394367924590868,-0.17406794664526104,-0.2145979316860196,0.13565490148620749,0.127741205535058,0.15626529668119854,-0.07016231570199696
-0.09734518463903857,-0.14997286706798565,-0.16232917830033997,-0.19463430670406473,0.17149350170580266,0.16091502021437754,0.17442261023385758,-0.060661826108627755
-0.1055136592555368,-0.1760550984581782,-0.17084261847891744,-0.21441362140040515,0.17411398328006727,0.16259723983159388,0.20067632331932328,-0.01695109883230714
-0.10252178346910189,-0.16126819666366599,-0.19603083674455546,-0.2338524823590676,0.14322923831024675,0.11686548089912967,0.21958603441227104,0.021207947709323643
-0.11584507605707334,-0.18235054174038604,-0.195218579367201,-0.22487926395956642,0.14438374289149886,0.17020482688558447,0.1672710825721899,-0.07296567965386579
-0.11712121058368011,-0.20521007109190972,-0.21698022545403473,-0.2131977869260147,0.13628417758379582,0.15398048926285707,0.18757402082615443,-0.08187103926046223
-0.10856129731651991,-0.2236485019722686,-0.19938181047470896,-0.2191480585018996,0.14116618918671603,0.15087349748821227,0.1918692154713807,-0.03096636958353
-0.12113075688479694,-0.1819533594952664,-0.2057233673328293,-0.2440340140581218,0.13100031297394135,0.16709174943256996,0.16973717232594054,-0.01661065181600328
-0.11839106315347846,-0.18339090417375992,-0.2050705507833125,-0.21381829972347205,0.1621553818979553,0.1687276979114863,0.18430320100932845,0.0037807637496357197
-0.13858193055904777,-0.19077594873538117,-0.21805949161159552,-0.21379266412048153,0.12444335131661871,0.15304525971484767,0.1269631989933725,-0.049336749395879675
-0.15689432499435055,-0.23986884596514246,-0.2295594358810822,-0.2573068865050334,0.10298433349863537,0.17634944355676194,0.15704917997977136,-0.15421846229330383
-0.1347279737154107,-0.22637339897206468,-0.21046032321057573,-0.248115274915319,0.17043312648384876,0.14831304186785543,0.17066116645480844,-0.03269755339072422
-0.12054983071175929,-0.20512071952615712,-0.22774933292512659,-0.23678883246699026,0.1431806226280713,0.18319720611288345,0.22161611759680472,-0.02071566450616279
-0.13689179208869676,-0.2387565690627734,-0.2206351039609709,-0.24615770006102686,0.13435442340193424,0.15113110649088402,0.1379936609004703,-0.07096977317367494
-0.14065793995089512,-0.26241077216930053,-0.236516472774326,-0.2772941265544359,0.11663256718034719,0.15033943123451585,0.17627698445964116,-0.16097584524504063
-0.15468336590157075,-0.25953368526275655,-0.22919954225230088,-0.2703391268061922,0.08659727462623686,0.11559308767157991,0.12358572616777183,-0.1139982625613396
-0.14746246819962086,-0.20126406825491505,-0.2249956750640917,-0.2548573847383605,0.13804948490869925,0.14816097396350353,0.1570974618130733,-0.008205707759501355
-0.14074839145515758,-0.21781650962812757,-0.22755969944630514,-0.25632233263901905,0.10258663727048244,0.1432786253679858,0.19569177704182122,-0.034610579993020744
-0.13289886214081872,-0.2391472054990669,-0.23281082739527428,-0.28776770838308147,0.08986451561222021,0.1261919718017286,0.1593177032745076,-0.13056136037465732
-0.14267186231444498,-0.2658740768465258,-0.2489215507058273,-0.26850719007292406,0.10157802369360014,0.1385382287466532,0.1638032262366839,-0.1211425094508715
-0.14847775902231175,-0.28040232136050675,-0.24691313186145566,-0.27539398809517146,0.13384038758809946,0.09980006576668919,0.16242323057354288,-0.1995052927949546
-0.1548088214314826,-0.23812039903967092,-0.2458288834467606,-0.2804103207016363,0.10680382962708194,0.14857531895734877,0.13873466731822942,-0.08613551201676832
-0.15931667066674238,-0.22886700087306105,-0.23727077710715477,-0.291025106436343,0.12746409061958125,0.1398666453991947,0.15871068501968236,-0.09482130745582716
-0.15030798307533347,-0.2636985435494589,-0.24652632107394856,-0.28486881310421913,0.10605265481880895,0.10919230957586468,0.173150703532131,-0.1303383146109425
-0.16289733013993457,-0.27098597476407954,-0.2586351721632474,-0.29406458659238277,0.10755675141049786,0.12402603340510415,0.10940391110299245,-0.1768752054920523
-0.13634971772638327,-0.2287566671595729,-0.22871707955358447,-0.276094148772596,0.13275728974860565,0.11815196375332769,0.14384910796513314,-0.06344373680388637
-0.14640631771938434,-0.22679937114790538,-0.24434157499149392,-0.28392217713055556,0.12676304246710704,0.13899372557684223,0.17123873339005907,-0.09107506361838553
-0.15098700612459845,-0.22342548836434278,-0.2375325871471189,-0.3054747976013727,0.11629637369213595,0.1540404429061651,0.153369794586764,-0.018714892511944563
-0.15098147847911622,-0.2390901107076869,-0.24377428711205218,-0.28625582154211593,0.11014322554594644,0.1033046359529282,0.15139485815241524,-0.07975516006382219
-0.14952477745483092,-0.2595649761291396,-0.244539394934575,-0.2907954895120798,0.10268505850925737,0.0969473582218918,0.11171286384848624,-0.11554766321245755
-0.15063688166558253,-0.20706652258246183,-0.2308323862145593,-0.29570980086106285,0.10691541657128263,0.11524676225873813,0.10709069986826227,-0.05588394236856175
-0.14627091163572262,-0.21920190040370563,-0.24242298213427801,-0.2856177262921024,0.10513368515686984,0.13182187549690727,0.16925242647886937,-0.05414134481891582
-0.14438496348314922,-0.22485308366150908,-0.24008819863898637,-0.2873346409679367,0.1069233683227745,0.10502765350858911,0.11537009132033756,-0.032912998951288276
-0.15283612926364837,-0.23698173785159135,-0.24544854512534786,-0.27295324429117285,0.13072090887782378,0.12285867365644035,0.1497997737852346,-0.13165138428171305
-0.15478965308050205,-0.2197317960675262,-0.24278848300869532,-0.2940011356125359,0.10460414283402428,0.12806926923830683,0.09868707144762089,-0.13045867151073426
-0.14815054871307898,-0.20801116122735386,-0.23865481322400228,-0.2676932899370315,0.1026701117730926,0.1564760678269851,0.1803932371316707,-0.020549688542362613
-0.15123169296271155,-0.19478355216187238,-0.24012809069994567,-0.2884296417436641,0.12463793089143499,0.10855697576386264,0.13424285687670878,-0.004782609812693634
-0.15463431115856732,-0.21080362677996112,-0.23224815373980018,-0.2940807551684654,0.10386906404024993,0.1329256349270961,0.12910454881092076,-0.03965506614391154
-0.15945129726331322,-0.2203377757441393,-0.24887573986311262,-0.28513422361122154,0.08731496070507958,0.11589525011379134,0.10486694172468036,-0.0672844517336515
-0.16310883396533368,-0.2379629400886758,-0.23923328185433965,-0.277386327461928,0.09588103789512054,0.12215370475788348,0.08684221259671411,-0.06349276481193568
-0.14310565249544072,-0.21293737378484234,-0.24043746289550777,-0.3069590199403139,0.10535457987026509,0.12393158469163246,0.1657265580043759,-0.03988488953503695
-0.15131114103380156,-0.1949309716322818,-0.24918558481068775,-0.30702364492461653,0.1493850100404709,0.10480959511437005,0.15503724012433212,-0.08595778589256392
-0.17018747094238518,-0.23603401934768567,-0.2528401701469208,-0.3037611752227521,0.07564059332949684,0.12231388179022469,0.08795041787600696,-0.02165598520150236
-0.16642442729000562,-0.26059241509868525,-0.2652546617279251,-0.27126271484977965,0.08318833166815336,0.09806169509042348,0.11702090582922353,-0.06637713088471026
-0.16373751808157175,-0.25735995193681954,-0.2647948470729022,-0.3307627371942843,0.09304096504985561,0.10517495124462559,0.15216642215817933,-0.15895528975217219
-0.16993180040802883,-0.21477743594459792,-0.25784239058949676,-0.3118543873741127,0.09920591454579157,0.10524483800183876,0.13151305662604618,-0.042348086676573395
-0.1605506954716842,-0.24431627825501215,-0.26509965079299747,-0.32111492572796274,0.09879992093243706,0.1205961873522981,0.11346943715524206,0.004040973220596556
-0.1641612694392973,-0.2589148548521134,-0.2738968186432053,-0.3330248118524173,0.11956141510549989,0.13723331691160637,0.131309146462361,-0.10434538869034699
-0.1838058852264693,-0.26749561751079726,-0.2797372831695643,-0.3223779156404536,0.08353391865897737,0.1003797464357293,0.11261672476142102,-0.174953844053811
-0.1787828968402401,-0.25710219156073894,-0.27928101026811586,-0.34013136535691824,0.06414279221349509,0.11899506659219182,0.10531661528347804,-0.17948195149815047
-0.17176196516800474,-0.24757987324536812,-0.2800553349768662,-0.31065328159796046,0.1142373055361837,0.09865060070622579,0.1383297903864223,-0.0716116392940394
-0.17329871458949697,-0.256898519833513,-0.27847570884551415,-0.33695873148137984,0.10645542993186208,0.12945925438544761,0.10886980760981024,-0.047758948627290354
-0.18332267701038993,-0.2621130656646038,-0.2780759583160417,-0.32160066422861494,0.09279004899285748,0.10804329163188278,0.12281119499895883,-0.06505932783270195
-0.18791706132364838,-0.29170142680834016,-0.2989350798021852,-0.3491081010625139,0.10734420237254888,0.09933961620534487,0.11885606731102075,-0.10832148148322858
-0.19439460490692503,-0.2947935921746139,-0.29788357876209987,-0.34574024253268787,0.09426199325925291,0.09755427837255297,0.0828701617010104,-0.1424024604001086
-0.17973532664304323,-0.24465477591319804,-0.29311930132921765,-0.35339866354552196,0.06874468195925247,0.10025373436822858,0.13166712153575572,-0.07781538330770447
-0.18232772255752044,-0.26740100042465337,-0.29476873994058145,-0.3463591188628068,0.05494870784603937,0.09485845896894864,0.12250349589666713,-0.12487924146029193
-0.18780656596508585,-0.2829946839954048,-0.30079151026680406,-0.3488475645621632,0.07969422682684987,0.11661683393614594,0.13348557547986922,-0.06669796962015463
-0.21146929311571844,-0.3077934688010011,-0.3062828489420768,-0.3472032505102754,0.07089492034639945,0.08347392509655463,0.11839903749122034,-0.14574642781912295
-0.19955610865075676,-0.318661071122503,-0.3139851425661259,-0.362018141150072,0.051914274297857686,0.05914939667168492,0.11583415241380364,-0.16353134128268637
-0.18796179505070174,-0.2630940666474763,-0.30871383973722766,-0.3655610969529511,0.07608824525763251,0.13157028344111119,0.08641688749477582,-0.1488983995166061
-0.18966305093188615,-0.27446047025158316,-0.30477044277059084,-0.3585064562874615,0.0858402080283208,0.07895563379295825,0.12594735919771063,-0.05477294563555577
-0.19778677097788303,-0.31507011462048284,-0.2903098133488433,-0.37791454350941023,0.0866962334518746,0.07330635738987495,0.07518383996758621,-0.09765346234901137
-0.19363167053816605,-0.27614065424070594,-0.30303012183103456,-0.3354698501931257,0.057639491707576915,0.08367371608345493,0.0639401696581562,-0.11479252689174595
-0.19392664581967614,-0.3292464657840047,-0.31028904918956574,-0.3756467834455615,0.08644140627667887,0.10034796262490683,0.047760552809899486,-0.16979731224872446
-0.18826422360791278,-0.2878436884969982,-0.2975065493601756,-0.35291327201251704,0.07414473945092447,0.12678025023885406,0.13127584181903712,-0.09781458525663965
-0.19362023713460116,-0.27440886861671404,-0.30056036607108344,-0.36568770130587563,0.06797833708720877,0.09720490040496085,0.08587708595257304,-0.12378398151834966
-0.19687055637199039,-0.28013560598198645,-0.3009016756555408,-0.3650537147020792,0.06641645420189242,0.08269093154664968,0.13783945103405165,-0.08778759070444675
-0.2009634829616038,-0.2969793570105052,-0.3168351755131636,-0.35016465261269775,0.050524647101003434,0.09014899850199441,0.13809316866540872,-0.20871179788297617
-0.20662703876071795,-0.29906843948609624,-0.30836828147312123,-0.3626313471138643,0.07152635911569667,0.08988672962099724,0.11581972527340104,-0.15973453392103582
-0.17536735427186428,-0.2590052205207977,-0.31018810356496773,-0.3534614707718906,0.0967419890582324,0.08816348386822949,0.09633694076258195,-0.13546960486427204
-0.19657224170711235,-0.2457918749518775,-0.2970925607454651,-0.361302347142437,0.10055222370924864,0.08905786143180004,0.09793241730602072,-0.1616142718072152
-0.1981457950609503,-0.2675543385946263,-0.30630188889975807,-0.36375157505368433,0.07629683216824669,0.10345435527471931,0.1446595928974095,-0.18275085750200018
-0.215630040828325,-0.2661344661678057,-0.3199780970922795,-0.35366599381672414,0.07030168012372713,0.05478990226239089,0.15300182505283297,-0.25805722757470806
-0.20393521048133245,-0.27622190661795437,-0.3108162126351613,-0.4002009162320049,0.059585124126667575,0.06076939776259682,0.10712541204788277,-0.2851083287395859
-0.2085846959131216,-0.24353472176552463,-0.31023366926697515,-0.38837746861983363,0.07353197521383117,0.09190016927557255,0.0833283342934399,-0.23883574582783998
-0.2059670694531209,-0.2379223021099237,-0.3101477103286447,-0.3506682523669909,0.05166296493522382,0.06229990712319242,0.12027461885017425,-0.2293085537835844
-0.21923783700959285,-0.23886887030965942,-0.3094159811448362,-0.36136832149108733,0.06918402828512446,0.05237171201600593,0.08512279946237634,-0.24835416095518179
-0.21430943266747934,-0.24577399829350416,-0.3175589567249058,-0.37218776172617773,0.04577731224953967,0.05713593688484407,0.06534151688541263,-0.21525976359421145
-0.21749093197048047,-0.24535794826074683,-0.3257262068000992,-0.3520645976853389,0.06459648554798215,0.07187928475777988,0.09589679199371892,-0.2956722530698326
-0.21396119070196243,-0.23713149827570912,-0.31732174986179124,-0.36728867431778434,0.09007074858290946,0.03857844391424826,0.15185354051878613,-0.20342318289173084
-0.19633251199543594,-0.23026552129681682,-0.31542333927238503,-0.35403830229122996,0.09811464479674373,0.07704332269578934,0.09436637618461557,-0.2257953592355326
-0.23258936735797636,-0.24301362692072523,-0.3219571023201473,-0.3994274059255027,0.05739135199762461,0.06463072444922242,0.08360634596083445,-0.26341943461844886
-0.22667750627802646,-0.28831386863506925,-0.32182263005376893,-0.3881493434517695,0.03161215188122909,0.060575742089206144,0.06710580752167322,-0.2852668897884093
-0.22316749587940143,-0.2624472417467016,-0.327372375815209,-0.37963904402167903,0.07836005806228748,0.02224432231701758,0.06728992930214174,-0.2797840219922403
-0.21320287259986023,-0.21663967143865637,-0.31084032620532986,-0.3670358192644564,0.06338151874230019,0.08736676445591166,0.11444058908192996,-0.1776333559479534
-0.21568214709902847,-0.22744409011537364,-0.3203043509643668,-0.3833325329215622,0.04140248611092374,0.05563670316907216,0.07302124048886875,-0.16636528351431537
-0.22180668993663757,-0.2518791358314083,-0.3401409890918197,-0.3647841764689415,0.07256845780682859,0.029947972944672274,0.12177910076635344,-0.20941614499052097
-0.22751259143591082,-0.27332906540218327,-0.33616186826966105,-0.3928151978964278,0.040018738286670644,0.047061104081461524,0.06045023553470452,-0.2794144721020502
-0.22807784843984438,-0.22341490732462685,-0.33524221603389587,-0.41257808632038434,0.06983530657302908,0.040464540445317186,0.09286151747768161,-0.18881638994560612
-0.2355332597967142,-0.2376643486515084,-0.32669110136386914,-0.3845955691696403,0.07596640292024291,0.07850230981938443,0.1058962070481475,-0.163131096273661
-0.23379409631607437,-0.23135837017258754,-0.33635007831564073,-0.4000735707605241,0.06012229067321472,0.06858247829283112,0.054894050996619016,-0.18814580210229184
-0.22495520520726575,-0.2721960588985198,-0.3443131454989438,-0.39992559278004003,0.07204260483203165,0.04033307059877323,0.11482216780810306,-0.22922393448883577
-0.2530118832078187,-0.294428249725018,-0.3613728034519663,-0.39630856625106164,0.05480023975288638,0.050687077717792996,0.04317352367664945,-0.23242835265003944
-0.2396327944916724,-0.2674830170240587,-0.34889514801246424,-0.4148212213176042,0.06546551564857632,0.07723522583628023,0.11271761355420448,-0.20378881472017984
-0.24433727378164966,-0.2563782897116607,-0.35339510991641565,-0.4025180252537904,0.07970548912299587,0.02024674491279379,0.10789432302559102,-0.18776215551527312
-0.24340748467647272,-0.27146831037055685,-0.3765292923146226,-0.412229338588604,0.038242784721880134,0.08993093346462201,0.10480805256178692,-0.17995315811570733
-0.2569210377517036,-0.29780010741185436,-0.3850371399624569,-0.46371311029474466,0.07012160121434442,0.03822516704615025,0.09860988831203446,-0.2912579144996011
-0.26669589505444974,-0.3095646544747129,-0.39680145529039196,-0.45857836115540096,0.08131138170742228,0.06974832908255921,0.02055102138214082,-0.2787328078647335
-0.2629534062512302,-0.2973459969963408,-0.39081990155567004,-0.4561247221074246,0.05427010961877361,0.060392298292816476,0.09517410850491112,-0.21751038857482394
-0.25125998744362693,-0.31146616827370216,-0.4058349351356263,-0.4721667122656409,0.060430256497610135,0.059864829256844596,0.07940101598932923,-0.26815758922576993
-0.2628703785712551,-0.31528052506231624,-0.39999663281230957,-0.45921407762748906,0.09434713497079471,0.03289995181570314,0.06674212745082654,-0.2251825963050658
-0.2638608633723838,-0.3435251649468159,-0.4082704839480414,-0.4562304033061339,0.04876774364346906,0.02972366584760486,0.05392514895779587,-0.2771315893861575
-0.2522473199199206,-0.3243808938695076,-0.4113921745499815,-0.48881349433356747,0.03669431344668119,0.07009535420304965,0.07731934960027494,-0.24774922392617035
-0.2547776612929664,-0.29201939893312584,-0.3983948895523678,-0.4787544302078141,0.07879163560316504,0.036272471542873844,0.09009847256055722,-0.15917651597873445
-0.2634815219142816,-0.3082397334199563,-0.4059246550522353,-0.46965086678074225,0.06303201825660754,0.03563060458453695,0.09580618217280193,-0.18230922051396348
-0.25995381078803614,-0.3099912910245919,-0.40145647576863286,-0.47341045007780364,0.04008734769894124,0.03513228792817351,0.08478813654195022,-0.2446821032867307
-0.2561055270647029,-0.33056307267799256,-0.4123630526294676,-0.47367977524087096,0.03855354349631949,0.047595562634731,0.049635751358037536,-0.26203550851622137
-0.2588178226987627,-0.30194115466299526,-0.40216884730796837,-0.4859233924067846,0.07153552013641991,0.04935400363758151,0.08532130431988104,-0.20577848151280206
-0.25128672812033176,-0.33098938102806336,-0.3936993818855564,-0.4616859060497569,0.07025611938233647,0.05287068904977026,0.06168900624026443,-0.18040565040648576
-0.25360027085963094,-0.3296664545012492,-0.4070852779862033,-0.4807622993151276,0.03410021477584682,0.036575564030005316,0.06370357785342479,-0.22949865204955863
-0.25639019096917887,-0.3436107981505702,-0.4081363833201245,-0.48320010273076786,0.035571480149378006,0.04550091043642726,0.023667477416801714,-0.21693362118678744
-0.24869365304167576,-0.3385265826740947,-0.40126219828554394,-0.484198600710114,0.06402209068173052,0.06059448591336489,0.08905812967052705,-0.2454104210829702
-0.25077277733548337,-0.3458382683590157,-0.4068270181044891,-0.4513804397688033,0.03478461162897254,0.04913920441293083,0.04018790597243779,-0.2109426827010692
-0.2527428647720367,-0.3334023082204268,-0.4068904339307701,-0.5032851114748166,0.055722208359061894,0.05307147290925616,0.03915394934097056,-0.20909546886914301
-0.2740848417728237,-0.3470708862398642,-0.41485170177710806,-0.5156884081746892,0.0641834965883365,0.04781757804888962,0.120808907591333,-0.20220272632588512
-0.27394800777537076,-0.3690715201908697,-0.42562051730528255,-0.5024623284566944,0.03452564467651031,0.0415542178140357,0.017819242020839683,-0.24215950030436875
-0.2570911212540826,-0.3261825021730022,-0.41931553927598764,-0.49214627610283906,0.02985948037106699,0.021194380468333014,0.05072897501197029,-0.26392695962208895
-0.2844500945252309,-0.33312574966594144,-0.42179808728657164,-0.47907214108426693,0.026188092469471437,-0.010371596521888356,0.04442706074936531,-0.36934688076147854
-0.26913318728850316,-0.34094873047934465,-0.40748419343002185,-0.47955732507755416,0.011281017862993577,-0.01573357198260263,0.035982802891234456,-0.36732337804314286
-0.24163170609291174,-0.3335144323152077,-0.39281788665629325,-0.45643521649523866,-0.01136252711816303,-0.017014258955950285,0.05517061455714068,-0.4193154397617912
-0.242669337627309,-0.33266744299081535,-0.37234990270710105,-0.44949115887341307,0.00976579394163312,-0.01785064213692148,0.008606997760536987,-0.3382496012145572
-0.22683807930535052,-0.29809172853719196,-0.36916892788876127,-0.4417359164873263,0.008811311634048465,0.006053021089845564,0.003713402935866299,-0.12536827000800804
-0.21387938118857017,-0.3001205090050329,-0.3687684893396147,-0.4577832454245602,-0.012575449423866058,0.04799921950860589,0.05543678242959123,-0.1747897377504116
-0.22419864131364223,-0.3268432301473338,-0.3756903081123949,-0.44444152557263283,0.019677911579917027,5.839632150839618E-4,0.04608804739364931,-0.19555471156215212
-0.23620557608496404,-0.3571594603613329,-0.36941943313091186,-0.4668358768655086,0.0020960075781209244,-0.01410578697115146,-0.00717578694491934,-0.21678739499278055
-0.2221236357790006,-0.3248173398816838,-0.3694075271688139,-0.46577488066135486,-0.022274033166691336,-0.004213073048616776,-0.009736872964279815,-0.15191780129184293
-0.21544582203926507,-0.312146891271132,-0.36067741992177704,-0.44695216583451436,0.011387207230952906,0.009101830654370409,0.01849473981989221,-0.0969883701226304
-0.22082016758015108,-0.32180036346085145,-0.3710230114503756,-0.47482354372559504,0.0014347146135454364,0.011493665800301766,0.007626159635516022,-0.06625305382661878
-0.22591517261455166,-0.31841455442545563,-0.37038419484053053,-0.4689523321645293,-0.012085190714330996,0.01911609544289736,-0.02328553809701074,-0.07815579090985227
-0.20981248686499793,-0.37585704595171826,-0.3711134515042945,-0.46512091815261875,-0.050546123536849556,-0.01097047683082681,0.03059204135886895,-0.07656522058725412
-0.2304842557227434,-0.35430477091959317,-0.3551253146102594,-0.4624644901457981,-0.008694237746449458,0.01758770672155568,0.021213832834972135,-0.10697769471890395
-0.22000075140028913,-0.3438307913489906,-0.3476847415068227,-0.4609077720447244,-0.011037062726988386,0.03395116869270845,-0.030851256532410484,-0.008875983413245504
-0.22110877115401106,-0.3442679622908726,-0.35776055320584327,-0.4668365642890545,0.006674483618275443,-0.005872217600805075,-0.03123541325867968,-0.056024843599439746
-0.23298906969936248,-0.33339598343342564,-0.36964541244311494,-0.45510319775727887,-0.030612678686733442,0.001560593021218663,0.027321482563297195,-0.11391569098463139
-0.22869238290270366,-0.3471639621475992,-0.36628492373736266,-0.4778858169493574,-0.04555115562770645,-0.013069777908602483,-0.060046693896182536,-0.12495479282685709
-0.21042002800724674,-0.32430450882177564,-0.3510993281275791,-0.4602089637078178,-0.03853433449024712,0.02041034992011811,0.004643356480945554,-0.05187687045136869
-0.21540783700978394,-0.3177342954501473,-0.35077220742803317,-0.46083357488667287,-0.04032375889126795,-0.01216156732856523,0.03012082055287543,-0.0357547175725332
-0.23163307546386147,-0.3179809765737145,-0.3692608152501689,-0.4856804412189879,-0.031841469995189366,0.03300944674425652,-0.018695139348318755,-0.021979110738163672
-0.2331208054304933,-0.3454979813574269,-0.37015026333088874,-0.47369476010844225,-0.017681280120402935,-0.008356701298462001,-0.011571275318266135,-0.0784316196725281
-0.23517829061685644,-0.32652825158676085,-0.35221649884645134,-0.4652591301750347,-0.014851576596696562,-0.016980142908188067,-0.017240098054031736,-0.07481784626958496
-0.22638147578381895,-0.3082574898737733,-0.35264585571946994,-0.44875192100248895,-0.03057799855906456,0.007570571530935714,0.006706677764724933,-0.028600856451055676
-0.21654322423009587,-0.31829683210035575,-0.3655445241387324,-0.45848221833026276,-0.007040454576918662,0.02252810016275021,0.0050494995089576805,-0.06438299106628972
-0.21547574811420095,-0.3092873536689299,-0.3533965729042986,-0.44371519017467315,-0.009680568821856628,0.0249819009068108,-0.010135230691657079,-0.04695565672305966
-0.2232092384333596,-0.3398310642928668,-0.3633533950352959,-0.4546519113367421,-0.028875697604855925,-0.00759402621056348,-0.031163746553945708,-0.09294587329782847
-0.20321773484814598,-0.303834669460951,-0.3480691954117916,-0.4547980652099679,-0.0587067962390279,0.022523649726391256,-0.012436281094914734,-0.014322444177575343
-0.2112643287955467,-0.322614990564755,-0.340268179828544,-0.4337651100599491,-0.033761043741018446,0.004006762705180978,-0.015305233976265703,0.025282474115655616
-0.21297902469250565,-0.318856932846952,-0.34807029249568294,-0.4601006615612378,-0.010686726236415913,0.009353597625480353,-0.031775083485821635,-0.007150609782737682
-0.22137560875263246,-0.3015335345426269,-0.357925877414847,-0.4597809541534041,-0.011322766932780372,0.0011392214743540018,-0.03316341228803767,-0.0033693274206723464
-0.21066409778615022,-0.3392111904718128,-0.36295886970369556,-0.4695083402573357,-0.04371501051007889,-0.029804498749884643,-0.01921886125224152,-0.015588838924715595
-0.21663731206891843,-0.31383523986177286,-0.3568290938919428,-0.4544249335466117,-0.02355965114549988,0.005013338883161653,-0.019095162918481602,0.0047415717541894765
-0.23928607085968773,-0.2932895102536226,-0.36729910368573837,-0.4806837254399365,0.02485573061713541,0.048895886093309186,0.019337473319233852,0.05178376722166713
-0.22819458414787433,-0.3153334652472494,-0.3709603490278448,-0.48444035006313224,-0.0026972120194622704,0.008295247714747211,-0.027639012571153494,-0.043305062377396605
-0.22372653054665056,-0.3153788264371153,-0.37386626680152285,-0.4728893847024844,-0.031873558318894775,-0.013943133082339455,-0.020407958195162335,-0.07756870631067937
-0.23088363908010234,-0.28525560443939024,-0.35414755759914757,-0.45849623803386486,-0.006569242539710647,0.014132135872759487,-0.01966507497893273,-0.026541708636262974
-0.21260601094948298,-0.2692737388181666,-0.35358160727309734,-0.48113278505695584,-0.01915110935387874,-0.02445094937380067,-0.010661419519318,-0.0066172431820117885
-0.20686296529412754,-0.305306404016178,-0.3452745308724056,-0.4963907384466341,-0.003140315433351415,0.02433798767142653,0.022009796824546814,0.02956871297749533
-0.233148722208977,-0.30235439242729767,-0.35747857210708867,-0.47383570887065574,-0.020541582932920403,0.013904502511445226,-0.04046308809000456,-0.10828934955108303
-0.21427633159337275,-0.29621693110779024,-0.3676864553225525,-0.4786163647943282,-0.032658694233558216,-0.04548612403533727,-0.020824974554671458,-0.0823372777563929
-0.20063595981394086,-0.29417779820809387,-0.37345696970370745,-0.4804392563537122,-0.00769444966812647,0.01737374675248535,-0.03877491957225126,0.012710048594931035
-0.21401650981885478,-0.2900056402654287,-0.3921936647397459,-0.45592146371347386,-0.027600327272342563,0.01235056851764763,-0.029858021584165787,0.01259405673828469
-0.22659776676852583,-0.29317788205716416,-0.3651665101483754,-0.4787716127508363,-0.021511949736882263,0.00884462396020309,0.0029432077003706245,-0.032234878013791206
-0.20645594164232348,-0.31973529984274185,-0.37903631386968856,-0.4874537850216299,-0.039032042072972443,-0.008924273676283715,0.010887671873441055,-0.12094723004849668
-0.2049474369433914,-0.32898802735875576,-0.3628187161864431,-0.4843111736974535,-0.03161088988585161,-0.03882950746295245,-0.019849202144209616,-0.046457028820173454
-0.20902158291782322,-0.32460672740464624,-0.3655599344529861,-0.4933199664135312,-0.043519085471534595,-0.02609548195997777,0.024734846886565028,0.029144369458551977
-0.23947883318066474,-0.31306465752987994,-0.3900778804224537,-0.4701117876924083,-0.01966934496284969,-0.036160272183669274,-0.011281935642029981,-0.04732764029800275
-0.24595851332785623,-0.3294612092500284,-0.3881017798322892,-0.5096533910237059,-0.027082026761428304,-0.01903766484827106,-0.06327188569893927,-0.1391434182954746
-0.24709878743626068,-0.35407612036129815,-0.3974059292078764,-0.4978555820870322,-0.039334653292934056,-0.026224563216035036,-0.1064941941077033,-0.13551742130061709
-0.23416016117288366,-0.3332784171127067,-0.4003444931577986,-0.5063386753348964,-0.004722856903321422,-0.030727125728036247,-0.11241037533350626,-0.10561332156824585
-0.24001976491682264,-0.298406949349704,-0.3964965447129122,-0.49186198806593046,0.011938582402841486,-0.03840429586176947,0.008460918515168088,-0.08048082770479448
-0.25567392426208935,-0.33939950501366756,-0.4096679187195996,-0.5008656399799839,-0.00891218527080498,-0.014373899920335248,-0.011251378664925772,-0.12158036108853226
-0.24576118264805905,-0.34096634882680565,-0.4076138554397897,-0.5114208836568244,-0.019915264984891774,-0.03526349858538951,-0.018127144893456897,-0.17501000690935717
-0.2572195272955275,-0.3813489231522419,-0.4074748049245322,-0.5107721743460423,-0.03188611889098624,-0.014317989787486355,-0.02253353417621275,-0.28083197576371655
-0.23770453446359138,-0.33176255541070077,-0.40133198594378355,-0.48948936316230296,-0.01536690096155045,9.45749772335716E-4,0.005797424787603524,-0.18145044497368848
-0.2555738377826226,-0.3376830033306686,-0.40911271876422634,-0.5091564956058022,-0.02062031895809179,-0.016063864689418974,-0.004621961718114626,-0.15787311779778732
-0.2527564049623285,-0.3355086983408637,-0.40398196274689124,-0.5182989291885648,4.7593739190987934E-4,0.009733248238786301,0.03466547967163441,-0.22708691892364893
-0.25815116458966986,-0.367171768911826,-0.4144802990685149,-0.5112521506821452,-0.021896940474566834,-0.04578221160470476,-0.03660420779933675,-0.29147026528570885
-0.2765267987576954,-0.39030560787356317,-0.42226769979233086,-0.5025482014490537,-0.026463058688199873,-0.025945084729432733,-0.07682876138175351,-0.2510029041104538
-0.24967712635853798,-0.3524174286250052,-0.4045312035477405,-0.48788422351101124,-0.044210698828055,-0.007844633033794537,0.007795691927830909,-0.22637697121235026
-0.25800624147179574,-0.3778944107057163,-0.41602342191411656,-0.4860195022615585,-0.012474113240565349,-0.02694437819683503,-0.005882677319353867,-0.239435588213203
-0.26122487666087146,-0.3702612961387864,-0.4085168351085405,-0.5052249769960675,-0.032191018499077816,-0.03615553658169348,0.0021868715963580193,-0.2526598821049144
-0.2682608761051991,-0.39725015886102033,-0.4105616736937323,-0.508387372526312,-0.03701569766763914,-0.024197786469227787,-0.013846817647141955,-0.3698707628386207
-0.2835233696340219,-0.4227868946685746,-0.4342770188868813,-0.5111871091397637,-0.05940868637483677,-0.038989096858839715,-0.03899344428949287,-0.37907275154320225
-0.24063108599462443,-0.39159075961764195,-0.41074099618901383,-0.481009428337748,-0.029898633205970006,-0.07169413981320981,-0.045698469218846294,-0.24730173810045677
-0.23961364407372168,-0.3398173885482465,-0.39444398340332165,-0.48920903425794915,-0.06013154078984924,-0.0017256147032550595,-0.011127450857650559,-0.20748323349191214
-0.26036146018044587,-0.3868934123392126,-0.3972731399907733,-0.48651122317599327,-0.04993233446536221,-0.06584894634822473,-0.03814356782219781,-0.2881461518332186
-0.2565026324030956,-0.4445565966074315,-0.4051065259710923,-0.5052865869313548,-0.08213340069681173,-0.08433562714186793,-0.07372117475748764,-0.32723425464799905
-0.2600168592347069,-0.4470441685429998,-0.4138549016425736,-0.5170557787707544,-0.0715983090061014,-0.04163842365608848,-0.04756350883114571,-0.3323031493907566
-0.25937621992106136,-0.3916093693755898,-0.4068392109029418,-0.5011280815438196,-0.0670445838476797,-0.05808070989484138,-0.02716767965469956,-0.28664133516458645
-0.24511219639377008,-0.3739306709149887,-0.39575819240686877,-0.47873920032325856,-0.03849574084943421,-0.04284681885608662,-0.05921469527450998,-0.29260552452935706
-0.25344891771541556,-0.400870221748106,-0.3929490294941759,-0.479932605667326,-0.05596858135927038,-0.033636539897905715,-0.01467681942009656,-0.2355299598200492
-0.27104351937881865,-0.406435858434842,-0.40251431543861166,-0.47911994280969616,-0.07730502596049971,-0.025170412995101865,-0.0707722697927872,-0.31494579624848773
-0.27576936490934606,-0.4414347946813654,-0.41195409267778504,-0.4765697248512692,-0.08265994218214257,-0.06354618231630381,-0.09995030322264924,-0.4194538650775611
-0.24305384669548402,-0.367667843532553,-0.37919648796373867,-0.46527865882703046,-0.06825226531710864,-0.020491825842450167,-0.031006400350488513,-0.2895125900889382
-0.24801409715907688,-0.3808426991160602,-0.38429329374746357,-0.4576456041817622,-0.05070784366721794,-0.06627582313852583,0.017034828979233276,-0.3084316807576071
-0.25399805519833596,-0.36932585550253594,-0.38397174589532124,-0.4771026168132224,-0.04967990319644886,-0.04660466630261381,-0.04233038630778519,-0.3058632730096955
-0.24952289762244992,-0.40713891707658834,-0.40061907600381425,-0.48266884804700066,-0.06705260084886304,-0.03761325723094377,-0.06704886681574622,-0.34135681276983787
-0.26560666388007514,-0.42119356130456187,-0.40329937523550746,-0.49406516375311516,-0.08316832229827363,-0.06611676419929055,-0.05503374388485981,-0.4277627665914878
-0.25310116527902243,-0.3564620400992871,-0.3649373421482922,-0.4497042233076084,-0.05379783249882258,-0.026313659853762127,-0.02226924635502691,-0.2899608074731227
-0.24011719359344558,-0.36329820352241093,-0.3728371281941312,-0.47098246994257803,-0.02774708239841818,-0.062031190204179756,-0.0913296631117818,-0.23465621536533743
-0.24522313485034278,-0.40122080842415075,-0.3879870617137546,-0.4410202919267145,-0.07897652908522737,-0.06940026820933472,-0.06365147548974279,-0.2842970334068117
-0.24136697036211496,-0.4117425285357542,-0.38747121385541355,-0.43575019354910266,-0.07657921079367049,-0.08555287016327344,-0.03975592994314467,-0.3814276847299393
-0.24920928462362155,-0.40747718987008263,-0.3781065883301968,-0.4644585592705943,-0.09055484630217576,-0.07987515327192776,-0.06947784082428408,-0.3135085216641211
-0.23873996366312103,-0.364892651181778,-0.36154421081194277,-0.4620042650448726,-0.04282321333748184,-0.046382282286220156,-0.03954131646420566,-0.2189767119381202
-0.215782852078827,-0.3750665008793607,-0.3668076180095216,-0.4319656251578349,-0.06906040820645536,-0.04897005792180406,-0.011513839234212314,-0.26516455174695425
-0.24676873337670993,-0.3790224308892592,-0.3724924567498096,-0.437208737117108,-0.03513904617982995,-0.028169329549542838,-0.053634249186640885,-0.32381358583783226
-0.24303926913944868,-0.39837098032272034,-0.3775097937559989,-0.4374244807082165,-0.04450422620549139,-0.05157585082185903,-0.010754383772742742,-0.31230024983668647
-0.2353891530203602,-0.3804078295813395,-0.35686093344906933,-0.42713237230695383,-0.06279257768714315,-0.06111445333980775,-0.02537249995164081,-0.34019470563915155
-0.24603412781434125,-0.38428705558134296,-0.3540521574544405,-0.43022569162622276,-0.02626415983500379,-0.029924911799093592,0.007280750353350429,-0.2699517771306726
-0.23309167244036505,-0.38669426061786233,-0.36142713236831314,-0.43442772217244424,-0.062411103225838024,-0.033183384807177745,-0.024490664748824907,-0.2972843850652324
-0.23416358096590448,-0.3999966157866496,-0.35998494175835916,-0.43658335088062217,-0.042976992491398934,-0.043331286459041336,0.016519870379545012,-0.33303636948563126
-0.24405704628397062,-0.43041770965453335,-0.37220749367629147,-0.42964529345851515,-0.06406555652088365,-0.06262624331879506,-0.016431328512793074,-0.40505437054027815
-0.24469038439522672,-0.3620379147321073,-0.34741327598452015,-0.42735865761345826,-0.04299455055157702,-0.0021835979755173342,-0.014015213454958163,-0.28680965392290186
-0.23334957727601932,-0.3252916053349365,-0.3587975959651501,-0.43955597431866805,-0.03752758737440707,-0.030469821237797633,-0.024024035637757176,-0.22741078271785947
-0.22692233890939736,-0.3502201318349457,-0.34638660385636044,-0.4392003211414544,-0.03244100661023962,-0.013317054596422195,-0.009332992578949414,-0.28085231138032274
-0.24133046179711284,-0.40199147854827155,-0.35509027170472396,-0.44408995840650123,-0.07909396790713051,-0.07735776812879314,-0.020836947070802823,-0.3323425008960701
-0.22936292309458714,-0.4016821546960555,-0.3671496858858231,-0.448776445845583,-0.0680517170599011,-0.03746034657639242,-0.05545099544491862,-0.2662919865002036
-0.2331106880570157,-0.3190831240435948,-0.3340909719594917,-0.43900040269411345,-0.02724596128834282,-0.05182596238467467,-0.06389010193361064,-0.2061315526209705
-0.2266612027454457,-0.3406336748556317,-0.3357650421559737,-0.4316253437604522,-0.04311714311514964,-0.001503453936138327,-0.04435356745630746,-0.20294698985726248
-0.2295821832530588,-0.33182795915990104,-0.33144673356443727,-0.4015983315542748,-0.0397333943658641,-0.014921181369405205,-0.0212305453559916,-0.21626168606126236
-0.23131659159103182,-0.3777898788856675,-0.3417000557216367,-0.424965222302708,-0.03823557232247935,-0.029400254142944882,-0.043174452032286495,-0.28823019053900345
-0.2241225160190592,-0.389148943929905,-0.34495361716686246,-0.4428769732157713,-0.07454946449551748,-0.009208884052566696,-0.04227805090716676,-0.3250321533207443
-0.23435970419840954,-0.332653800144054,-0.3223793829480571,-0.4222218764523215,-0.02216599307562867,0.009076064691218069,0.010387219977795525,-0.19364986325071099
-0.21628390612197118,-0.34064275728874166,-0.3320365717489401,-0.425606896371756,-0.0017618732735969137,-0.04037196487972093,-0.006801553042363753,-0.2127554741647158
-0.21484700185865704,-0.33574014361026255,-0.3319465563048324,-0.4216606153327353,-0.038909003411869134,-0.04966296233577891,-0.007515935834048773,-0.1787228696710525
-0.234620942827272,-0.3587917258694305,-0.338886984709671,-0.4273104071429918,-0.04846975346868389,-0.023046477916716414,-0.0059060653355327945,-0.2706455901692523
-0.23468887536789,-0.37866794609110016,-0.3415019831476816,-0.40876587256417923,-0.056098717558104576,-0.07010696802249963,-0.015346457366842212,-0.32296147845691175
-0.2028556619405032,-0.3316303184462774,-0.3239308096526206,-0.40822398902288154,-0.04531170535947509,-0.03908094892096214,-0.013712262157722711,-0.21378699832146258
-0.208909401414444,-0.32632742406110454,-0.31572526044397076,-0.39446411030873835,-0.016291201206842326,-0.024760597281699045,0.0050753535361682655,-0.3060630980878077
-0.21717225152740963,-0.30712451021532644,-0.32396346109998686,-0.43577467044205676,-0.00773560489830006,-0.020246215011668005,-0.035053615453248026,-0.2350138339099413
-0.21886456729637166,-0.3423100591615598,-0.32446562158100684,-0.4293788933231941,-0.04038905917440996,0.0013285803456141159,-0.045145660989302575,-0.28243333215280625
-0.24399672913952924,-0.3742345466966549,-0.3445303644986538,-0.3973454918257321,-0.03368279774699629,-0.04478690390185636,-0.09168498231717029,-0.3176826477020992
-0.2106687647871924,-0.3305930960288095,-0.3132110247893778,-0.3978724384126902,-0.02237270732504042,-0.0384339346866586,-0.01777253409353703,-0.2637161271775211
-0.21887053828970662,-0.30193435598538587,-0.31463037672950517,-0.4062631162115015,-0.018772043958277466,-0.010243608841265506,0.05015142728318091,-0.2091723552084282
-0.21192431335668122,-0.3118170136960459,-0.3124520422121577,-0.3980000434362776,-0.013100269460739371,-0.018089925377499875,-0.06735837481180447,-0.20388809616135653
-0.205813417959659,-0.33334856878804775,-0.3129305908134043,-0.4092788001420034,-0.025134798068618357,-0.0356658219606498,-0.054309108408013,-0.159966541106802
-0.2095724315042713,-0.3382139870626468,-0.3158958263559651,-0.3895755563625653,-0.015166155503202671,-0.04266763234547835,-0.03602953382757711,-0.35547819640767386
-0.21757087027533253,-0.35218524554544695,-0.31033597792629186,-0.3976858966481178,-0.03418489302340669,0.013253083171895375,-0.024400566832116822,-0.3318338502854405
-0.19225988866857227,-0.3038539966841625,-0.2926426792255766,-0.3898294438711292,-0.002830347782431305,0.00586790775282468,-0.035946983782016134,-0.3037205941555906
-0.20188114118810346,-0.3042241479671337,-0.29781984727977945,-0.3710572650430878,-0.025688036210057247,0.008881562040632661,-0.021914597162255186,-0.29853043161694126
-0.19293906112085973,-0.31184703785066864,-0.29480425233790186,-0.3942972667933568,-0.02691674998837937,-0.006155789951014232,-1.5774386936003796E-4,-0.24410022307252713
-0.1962350543561312,-0.3379399629021381,-0.2985853111230631,-0.3709056341522061,-0.038044381182434236,-0.027533184559027334,-0.052186965197754814,-0.2602944456967974
-0.22642948672424665,-0.35273458675950886,-0.3081272104586413,-0.4002988209683634,-0.04922802903398424,-0.029194276899959456,-0.03276216206325967,-0.2875362569880286
-0.18473670436206174,-0.31183560922151216,-0.28311875298370925,-0.36059377279315546,-0.022691801664427805,-0.01946355264530762,-0.03670927633392557,-0.24771316492824372
-0.19486105669563586,-0.2867272328462215,-0.2909161224783927,-0.35858097303475617,-0.01107577257672791,5.8849689212626286E-5,0.01907287411651491,-0.20517656767257653
-0.1895575141813805,-0.30591154268015763,-0.2760309277960828,-0.3678605472025237,-0.04220197120720491,0.018068835687433435,0.025515637868819826,-0.26314590599986104
-0.20802239944171025,-0.3096750542341999,-0.2780047329283474,-0.3918773954803312,-0.029209433389640004,0.0021875517811462105,0.01717964007879484,-0.27589319396949896
-0.2070610199938423,-0.32185432658564594,-0.29201787621254727,-0.3493496763481754,-0.023235283428095582,-0.026591876064554168,0.012557036245636014,-0.3078035140202167
-0.20011260084856086,-0.3289408116076391,-0.2797991494483128,-0.347266508953647,-0.02764532491961484,0.010295798255655096,0.01210993723336123,-0.25091233192708867
-0.1752672179734373,-0.27984810178323893,-0.28490642180469644,-0.3825407992615129,-0.017976894717851126,0.004179465953443599,-0.06049803694896559,-0.24349431663765247
-0.1985092984155824,-0.2761913598292688,-0.279361300704125,-0.3655066955072265,0.005781097661982252,9.658540780322073E-4,0.014055809349752734,-0.2458525596730556
-0.19989644137536655,-0.2918508889741007,-0.27812668132302754,-0.3620571804002217,0.00490029255432566,0.012576990120598054,0.0326550013985854,-0.17990184375040302
-0.19044972679282174,-0.3082144637135249,-0.282294701626073,-0.362640872939078,-0.004912856974042232,-0.022705273265448137,-0.03602665727527009,-0.27461271589927394
-0.191627620364463,-0.33110970022683417,-0.2729816960193882,-0.3735923513961787,-0.03957113765410493,-0.05891290839214177,0.006346944196605756,-0.34093976349860594
-0.19464383082441059,-0.27311082284359633,-0.2553714930168791,-0.34757724994619776,-0.003952375195981061,-0.01747724919507862,-0.011554616044602783,-0.2207783037530303
-0.16998096836063134,-0.2513126503751478,-0.2726968419395773,-0.3376159852199869,0.005299966819666197,0.002348640112129382,0.020770091351073803,-0.1846854087216534
-0.17288115141778962,-0.2643316380063966,-0.2571233821399079,-0.35866258450215055,-0.011804436514161706,0.02394765474270423,0.0028404335442218814,-0.21308301019557477
-0.1761373540614582,-0.27401683238416447,-0.2639936474030645,-0.3444130800092192,0.003457234808671146,-0.01857332164495199,0.006380922995032946,-0.21351592826981586
-0.19387500265114485,-0.29329008740497575,-0.2717646936518314,-0.3387623382154643,0.008044154734209708,-0.003626849789066344,-0.00444181176010885,-0.271449964743509
-0.16941815707899646,-0.26833969113644973,-0.25498647751746484,-0.32970313265453155,-0.0064366633400847455,0.023550457585215095,0.034404976197654785,-0.2946936913526587
-0.18219640738181,-0.2542113848634769,-0.2618033825982485,-0.3251728590117041,0.015215952494807988,0.02035434570880159,0.04911897472645944,-0.21294422621910072
-0.17839239932797268,-0.2515114517347096,-0.266300426035658,-0.3291358620839732,0.009506256445928698,0.020342127308478425,0.018934866862652274,-0.20511571429719624
-0.17585471365690467,-0.28802703742877567,-0.2587020536972006,-0.356094374205749,-0.00832933178035302,0.0050497945517114,0.007274733607530564,-0.21356530590465442
-0.19499564288567955,-0.27408068625290766,-0.26421056311770064,-0.33418615456599354,-0.040638843859644704,-0.011414678673332705,-0.01414196046559018,-0.27837445651782255
-0.19001752073663028,-0.30249519169208117,-0.26825558943361943,-0.3276875802563638,0.0034756083269260026,-0.0029411668137200374,-0.013853299746724524,-0.26769795311117617
-0.1630016647237566,-0.2520707066190646,-0.24974139473800377,-0.3372901519215018,0.008083642239440735,0.017512170015525113,0.04286713546360076,-0.1535466516177754
-0.17372612891342593,-0.23608084019651587,-0.2562455558103319,-0.3439299075950365,0.005580477139801856,0.04233770423869343,0.027811361698651806,-0.15444277167758433
-0.16580747057316045,-0.24034648600193276,-0.2381342152396566,-0.32946751010408704,0.010530492106021912,0.007976444570800451,0.03046124333396085,-0.20788085753523172
-0.17444208987430934,-0.2596325416637439,-0.25795400020376574,-0.3445265598872133,-0.0013721240543967015,0.02330053097635917,-0.03315413409522127,-0.21682202335554088
-0.17658350763846825,-0.2811241263621117,-0.26103517153035494,-0.3525500692885037,-0.0389471201627248,0.012631071806663934,0.04067928921672524,-0.23964617754998868
-0.16961741954980844,-0.29521426189895217,-0.24915161786892515,-0.3215911344043713,-0.017134048307135743,0.014146088027536662,0.03487231140692395,-0.2381110430922066
-0.1721838491361991,-0.22683449368888245,-0.24655870785501988,-0.3200527020782552,0.04077778710795822,0.037200414711370366,-8.944081881461991E-4,-0.16992967858293428
-0.15613462062738076,-0.24170223988848166,-0.24203803902026563,-0.3257107687439259,0.005663083518984839,0.03276770682988333,0.10684742263910213,-0.2654222173068227
-0.17373553993171414,-0.24890733115654015,-0.24582258530528084,-0.33660419169524064,-0.003040888339920159,0.007868118790070162,0.017702225300753948,-0.1761795410887854
-0.17671400233818815,-0.25142543559897,-0.24850267956628927,-0.3209097884860657,0.01586447415339005,0.037167224812170364,-0.02015008393027034,-0.2818965460748821
-0.17554603014485384,-0.28357484706583186,-0.2561665574689192,-0.33798674930995387,-0.015256343055311304,0.008635669496292932,0.005283495109619146,-0.19557657761412417
-0.17486573519761633,-0.28971771466660323,-0.24978688361357265,-0.33627398373258555,0.011546882881226534,0.017570044141345244,0.065686750245181,-0.20440930417379632
-0.1644331526256324,-0.2383593919673891,-0.24390922890562344,-0.3241109058936214,0.03991765315503606,0.014271799840002397,-0.011790992298130912,-0.19668781910323468
-0.16843713828140686,-0.22888307543637582,-0.23293371524443118,-0.3081384762994846,0.02950271977820391,0.04116671547727241,0.043543762354937676,-0.17688414240644712
-0.17227728513452045,-0.24002137565447954,-0.24861375949923376,-0.3357554178155551,-0.007775353348866678,0.06433398366221697,0.09735647941967307,-0.24456748148284485
-0.17120586110211794,-0.27850025648269355,-0.23295388699495426,-0.31693921296638816,-0.02296997327603767,0.02421772484619334,0.03661826035257775,-0.21360805779633282
-0.18565614626946852,-0.29193306603384855,-0.2502168685993099,-0.30466705779604764,-0.0021196515114635735,0.031204192099449652,0.005576853754373016,-0.2545078595319793
-0.18041748680809067,-0.2731847426562017,-0.24816315838561775,-0.30308888197360917,-0.0010923683665651303,0.05126634157760311,0.04922227259323016,-0.3167169480127407
-0.16518000561415266,-0.23741724059345745,-0.24056677477728772,-0.3021327135001409,-0.00526876562578484,0.056954737638223396,0.04072644018936619,-0.19779550643263863
-0.16614950508518994,-0.22765380251969491,-0.22935674784464946,-0.32960427207949045,0.01229331533835126,0.05730885069895086,0.06812664283745544,-0.08845954401512018
-0.15960775609800396,-0.2402708203521671,-0.2349155848430894,-0.3225707598869503,0.016296793146108022,0.03225205781240613,0.04979900012920312,-0.15096533625140698
-0.18452813786792369,-0.27420728399834415,-0.2432722821531132,-0.29011509078711456,0.007793465266137446,0.029177181289735624,0.04484150235793922,-0.18916777090646714
-0.1872267191910773,-0.2984180795364866,-0.2550953856336383,-0.34019888626852557,-0.007410973614017518,0.031610518565639185,0.01967035378087228,-0.292529923202436
-0.18013717197340331,-0.31402295878068454,-0.2437186546235762,-0.33563962797886343,-0.014399264108556242,0.029846069521677263,0.052608160967516124,-0.2578293868676909
-0.17051391112624348,-0.25569010597831027,-0.23469909941475015,-0.3030883400127784,0.03969633307080033,0.06497075830675753,0.09150947835062788,-0.21048884540381285
-0.18069396475683075,-0.26397064309192114,-0.22639976632832365,-0.32731954806869074,0.007189143483793038,0.03845734664864839,0.09226125721068278,-0.172249683227031
-0.159499403446855,-0.2653988318090384,-0.23372465739756138,-0.3110295347267538,0.013741261801947869,0.01842656426194837,0.09482266079937884,-0.22788922165523331
-0.18318217467317321,-0.2718608795059822,-0.25521568783046267,-0.3342198015543339,-0.005396622171662352,0.047492329168794194,0.04795044101631518,-0.20062758633250743
-0.17912804519416864,-0.28770403257356336,-0.25479627783383413,-0.3339662304103597,-0.0034536894680960296,0.014127224838609308,0.032460491499387754,-0.28160298681555024
-0.18532010009808605,-0.27389535021391975,-0.23193760047138678,-0.313449878653265,0.005637043681830579,0.08343820781378451,0.02480248251892169,-0.2060750497834643
-0.17820057806558595,-0.2192593018403043,-0.2392567183884744,-0.28598821362827287,0.026493906326385222,0.0775780364036922,0.035660666453080414,-0.1801559923061941
-0.16458621076583294,-0.23083900219428502,-0.23112645207377794,-0.30237251792251824,0.03714194342071288,0.04090324469105789,0.06104969989278665,-0.163990791294601
-0.16106306026007222,-0.2273926703776586,-0.23346225616380165,-0.3160585263366322,0.022268863155172982,0.061311261577463375,0.026167063979406612,-0.24683396365447868
-0.1659887986772086,-0.25890721969621017,-0.24486243764571214,-0.3209484854824644,0.015056428383269907,0.07549608693758225,0.10710111149846116,-0.21013809861618912
-0.18244282725456332,-0.30183950894385303,-0.23468513162694127,-0.30257741485822287,0.016397381333481963,0.03994707079580799,0.028238219698137786,-0.2598133640121372
-0.1683686402769556,-0.2567854418336847,-0.24083977147930347,-0.2976660668444882,0.0040877462019277685,0.04240210014552458,0.06514951889935874,-0.25631895164820534
-0.16287731235567274,-0.2327914863532383,-0.2201397541598474,-0.3345331439807884,-0.005900329207408445,0.07778513055855862,0.06600912698235713,-0.14521726566031914
-0.15271666040321072,-0.21399634189523448,-0.2354585744468154,-0.30225223128740714,0.02726211892443655,0.06749717889653509,0.05913391719573955,-0.17561732168083588
-0.16984584091031268,-0.24683993829213724,-0.2287665753157807,-0.2942080180658154,0.017265854675849162,0.01841715524893833,0.058579696250162676,-0.22125229326404272
-0.18418647663692053,-0.267553111061271,-0.240980615925963,-0.30850947834607134,0.00912717097833445,0.0525059376606039,0.05142081161706959,-0.22711881955204782
-0.18493815415877765,-0.2640563378112161,-0.23508861251631114,-0.3008421630176263,0.015249917425873316,0.06548707639143216,0.06882893523106998,-0.27824380325682685
-0.15021049990545948,-0.23532527427039737,-0.22956548319327202,-0.2853799198377072,0.020600498483225985,0.05551877358830389,0.0741982232943798,-0.14826229416745348
-0.16600896870271847,-0.21353693074299407,-0.21818415328552265,-0.3104769652345165,0.04464671997626789,0.059208775536472774,0.08749363643758695,-0.17417293364123615
-0.16380606501051462,-0.22714869962214188,-0.22094638583891102,-0.2963621626787354,0.02872491214430553,0.04400764276128807,0.025534302192654033,-0.17630918836800233
-0.14801299179941182,-0.23772995953675527,-0.2335332909453896,-0.29993063406207415,0.03016661705637643,0.08115681317256129,0.034963887695937966,-0.15567696168678832
-0.17415976332504712,-0.2475367633265802,-0.2317147893706322,-0.30433780016727446,0.01060375992638656,0.0867012223488503,0.04447045468263349,-0.24454316995227152
-0.18172700653606116,-0.27565499502972,-0.24359494405928453,-0.3166826786050361,0.02165639703122466,0.034027613499326315,0.012567670959984498,-0.3406011418003781
-0.14911933515479892,-0.2131889277115863,-0.21565332778907845,-0.30574491415480975,0.04461277998760414,0.0792960959272975,0.0737102718884858,-0.14352767256976265
-0.1620230843643012,-0.2212398721367016,-0.21627275067158278,-0.3159311946910837,0.019846035291167827,0.06538029441707074,0.03643275259590309,-0.14122410742009825
-0.15747548157854063,-0.204063004545175,-0.22207224420096183,-0.3085104234004468,0.02691797900585415,0.05929918429103651,0.11541225315471304,-0.1538330161653123
-0.15277959983534078,-0.21398464025912592,-0.2287752700614057,-0.29505007364732616,0.039188847882997195,0.0737885655153702,0.07372153624661786,-0.1464519873624705
-0.17513288429933468,-0.223626524762664,-0.2259524108826376,-0.30520896110300005,0.01661750618530593,0.0810784872605671,0.04951839596915659,-0.2356432762362493
-0.18126051202817786,-0.2569613743742029,-0.23285567640214205,-0.2798346587499738,0.026082132462054923,0.02378680195329006,0.05408670857125212,-0.25181306892796546
-0.14939512349227568,-0.26446406768542724,-0.21887338949656093,-0.2925519654891056,0.016482625907029407,0.05364750395397969,0.05919406717507014,-0.2765534883503783
-0.1617841229375057,-0.21949655290959935,-0.22540295033105998,-0.3050225988487085,0.03267389463057709,0.08455525392964038,0.07626371147540606,-0.1381986839621137
-0.14559526626430283,-0.2006907128806862,-0.21476760448364907,-0.2924311422467677,0.05435779593302639,0.09441668414918093,0.09170555263713977,-0.08829685184203372
-0.17030383302316732,-0.223983822184556,-0.22166734422614304,-0.28224179999689863,0.013956176259164245,0.08863922571056929,0.11948622274221267,-0.1855474529708671
-0.1708821305321226,-0.2295755520400524,-0.2261234428432406,-0.28679826053303015,0.039370820348831236,0.08150988192332494,0.047032852973868965,-0.2234150466712706
-0.1581392239012806,-0.24051101968997163,-0.23122225366570173,-0.29725627782682396,0.02450492485762505,0.07085477282869791,0.05102202356374083,-0.21202219101527203
-0.18769990873474193,-0.28091759485957063,-0.2403233654460501,-0.28914389582808125,0.01290284171270989,0.028967072730897294,0.08784984542476558,-0.25934589837751076
-0.1513426141182928,-0.21589995862673717,-0.2233137508521122,-0.2701377911680048,0.0479902568597901,0.08175530386821651,0.09544148478433202,-0.14344945395025951
-0.1459863409521021,-0.21607411389915454,-0.22143781608870441,-0.2791801573494722,0.05938140469346057,0.08637676647892056,0.09617550944495941,-0.09319226805493595
-0.15403331579469934,-0.20767169290885334,-0.22476864630671378,-0.2557307407243001,0.030429450384382665,0.07827410992252713,0.06196719821072098,-0.15299209142822712
-0.14706386569054405,-0.24229495260497147,-0.23201121944760822,-0.30478638845732176,0.04676031106883215,0.05015564341239204,0.047438717345206056,-0.19632381283409672
-0.16536724005003997,-0.24721118885173593,-0.23098496006726998,-0.28073307528368285,0.01971572437203034,0.031641209170187146,0.029634201690797446,-0.267132254139645
-0.18030167630909197,-0.26336598596023025,-0.2419829516540785,-0.2818388734858338,0.017791953983636116,0.02690138578835324,0.01635300569141539,-0.28958860067815906
-0.16594245810090358,-0.28243528051279604,-0.2333525501365135,-0.29284240435591175,0.01433088508893757,0.05083534761547985,0.04967832985289117,-0.22486288515512248
-0.15388274140992733,-0.22913749362134672,-0.2286641067010674,-0.29457254744288,0.04528784968164473,0.09319441748992321,0.03422585664173074,-0.21976269634356077
-0.1596867349296039,-0.22842875471730734,-0.22287062322662943,-0.28730045404958376,0.03204754466551444,0.061414914778059965,0.11297532835538752,-0.11680327587801756
-0.15693459897223547,-0.2221377776258054,-0.23162941051989008,-0.3122051677266999,0.029610623886921043,0.06874107662942452,0.03838491940552703,-0.1718784304080041
-0.16982253561539049,-0.2499631520070035,-0.23981217847868475,-0.310137822351539,0.011820264697827588,0.032195672429021285,0.06560853753576329,-0.16167226038620666
-0.18545505230816905,-0.26968040641472835,-0.2436638033752609,-0.28889391352163873,0.018696670165005362,0.08094039135745407,0.06677445855623743,-0.24885474986768683
-0.1798489889539233,-0.28712880476644226,-0.2449653077847189,-0.2837627501898438,-0.0044757909169949135,0.05608876791768542,0.05085555443153716,-0.3119076284976368
-0.1537970963859056,-0.22022768672470486,-0.22716455429510485,-0.3071962061850471,0.03513941095712813,0.07748418850958674,0.08837379658643478,-0.17872467864554506
-0.16634193138712294,-0.2236728770465006,-0.2339074774307637,-0.28438274160793403,0.03620873745705693,0.08646495266174521,0.1325469630064333,-0.10730751190380469
-0.17395940276735553,-0.234755364930324,-0.23406640014591906,-0.3164060637887452,0.028129401265124147,0.07841798836236707,0.07171701268372783,-0.19396696747478925
-0.17159567773577963,-0.2278261852573237,-0.23452365420820842,-0.29554410510407286,0.028907836800795478,0.08600844748005956,0.07632297599547083,-0.1255693428143999
-0.18495370462446628,-0.2575582819773425,-0.2566055936346271,-0.27825168067030454,0.03210054571342318,0.0626203592696481,0.07087801649863451,-0.20961145326472214
-0.18786015071701462,-0.2917307120608221,-0.25270510034911253,-0.2937868048059963,-0.0017756718706149874,0.04616496171387785,0.053203842481048015,-0.2535012597900118
-0.1645722983058039,-0.2637384799736641,-0.22564605353914788,-0.29750631249160875,0.05261896934559186,0.08658520478599961,0.06444146275695213,-0.19717198425466756
-0.15794301990531376,-0.21573875707235973,-0.22726157049857101,-0.2934589750034287,0.04876358021970274,0.039546024883932024,0.10699045030775765,-0.15908446260157338
-0.15997790431406578,-0.21085407412248067,-0.21971918361550413,-0.2834268752317602,0.021667594915872217,0.08608478465580731,0.08281553178190316,-0.19124807561755658
-0.15891103618291436,-0.24331269369965222,-0.23852280204994708,-0.28496332025826665,0.02679121733930728,0.031407818802512026,0.1032266924554261,-0.1683242761787196
-0.17229309431950812,-0.26047893198925154,-0.24848939928841293,-0.2836539174019833,0.03711484460595552,0.048187480221295195,0.07395080540384584,-0.17860671195473188
-0.18296730065216907,-0.2716704061740654,-0.2440119877793006,-0.308951386623818,0.014096154157492652,0.07712722813523988,0.07976766345408892,-0.2493178677343208
-0.17492921559891553,-0.2826605984809562,-0.23777857298208774,-0.28718321473679437,0.01927058864469296,0.050322968405333623,0.06493214767037203,-0.23101481813588473
-0.16623605766932606,-0.21344553575747952,-0.22316637285870816,-0.27655069549382805,0.03227407532796766,0.06907868463277185,0.10858979028202875,-0.1661551990294722
-0.161735709948389,-0.21858766936348134,-0.22664518374876333,-0.30212489974462353,0.03674941569928702,0.07140400860127831,0.027900592155956333,-0.1334778317912057
-0.1608530940554781,-0.24667624050442113,-0.23210241410917407,-0.30722085998218607,0.030653570522237925,0.0838325875567786,0.11305477662927012,-0.10076267545424238
-0.16357163097369595,-0.24403955901300634,-0.22844123502044747,-0.3032780185602332,0.03332491079387253,0.06866148600393626,0.04845835830933579,-0.18333659655294296
-0.1626278313095075,-0.2443755920784477,-0.23800965585570732,-0.2859790806726828,0.04493107104032585,0.028413990419454048,0.08253334408208575,-0.1645450969935265
-0.15271166361051872,-0.27113235279231734,-0.2349756788999509,-0.29205834427777727,0.04933856025939245,0.05738101073215142,0.05649031810236639,-0.23269757437192953
-0.15938906170749295,-0.23140531349034515,-0.22303360595631427,-0.2862692354328644,0.034378605372734315,0.05728555501295471,0.11892768283542246,-0.19996818530461913
-0.13963103337751548,-0.21280996522731163,-0.21471897617879346,-0.2818406333141333,0.06748846554482205,0.07093440128954014,0.08750705564080624,-0.12947691890614982
-0.14003580781402897,-0.2149082100768002,-0.22691589268128043,-0.305211934283721,0.028743736369802056,0.09776045128130319,0.01480994838090566,-0.09226861755132562
-0.15818133887917946,-0.2325987511978156,-0.2292665483123144,-0.29542886798246965,0.037473785662370626,0.06362326258206391,0.03621821117434251,-0.15247886497312357
-0.1629956183380143,-0.24988476538082072,-0.2367606104355633,-0.2947200951169885,0.009952512489226215,0.08634179375297935,0.0687527625999695,-0.22709366501412995
-0.17024472429919923,-0.30105576868448364,-0.24345976473949532,-0.29641525880372754,0.026776128003941455,0.05159128689472968,0.051373656594775156,-0.17811170599068452
-0.1581979952524956,-0.20932259168725922,-0.23111219456192206,-0.2888341599742699,0.05074192892137037,0.08660978001520728,0.0815472386533282,-0.1731999129340248
-0.14386627886177183,-0.1985910549409195,-0.22690703303311058,-0.2803481326073387,0.050468641457390995,0.044740590106858664,0.02969825476164303,-0.08633017000261277
-0.16107475764103862,-0.21659521367949466,-0.2256359919311597,-0.32281444053423375,0.04601530890948293,0.09432963613362108,0.08218320462706322,-0.060902196503544045
-0.15213805946034661,-0.22936021266505724,-0.23441822949530405,-0.30384365480277015,0.029013404313712545,0.06287102852509534,0.11168951519271121,-0.23835927570999385
-0.1668592305408329,-0.24725286916014597,-0.23871896508178547,-0.2963317953535255,0.056476789313297034,0.062199375121066845,0.09119708556093067,-0.23872560662201703
-0.17000438847190763,-0.2722850749551088,-0.2442782919039129,-0.2990869658850995,0.017438541950013663,0.0429797403263843,0.03912266574337947,-0.26810530662870596
-0.1707225200630871,-0.31050808763980303,-0.23843709507099375,-0.29296006992593293,0.05192899444063491,0.05149976440683308,0.06303911814288088,-0.3436833303821916
-0.16299977010450734,-0.22298607261487732,-0.22882699212511606,-0.2989979799588718,0.06584364646029264,0.07399699525390896,0.13179469823634182,-0.19724410283661198
-0.1520262389507437,-0.2455239763742169,-0.22438230128487346,-0.2968046535486532,0.05333540929946837,0.10050152205836381,0.08736457399894061,-0.23481099110636525
-0.15022268197492258,-0.22982079339059167,-0.23402982575229253,-0.28709555235414524,0.017733526185257663,0.08455744051436923,0.14540255580632958,-0.17167342668688784
-0.15401770096612308,-0.26005258624290595,-0.23176600922424265,-0.2958688602474158,0.06119500228690358,0.05685096828693751,0.07277648154974253,-0.3101070045348807
-0.17771874866718318,-0.2727341878416832,-0.23615251729007247,-0.2903730488992088,0.02228911326218331,0.05898401520413961,0.08229274944743296,-0.2809303042725573
-0.17723892150878406,-0.30019328659976163,-0.25471371391729514,-0.29473206647285044,-0.010204973583654296,0.026173991891658515,0.05860071517493107,-0.3458992958443404
-0.15266516659934962,-0.2542850533961989,-0.2264889623333966,-0.295194929930053,0.05311928941603494,0.07532377856069515,0.09600968681272062,-0.20122953885047454
-0.15621542638007233,-0.2455526509292078,-0.22797610151105127,-0.3095281463527172,0.033132644349603405,0.09806540626200881,0.04402619963520922,-0.16004057077003384
-0.15117484534104228,-0.22646166883858235,-0.23417214675221287,-0.2910551969383764,0.04616347121312743,0.06850263558994266,0.12438832590895499,-0.18696300713912622
-0.14439534912320515,-0.23884290627466778,-0.23071158622614593,-0.3353050680002027,0.03755392614570481,0.07284094521379944,0.040181722803289376,-0.2306947275408649
-0.1671927190247081,-0.2771581476606861,-0.23661850163618953,-0.3032452272666057,0.023740858074014756,0.07278078371561683,0.036639884026996535,-0.21996726445886194
-0.17025859117429068,-0.3290998528467486,-0.2551460490760537,-0.3119901006898929,8.604512688472265E-4,0.06457144484031875,0.04530653144173363,-0.2571260486882384
-0.16834305496124105,-0.2775335362399898,-0.23993082674207838,-0.29241911734058956,0.011989710675083228,0.06622809325611873,0.01645302790252231,-0.18159951513531394
-0.14718892694821145,-0.2866064874451155,-0.244318328541654,-0.27947318934952803,-0.0029694255772222877,0.06787406278243763,0.029968327868444725,-0.07277485770602639
-0.146069132411316,-0.2927730428491649,-0.23916583475101547,-0.3037092820293191,0.02656763076025915,0.0620137566940278,-0.014114127013436817,-0.16853275608916696
-0.15742065818946882,-0.29223803347905136,-0.2855309248174579,-0.3579163012278205,0.0031308005591064226,0.03220870371780744,0.0071659737016578915,-0.24338711143159017
-0.18346984907589753,-0.3311052627425188,-0.3216344632387343,-0.4009588764151189,-0.018284678189742252,-0.04065978090655445,-0.03863300442672556,-0.28908106431578995
-0.20413162947792649,-0.36060754038928233,-0.33105905778362804,-0.37188767239530024,0.02177339727081184,0.022258151768740474,-0.06886868953164021,-0.35862924291297754
-0.17689089401100588,-0.30903785054149496,-0.3015369351729847,-0.3800659088171249,0.042540604543986546,0.01050344434379611,0.04971930862041373,-0.2515174776961357
-0.17495776706086044,-0.29727522861109446,-0.3026326578380872,-0.37939777332833236,0.038143859243475936,0.06267402300977647,0.02305645332660668,-0.25665054859596864
-0.16255540916247707,-0.261846728822523,-0.3037883697324952,-0.39205633340527307,0.03814471736094648,0.01749658660315941,0.01775003379398824,-0.3483977700764423
-0.18368161845209618,-0.29522776070056367,-0.3017905550646507,-0.38993518773390495,0.06697106268717098,0.029252215444655328,0.008379666048900912,-0.4809738055817302
-0.18615600428579587,-0.30145960795048954,-0.30054034327079737,-0.37047049648332925,0.0342108726365802,0.010131418743338744,0.029857740191109195,-0.4428541158778926
-0.14915377085858558,-0.2129669087681239,-0.26204846876767685,-0.3358760078101755,0.048774955635382665,0.045004329171350596,-0.002374500650094025,-0.3169764989381901
-0.12916204670371542,-0.21735016498210644,-0.24729382405014605,-0.3181093836149279,0.030872514193474098,0.07755924612876379,0.051653513994710895,-0.2222545961931567
-0.13131497064713732,-0.21831361075381162,-0.2470611210843044,-0.3414588819784849,0.05139333348295341,0.0468221064171151,0.030370092900160545,-0.2652810895883606
-0.1479792347249259,-0.24644220152913857,-0.26565670912702744,-0.33208276618872545,0.026518242666294694,0.04695877570465857,0.05820749139934952,-0.2981823424936382
-0.1711348603155604,-0.2643995313661502,-0.25953896733894144,-0.3587237499901309,0.016100005449290234,0.023992400148441388,0.022636244329621018,-0.3701396786477697
-0.13394848484903366,-0.2303063403076648,-0.23934026093806698,-0.3095959298015599,0.05352132424417143,0.054262925659730586,0.09930151889176071,-0.2501829523734428
-0.15664076961015716,-0.24295899645076396,-0.25272563720009067,-0.31845957585139417,0.0771939321343701,0.057717921703450824,0.04121681985061196,-0.18107585624387834
-0.13605106880435341,-0.2192814271120651,-0.241450430560657,-0.29226348219350856,0.04099276707805084,0.015744208012894733,0.07299334677240542,-0.1960863242434154
-0.15214091514427366,-0.23751282370710644,-0.23589311959044662,-0.3216256812078583,0.05507291637890788,0.031084833755213405,0.06368784153596593,-0.22708816448821414
-0.1503363990303059,-0.2594788902697518,-0.25595842482478015,-0.32110740606536037,0.052817165769318754,0.017514150924738164,-0.015698344315898803,-0.2487220640055273
-0.14418803556255888,-0.20252840740780187,-0.22328774546828856,-0.31600993971035957,0.03538283770698443,0.03441658853656566,0.027284202988296397,-0.18096227950368246
-0.13073887635500392,-0.19941646268696958,-0.24220024877478172,-0.3041508241789786,0.05953950192855417,0.03402529824297506,0.11576136873137866,-0.13643886921262866
-0.1353680760779808,-0.20323553984679302,-0.2265765946848719,-0.30872306341588734,0.04082962391609624,0.05755737735388854,0.0034358201651187134,-0.22114718158110622
-0.15305789743106954,-0.24665702434064132,-0.24051540332898264,-0.3249497785155332,0.032076273666719404,0.04103060340519122,0.04820754354025088,-0.23185986140854464
-0.150414389476797,-0.268519823214943,-0.25229195557567274,-0.30713033133294537,0.04550940705990677,0.03142167319509701,0.0021175839186025796,-0.21700887490171533
-0.14563197930073368,-0.21912711582948136,-0.22874861843873173,-0.3224044645000419,0.044484273855414015,0.02616239870817307,0.025731566983182477,-0.15457634262294
-0.15355952121525104,-0.24202248810052343,-0.23656026574975667,-0.2999812604176582,0.052764161170953276,0.06006773456281258,0.023298280761488623,-0.1044499273607786
-0.15172130016725374,-0.2343904722937912,-0.23607105961353522,-0.3205046122446343,0.07232634046667438,0.030783393932988044,0.04930161917051012,-0.16623323745367827
-0.1495381860372914,-0.24553537708016407,-0.25507986901519375,-0.32274090625564966,0.025786780704002133,0.030502134482423816,0.025867099107044357,-0.23033883253661477
-0.170170491748553,-0.30103917263859514,-0.26046331060311745,-0.3288108600718376,0.0243118118595636,0.03454261206984055,-6.675575223415856E-4,-0.2690366930496842
-0.17274541725896142,-0.2561053736936369,-0.2547405643790795,-0.30525887957841763,0.02921122329187668,0.02317369833070965,0.03733273657397724,-0.231257969330218
-0.14466932990975617,-0.22707139394436127,-0.25026305995818054,-0.3222141524870089,0.04965166861709078,0.044224030759778425,0.0559980013915967,-0.1271578265013534
-0.1491569855991127,-0.21440963832707835,-0.2518261321087805,-0.3168120552088088,0.05821118997997672,0.05545116797324805,0.00829442255922767,-0.12745958313558522
-0.15926433201557957,-0.247771914926673,-0.25657870390924414,-0.32811245786551774,0.055806048275508925,0.0462817611808611,0.029617065544277437,-0.15284997116244317
-0.17706262402423967,-0.2836357433617883,-0.25147975537463596,-0.32753450605728496,0.03334477490048753,0.04341106816480568,0.04562890529594112,-0.2478940699137149
-0.1937408884545983,-0.3035004115899726,-0.2648399826335701,-0.3139933386580337,0.023222476263584348,0.02886321313797915,-0.014064222429179624,-0.30141649889340055
-0.17664610634919067,-0.3123056554643418,-0.2671096233773747,-0.3096000902101888,0.024571087296521493,0.008864929415831085,0.05938947702199127,-0.3435683172127221
-0.16244823556143184,-0.2600929916245928,-0.2481100428948402,-0.3338333520710681,0.06623788626824864,0.06247376804210274,0.06631751423538376,-0.15506692951565823
-0.14808938214842854,-0.2578179773672011,-0.2485344161125496,-0.31959672941923867,0.04024530430799246,0.06855224782840405,0.06566198592808872,-0.16729442523848237
-0.17131699903366557,-0.24889238319367327,-0.2505760093794068,-0.3187513635066588,0.026413398068717134,0.025023490913088496,0.1173314757322544,-0.2261657821509546
-0.17658276257946326,-0.28031898053247745,-0.2569648507678273,-0.3345376893131914,0.032240211078339326,0.03796209577754163,0.0700206515967777,-0.2679465218064752
-0.18230046256658344,-0.2923148582358781,-0.2725279970227203,-0.3527095243452054,0.017899551570861493,0.03509378133270011,0.0752161665685915,-0.25477991934580924
-0.16863760877378642,-0.2905284610084984,-0.24870711317784244,-0.29726149647402805,0.014992201832911963,0.034046283299679944,0.012669395518201228,-0.2631945285672068
-0.16256364105727017,-0.2427735556054715,-0.23863544405553624,-0.34201026124728057,0.04339668784095928,0.04171345797643572,0.07469350254140607,-0.22491982280742978
-0.14997564183457548,-0.25194327109754866,-0.23539333589232425,-0.2993448219855272,0.024567305364293014,0.046506500007756024,0.04457368630051028,-0.20342060453199454
-0.1695277170887875,-0.27954123809558057,-0.24797808427269372,-0.32303581358042704,0.032946821962896916,0.03784652282007856,0.08239608833606754,-0.2171254481503543
-0.17537375355064805,-0.2766038048412587,-0.2675842904568685,-0.32241774159204156,0.049517859306316976,0.061755468811020425,0.04527881307702407,-0.278384225280656
-0.17675890072269718,-0.3108137057133559,-0.2720182873708337,-0.31970897813978716,0.013678312471995352,0.037262542872832746,-0.008370840310324429,-0.2950620083501247
-0.16907042128613956,-0.2724072330863024,-0.2459930463434239,-0.3028868078217476,0.02072865996708589,0.019283634641237505,0.03730878904870312,-0.23835697722306712
-0.16235011576087835,-0.2537774856894306,-0.2418431294655443,-0.32210360773683805,0.034593438395440185,0.049303046514053164,0.009681603733578261,-0.23662791586204496
-0.16594016351353627,-0.25832121293625876,-0.25476620828228735,-0.31816237029504213,0.014497163064606694,0.04517987125382959,0.02991455800341543,-0.24577328773995183
-0.17581791472757147,-0.27955909028621667,-0.25997733876409057,-0.33568367088621465,0.029113325949188255,0.04665661539742524,0.01317211044568054,-0.2597135947822811
-0.1931123925479593,-0.31365524783194737,-0.2711629748200267,-0.31986920317683204,0.031955028897410614,0.04585205712885847,0.020464468118486435,-0.3033437014266815
-0.19947003290799226,-0.32274702299485675,-0.2806982702005111,-0.3304402075127867,0.018595382019209926,0.022818347304340354,0.005513249074288769,-0.28603181479434603
-0.21777947067761105,-0.2687483070087201,-0.2660129423060632,-0.3053959974655691,0.017491853874385434,0.01333311840161725,0.029206061070670013,-0.39425886450732267
-0.22528423396269218,-0.27954454087520747,-0.2835253736534757,-0.2972217994182475,-0.007335307969477814,-0.02763584679998047,-0.047049664548922704,-0.5586071571267436
-0.2467831166203218,-0.2685015292074488,-0.25539088066003474,-0.28878341448038775,-0.037642049155347336,-0.06223138425395983,0.005611204088181463,-0.5573253532280276
-0.2472315855278745,-0.27310059508918383,-0.26244104140953245,-0.2796025649483075,-0.04412905653726617,-0.09632515018923242,-0.02597011848546282,-0.6151206880495084
-0.2772238820076777,-0.2961220751219474,-0.266060877147146,-0.28786439796078883,-0.027748919646000028,-0.07761977767333085,-0.006667302163744088,-0.6939518907755734
-0.21841072305914416,-0.2530954469299842,-0.2592512834898003,-0.2813555731656604,-0.008794511136523329,-0.01578804236172115,-0.009577634385090081,-0.5721995033417567
-0.1862597508187305,-0.20680158317907169,-0.23376317995548918,-0.2516742267605995,0.011663597712997225,-0.013123764446695262,-0.0023952457439199684,-0.46070520625761885
-0.1832988950169933,-0.22364988291248875,-0.2321879094120478,-0.2758198563494764,-0.006712700354024943,-0.01004425299886228,0.007904404854462676,-0.33159719301280466
-0.17751965644495352,-0.2536479277709687,-0.23610190313063645,-0.29075360822678764,0.0015121692267911079,0.020234931832336923,0.034652979686748506,-0.34556816415488617
-0.17728523937643484,-0.28069515282236535,-0.24501613073322717,-0.29055185618633605,-0.0050950292961570364,-0.014288987584672128,0.03444885090343281,-0.4411423390025254
-0.16796594483563693,-0.2286908257804221,-0.23654618120567977,-0.27238858003117633,0.007923507307438354,0.013287058269744204,0.05115223003718189,-0.2923990176459418
-0.1523793399119911,-0.22903588892888796,-0.21675678952299687,-0.2743447617709349,0.008425724109899106,0.048719011716458295,0.03062968706083295,-0.22178435872975766
-0.16641294950575192,-0.21539527415001206,-0.23750141066761485,-0.28200052037563755,0.021011523265751578,0.025543538951369366,0.05100565702458007,-0.24971083546339437
-0.15734682984920145,-0.24625772029226942,-0.23115088064043168,-0.3073003598109662,0.02691590462729992,0.030161580394502112,0.02406421439032496,-0.29538522602158457
-0.15667795191925984,-0.26465467192896447,-0.24609326601976017,-0.3076638644466786,-0.011672326555515495,-0.014235017888270439,-0.023555017598753655,-0.3019005813475766
-0.19101268986919803,-0.24844351136017997,-0.242789471019391,-0.3012618724221997,-0.02123501189408135,0.03544992315759837,-0.006300698151147488,-0.2346988391460554
-0.1625139917300739,-0.22327968088689898,-0.23549135012335007,-0.30347934260967546,0.043281747264955345,0.06467262516582656,0.038379181150160785,-0.2263947077191992
-0.1585283096261988,-0.23155033784148552,-0.24296364221808045,-0.2985935282488926,0.04648026930221295,0.044296160278540185,-0.004220841665760083,-0.17362744151932336
-0.15476835287854052,-0.2260447925672255,-0.23734943905354486,-0.30692247870611816,0.03501243144883737,0.020144472138260153,0.0356470088234222,-0.2070082508230858
-0.1711423362672785,-0.2513216576069723,-0.2588527158246866,-0.30347962875282436,0.01981110610604513,0.0031952138842652016,0.04657866019593892,-0.23949325760537837
-0.1746866002187371,-0.23890172471630625,-0.2411844087372984,-0.3082397434445462,0.02561966373852156,0.03454024972591929,0.008688138443471247,-0.2874619885089047
-0.165058964506936,-0.2144065027046548,-0.2471607160740473,-0.3107080102095271,0.0019320357638608636,0.038885595394251786,0.036131368361646814,-0.16937802038055563
-0.1583702545870181,-0.21768030693707752,-0.24429446837957702,-0.31979095705941857,0.03805518875909469,0.04943345816770149,0.009244589607548512,-0.16602026336795242
-0.174583395478212,-0.2486610512891729,-0.25183678504800994,-0.33655972972621717,0.002643196266187668,0.004014343081744008,0.028537812686583314,-0.2450254189771571
-0.17886371244770188,-0.26111304091354093,-0.26205216081942284,-0.3306257364757873,0.021083699412749127,0.00424695413807764,-0.014985878438041332,-0.25308639735877025
-0.18286797759570697,-0.24222584460627433,-0.2713930630599067,-0.3444169124530698,0.022274787943298496,0.011212448893774679,-0.01167899647763592,-0.20649447638140184
-0.17736238000453966,-0.2221458777653424,-0.2593458111744527,-0.3040252714255897,0.03502353193149699,0.03817014975637378,0.06314627500453535,-0.1696254754618916
-0.17080986153569172,-0.22034252968055265,-0.2532624712398167,-0.31872727783131344,0.021051381835135333,0.043810620013254226,-0.010813108210191057,-0.1327191267676981
-0.18304453407090845,-0.21810658351873494,-0.2596245830896363,-0.34161468424177477,0.04478007185758648,0.00882897132625482,0.012376341297583051,-0.1612981253044452
-0.17742260463641665,-0.24204260628016844,-0.26612067036658776,-0.3229818024048695,0.008490080461991626,0.05773068808029985,0.039802528899935935,-0.19996550247641268
-0.17918635283273318,-0.2811093659883124,-0.27769108893617067,-0.3222371694162936,0.04020155775630071,0.013206226027276842,-0.04762964511951085,-0.25047770025485566
-0.16682332267796462,-0.21201954616194998,-0.26358235004261743,-0.33215926848649,0.018495389508242293,0.03298025504224151,-0.035982177320217947,-0.184785046447369
-0.1770835908120058,-0.21112997829212668,-0.25942404327126,-0.33418379612389537,0.04276512569956183,0.062070591717834286,0.050748151009396544,-0.1443194465086637
-0.1794569250331199,-0.2398553675973587,-0.26939765433692087,-0.337954695021363,0.01307934732587425,0.029578872879644554,0.03259932444149192,-0.10143391417702109
-0.17934794155720807,-0.22182512004367355,-0.2715608509083621,-0.3460256413519585,0.025016001519609397,0.011289350502464907,0.02348150405148442,-0.1760063953422077
-0.1979362815366966,-0.24914869829350356,-0.2887193521646429,-0.3522964209321378,0.03639421828358895,0.024863888331050917,0.05089291063587139,-0.239003102464485
-0.18698733061868858,-0.24946131069200161,-0.2766271729500018,-0.35535631535560813,0.011172512469707173,0.014190394656991304,-0.005307723914797626,-0.24829874322279052
-0.16902222144007994,-0.23578761382756605,-0.2784242322636064,-0.34263294928999305,0.048341805487800024,0.041967203464445074,0.01518376215557145,-0.15497032262927715
-0.1855614528510272,-0.22888238131805114,-0.2849207968005105,-0.33915434785910237,0.01783878394448056,0.036465361247669685,0.0062293762138218465,-0.15650417144328307
-0.18605275652611547,-0.22106311244308954,-0.29152019821321046,-0.3427259112499347,0.03944961753416306,0.04690792828747816,-0.0043359620236467986,-0.17323933305075898
-0.1873077114154049,-0.2523908432286034,-0.28995046119570317,-0.3562785260804807,0.02032956950919233,0.03539242752177249,0.010009033703487156,-0.17931258383421436
-0.189462657047535,-0.2646413168356282,-0.30133585305789373,-0.36289651452463767,0.013265254758401951,0.03141593833955349,0.019452397820187532,-0.19387036949682854
-0.1725037653449461,-0.2535808286728845,-0.28716712316810383,-0.36122477606131453,0.02884639036994984,0.02948540214558249,0.01782541443911891,-0.17277523379248383
-0.18770296640097783,-0.24143097927888815,-0.30903931865472195,-0.34051877745111897,0.024683943384954592,0.02714025428597617,0.04430378380884644,-0.09462484179383503
-0.200916659370927,-0.24215799287934897,-0.29150699523842144,-0.35636026429703077,0.030911693321247134,0.024213695134071178,0.0880186151228009,-0.17913053871600182
-0.19861762015308407,-0.27796926632101066,-0.3069790948288662,-0.39841334159244635,0.012735717986494473,-6.204388358179612E-5,0.012248377415319039,-0.24392355504807167
-0.22055359730968652,-0.3265545736070226,-0.32732272925886174,-0.3703761903144581,0.0460382579052831,0.056150573107523576,0.03027320719453913,-0.2512406814909835
-0.22722675634166858,-0.31033072999105515,-0.3299083840319189,-0.3530095981339052,0.017237011543448866,0.05613362953075727,0.044573970777427724,-0.2986555241898146
-0.21436914324274803,-0.25509135960046675,-0.30142620955696625,-0.35509566045168334,0.03823358589937628,0.05511765321417754,0.05035555906617379,-0.15242273794991518
-0.19343313572371595,-0.2924930369022028,-0.30663961189447575,-0.3458088065407368,0.021979156972180322,0.031378867907091455,-0.002526809797884825,-0.2395747381910656
-0.2237880464822821,-0.2886041373778479,-0.3197319270479092,-0.3628950817611161,0.008171903219364056,0.04020246481472097,0.016627338292565935,-0.24607466565785968
-0.21980483075464005,-0.308782047223025,-0.308317308326661,-0.3917211870486921,0.029003953463145906,0.027745034174762765,0.0415429856455213,-0.31031699181581374
-0.2283305897681479,-0.344808540610026,-0.3082793285558435,-0.3838046831751086,0.006642581223530537,0.01656442315305644,0.09226027486164652,-0.33308426673410113
-0.22237504200938696,-0.31306781657032245,-0.3207976150035054,-0.37309246303209115,0.028665441734179363,0.04245450412976858,0.01664179378391872,-0.28038159126958806
-0.2190140407918186,-0.29059845512080135,-0.31221659324277545,-0.3833981668591982,0.04620647736706721,0.0036370507162697885,0.08181589086744004,-0.21769225160062566
-0.22865410376332246,-0.2720851305714645,-0.3143025103127563,-0.39294573192709353,0.04446316613497775,0.040986595821312366,0.06733068287912179,-0.21674753758654552
-0.22003915765722798,-0.27161396073849553,-0.31407775364903395,-0.3655324403453794,0.04228392191247742,0.04035981898163082,0.04651521145628822,-0.2346722844129407
-0.22514223925395238,-0.3189117889831905,-0.31708545020846457,-0.3708858399122121,0.024243902461992692,0.027974198544787384,0.07574491222212698,-0.2662235315455111
-0.23846289040117444,-0.3225174712817964,-0.33183782822309815,-0.37230887194654266,0.020304212481711523,0.02190876212375957,0.11460176721687682,-0.26654891130155034
-0.21820830401016716,-0.3218307856509791,-0.3080734351750264,-0.3824097493043876,0.03145945310237996,0.06573866281073384,0.07508518706163482,-0.26630840145404505
-0.23731954961875273,-0.2847107971095367,-0.31113155255827984,-0.3555019803236757,0.02481247279273619,0.026925360716349083,0.09076117261765902,-0.1719222712972105
-0.2253565662956034,-0.2880273514776402,-0.30524167979105865,-0.3592122756973191,0.03376910361606646,0.060119232296477705,0.09975298920647632,-0.20192788239224746
-0.2256148485084923,-0.2944338031087965,-0.30967001919346987,-0.38924113221747125,0.012241800354076418,0.0700028665008182,0.07998409043144195,-0.25826438830887805
-0.23289723245646982,-0.31652158400220964,-0.324733526490143,-0.37740588217103616,0.03636000349725694,0.04047633239262514,0.06405814236998358,-0.27315663842858606
-0.24777303722312358,-0.3448635194312387,-0.32747889322452944,-0.3759825790028634,-0.004317203382325582,0.03787317358103912,0.012336509448324848,-0.35381789507247097
-0.22453689816350342,-0.3112561997035724,-0.30977236607183295,-0.3720878483719971,0.013418600053694954,0.050946314863750806,0.061297072379514844,-0.24793575274234708
-0.2339417477856926,-0.29362274844073855,-0.31761498181947045,-0.38784849395149706,0.0457966948291513,0.0573190893816804,0.04274170713598008,-0.17468289271969822
-0.22350395686279453,-0.27643357330081647,-0.32166816643947316,-0.3823729152055951,0.04592899426666201,0.016149863759731965,0.04624809871198494,-0.22647786072603893
-0.23450224154521182,-0.304053651429691,-0.312434123143168,-0.3616829669326503,0.005402929972216268,0.04240766097397032,0.017087649140951084,-0.24053519690478226
-0.23501992865731575,-0.3448443391878807,-0.33168935190364535,-0.3649846833632253,0.017333909366809824,0.022639734883894057,0.08579048131426477,-0.3472033433509665
-0.2438222628073764,-0.35616381067537384,-0.311965646913115,-0.38030714902170637,0.00849700339392992,0.053825316703888834,0.08658103276418544,-0.36609600752923394
-0.2435271484910018,-0.2886532291120949,-0.31709627448283295,-0.3707097964403475,0.03539469714726144,0.023030344767487627,0.040032584435060366,-0.2736741401960694
-0.23218043794487983,-0.30032588001424787,-0.3021845453520268,-0.3671935321990788,0.028294816328760367,0.0325810098825708,0.089610682590915,-0.2022424053039958
-0.2203374562054199,-0.3018571787587244,-0.3092477414867483,-0.36619905018286836,0.03159169712305299,0.025115454359502094,0.06176563228293394,-0.15944011814226525
-0.2318960494245577,-0.3061162405252554,-0.3270853776350031,-0.3670089232688726,-0.014976870550037245,0.04962364417463976,0.06338034712238352,-0.2782017138235652
-0.23762388501105283,-0.3543143607834301,-0.32016184326005065,-0.3935751808209832,0.018043440020380375,0.031195658401878497,0.018244071164465817,-0.3430002713282477
-0.24983545989852923,-0.3580544695010751,-0.33101192076784697,-0.3717438483680178,0.0014361082368920695,-0.008597445548993258,0.01576554055450389,-0.30720009300896295
-0.23492462572247158,-0.2987205339590699,-0.30959590580730106,-0.3922859754802189,0.013377087158347383,0.04235193550196848,0.05127178319819085,-0.23284268752719406
-0.21496942774947572,-0.3144982077271144,-0.31309117664797353,-0.3856440503537609,0.04059437073861038,0.0458494163693517,0.07191605840109268,-0.23377585420288857
-0.2295534798516134,-0.32083307277328416,-0.3171602383326297,-0.3779448341594924,0.021237408759087303,0.03300001612798984,0.05875211292147448,-0.2774922145592929
-0.23008858679170593,-0.31050904397245394,-0.3215991274267649,-0.40567354167152275,0.02582739661061556,0.029076615568903817,0.06028015785459048,-0.23477569561829806
-0.2542772755528716,-0.3379436680876506,-0.3211644426066115,-0.3892495082147464,-8.67643287780229E-5,0.006780355563681773,0.00905691064263989,-0.335863179231538
-0.23506976528050536,-0.33112314850254276,-0.3236756017257097,-0.38389859848120717,0.017693220368877327,0.03281416990175541,0.0542152800858441,-0.30013784630581525
-0.22406283094736903,-0.28946076003888754,-0.3009329412078816,-0.3625038234044975,0.028457351520347,0.06548029477256571,0.05050096638678923,-0.20491021575356505
-0.2314732890623117,-0.2932097064368891,-0.31404854927884934,-0.3757546360548052,0.044389693184284255,0.09236760261360567,0.05617610024457412,-0.22832687581187175
-0.24450130630685482,-0.30084616091562616,-0.30254329794393153,-0.38785445533279483,-5.781011030517439E-4,-0.004872630988255791,0.06328318824946173,-0.21711987279588413
-0.22543002166661805,-0.3310748840939736,-0.3309690269043941,-0.3671889503735194,0.026919980485856306,0.006790759534089574,0.031107942361090615,-0.2964620226507983
-0.2453226593561824,-0.3572758158706769,-0.33786848550667303,-0.3908064550199217,0.025100857925115606,-0.004168901976133585,0.019330564072491653,-0.36045227276445985
-0.24147467381355026,-0.3024715959225045,-0.31136237194025174,-0.3845123763994662,0.0019421943256978953,0.003817897740376195,0.028263344315143896,-0.3834197286859919
-0.25930084196937775,-0.30542954391480337,-0.33428848488855595,-0.3663291135753955,-0.06326953247545926,-0.05893042322814832,-0.037899026339027135,-0.43964902594107647
-0.2685382128191747,-0.2835248634188188,-0.3294592109307695,-0.3253770636668719,-0.05137662116855926,-0.05172392692977098,-0.028869505689695308,-0.5140598948254058
-0.23899976277142612,-0.2562201534784691,-0.3182795088008276,-0.38635661723177456,-0.04082063348323426,-0.019887511768570263,0.017901959219640984,-0.4942266868521173
-0.23831861635218074,-0.2789828401473167,-0.3104411450996843,-0.3680639974477183,-0.023623978057716894,-0.012632828558484762,-0.05644425021368256,-0.44285344839050866
-0.2349232113018651,-0.31894365364048266,-0.30407526151423114,-0.3594594463722658,-0.03893054020774213,-0.015522661214519616,-0.011736327417053665,-0.4361363431273569
-0.2198092427732897,-0.3015247901510783,-0.30438733683354885,-0.3535261386380497,-0.021256391994801817,0.0026012219951914287,0.04167431337032241,-0.2635919772554842
-0.19794276206853817,-0.2563113905347409,-0.291290922347942,-0.3565816781508762,0.0013917578556962417,-0.0010539531549184939,0.09256212363807349,-0.28024804447252843
-0.19350415726446996,-0.2803972346337537,-0.2853558850280291,-0.3653071874160779,-0.015859083895800312,0.0032849788155615935,-0.005024186848946541,-0.2580704838718553
-0.20785046321719788,-0.30035610946911334,-0.29183560002498676,-0.36111209155025026,-0.0387329455900312,0.012672224959740724,0.029765067490305143,-0.24975814688396258
-0.20441603312620482,-0.314324543660081,-0.3026574208563232,-0.3624836052596663,-0.03942435728644876,0.005061874498298363,0.025872204158730372,-0.3584754084378707
-0.21257656829611984,-0.341363863460334,-0.3092640809548158,-0.36566961771400713,-0.05550809379293252,-0.009923471712234762,-0.0036417070898584303,-0.3580876478563197
-0.19132111838353646,-0.29089542210420943,-0.29545699968710176,-0.37485552309333087,-0.04754902407934653,0.015820686049495717,-0.039551886050360786,-0.20115650033753876
-0.20893141610339427,-0.2841279834159503,-0.3052175293160351,-0.3800041606555735,-0.004241233118171124,0.018332312310599994,0.032122014781937304,-0.25247301794106025
-0.22073002745060272,-0.2781884264172807,-0.3049316517959176,-0.39023223955004055,-0.006069060898736999,0.00894245744641811,0.053748595500398004,-0.21520928783957793
-0.20975397342966076,-0.3059003548258857,-0.3249777183928624,-0.3717179976138474,-0.010210129498026119,-0.0214280082847939,-0.017610118121429312,-0.2934102403807496
-0.22393821575455136,-0.3447242838315158,-0.3347144536236401,-0.3827996586666072,-0.03438558964885771,-0.050893703519594054,-0.04054118604666613,-0.3010368218927283
-0.2189632841504738,-0.3618124624410316,-0.3108045162152796,-0.36127886209490834,-0.052791986338760304,-5.66261609348939E-4,0.029092156911871586,-0.36120620633918543
-0.22379705547149384,-0.3085337416011877,-0.3196107164791052,-0.38756076362996966,-0.0341414645735272,0.01604668589065106,0.025044328885749055,-0.22926036255341606
-0.21691480796897497,-0.3135102310713204,-0.31724776769484087,-0.3820391575770463,-0.031571374148662686,-0.0034933185803161255,-7.945976278504516E-5,-0.29937443850576095
-0.2185327029883368,-0.2969719013730661,-0.3120384004055422,-0.367470295095735,-0.03070082243477144,4.277076180357135E-4,-0.006635576527439592,-0.2640538378223441
-0.22390494572351738,-0.3234655103743538,-0.30801381872270567,-0.38127595599211456,-0.03811794530748172,-0.008598157530474895,0.03451637636231795,-0.2898853900395318
-0.23718635674430566,-0.3244764465860782,-0.32397014322204093,-0.37213717304659666,-0.032317441656574464,-0.013122910839106305,0.026320111959125213,-0.3400695849958627
