-0.01282871995479549,0.40969385291856486,-0.021656791074734946,0.038842862825503595,-0.17501432192234595,-0.21585166682532236,-0.177975499699091,0.958036204717933
-0.11025195965322156,0.44725322892904673,-0.085667845079835,-0.07101256130369517,-0.31623492722826435,-0.3575013303227213,-0.28311725089267703,0.8954787530753239
0.08330584737790259,0.48852200394167294,0.030113631632525915,0.11819986911707088,0.0027304364321766275,-0.18122623226896614,-0.015606098977667682,1.208996896754373
0.0016027659440311388,0.40713105414117917,0.01750040600653588,-0.0044160867779437915,-0.17477503256121296,-0.2845290526691062,-0.19229852493702973,1.0966192258054155
-0.06300212309652845,0.5072912150212753,-0.07235074486537497,-0.07362769370513289,-0.22946861109415762,-0.36479923884626003,-0.19723790367417202,1.3449213753052258
-0.19150576270083736,0.38899535534652574,-0.24404386466304687,-0.23997908372548937,-0.44092735212219636,-0.4926778005246536,-0.4492089745583227,1.1605022465573311
-0.07964349737805232,0.4521807614222569,-0.09124151695961252,-0.13785947540381446,-0.26636405545457653,-0.32771991636292597,-0.25534157306426275,1.305266551428958
-0.08798684018370953,0.4767242893675867,-0.08014231126575808,-0.11996990149470431,-0.1999707604172821,-0.34717839122493327,-0.2818679040516218,1.1076151691143108
-0.13256497149743912,0.46032490373097235,-0.1423766208685706,-0.1743808320276297,-0.33650347151076043,-0.3792043493121817,-0.3033752748950187,1.578781165587685
-0.23215717737844238,0.46972210213308113,-0.26379298293711023,-0.3227556147672828,-0.42932950376817963,-0.5302849294653723,-0.4227408978819926,1.1869848116269088
-0.2062806442278039,0.4008303776411535,-0.24709632513654253,-0.2608529144849065,-0.3314806825259736,-0.49508117131809015,-0.35967761302088425,1.1449671595280921
-0.06725224550979568,0.4717709835589125,-0.1271206453057044,-0.1302675051788587,-0.11554028291675116,-0.20110856631722404,-0.23933664506382119,1.1398186783217623
-0.12686382881797412,0.5532746045981611,-0.20015358587682375,-0.18069480492353404,-0.2510818130883597,-0.2684282837496198,-0.25197034516313277,1.2360697420471716
-0.25466674341486173,0.3395133739654096,-0.2666068275899888,-0.3180507180390389,-0.3469438223992727,-0.43524876414603453,-0.38420371507934836,1.2046932492499838
-0.37520726006504235,0.4184804170622829,-0.3819605434780261,-0.46687977317014967,-0.5674353689824068,-0.5941898373781386,-0.5763631627217192,1.4222549122128052
-0.13579694087778613,0.48785539289660923,-0.18541681451496833,-0.16280773655132752,-0.18512533252618968,-0.27704487605277067,-0.27123452536810994,1.521849428304988
-0.17644669402761665,0.48201983711418644,-0.26258678601156965,-0.292186779615844,-0.2705893081424545,-0.30879166926005647,-0.21786845902069507,1.2660977888071083
-0.20752497968974407,0.4588892221586179,-0.32275426584638567,-0.3233327845218357,-0.32018068421139295,-0.43751607092543726,-0.3473389535052248,1.290852165764378
-0.39696199596919834,0.4951402122920236,-0.4305984524880231,-0.5424477373723118,-0.5596369094172549,-0.6505846129786135,-0.5781482845061183,1.3054103595027073
-0.2578496787971139,0.4638030818345199,-0.3223215417896602,-0.3609029870877848,-0.36241139385938576,-0.5280909355045343,-0.45974360196460484,1.2662951237414004
-0.2094699939368588,0.447527016991042,-0.31355668720861385,-0.30338690668785867,-0.20435640231469052,-0.3876416480937488,-0.3109888691324811,1.305384998594059
-0.2672445309873115,0.3913864585723671,-0.32828009200432035,-0.39065597709975713,-0.4513337635483249,-0.5074393191735583,-0.43478986583742096,0.9817051381518795
-0.3744897813727271,0.429456772983737,-0.43873672123586543,-0.5499312391617156,-0.5508327923391019,-0.6169587797188503,-0.5579936057500146,1.2683149392328963
-0.45839842789167967,0.45465402610866257,-0.49400571508535956,-0.5992892196052266,-0.6334338771307875,-0.6718448116157585,-0.6829546301214148,1.0954283021036255
-0.22654571177372182,0.4092795457428316,-0.3939649994821044,-0.3493070980574651,-0.322135190526512,-0.4632844890162122,-0.3756657974647669,1.158725051707962
-0.29718395249099533,0.4001147715776548,-0.4188449238199007,-0.45200680166644364,-0.46494085415882674,-0.5935463917363777,-0.5718357800034296,1.2463893947021731
-0.37357657208549405,0.453546541742796,-0.47265277370203473,-0.5180632862398942,-0.48529107822203604,-0.6619350070254587,-0.6016661792205761,0.9777663253223106
-0.5516667383750725,0.48505280964424435,-0.6077738921441274,-0.7175270474762129,-0.6881403670420092,-0.8205044307384932,-0.7367249236192499,1.3797936936489719
-0.32707402053150897,0.40877868040969917,-0.40556632005937754,-0.44101050475310843,-0.40054578810968083,-0.5146803847652899,-0.5339274218844686,1.348678273643419
-0.3538542363163388,0.4450817177315337,-0.44039290238221285,-0.48935043445366294,-0.44289972287508916,-0.5538444402648363,-0.4788051493239121,1.1293902704855634
-0.37920239103490333,0.5414475713519056,-0.4644720205007358,-0.5842152701891578,-0.5268771425776936,-0.6304909387655301,-0.6413531324034586,1.2019816970200858
-0.5134439583415189,0.4341799464278159,-0.5843107690236151,-0.7408139814019445,-0.6851956872199495,-0.7615047433711566,-0.7431116785387667,1.3719561911798557
-0.3939685621425499,0.47839775699475845,-0.49368850852367613,-0.5618006926265234,-0.4857988891282269,-0.6291468108885861,-0.6015434071886636,1.20030875710016
-0.34254887468926243,0.4419689231418213,-0.4596425055775889,-0.524544191801245,-0.4327389832308692,-0.49825126911682766,-0.5518206471997488,1.363874698543965
-0.3563317555132856,0.49797731499274134,-0.4737632990130105,-0.5917460183399885,-0.5184943629035992,-0.6279728485389687,-0.6122715943157245,1.19076151254026
-0.4981607025705204,0.32544841943933267,-0.6006584545209547,-0.6822607271853224,-0.6360774206592504,-0.7802593517729304,-0.6881962565508865,1.3900214061728107
-0.4241953784389671,0.46079822288793615,-0.5275709574776833,-0.5929987219213295,-0.537944128948642,-0.630104192557042,-0.6484378891228281,1.2927297891322242
-0.31546141039143927,0.4055826694109076,-0.3901285545359289,-0.4968686694864509,-0.36061167458536714,-0.5107775187131253,-0.49706474723661026,1.463981630205294
-0.31172166174921756,0.41743948732762703,-0.43508196752231165,-0.5570551543311396,-0.4138727794455485,-0.5863040310886644,-0.5523600920941344,1.186856288875346
-0.41793854400716796,0.3771190607299211,-0.49974304433728384,-0.6224027820041612,-0.5311112019462496,-0.6709731783069104,-0.6419744085008932,1.111044554680618
-0.33261463091947857,0.37257362621298457,-0.4831064499761044,-0.5545065655127974,-0.44916644601086525,-0.6037506368024772,-0.5651325275522097,1.1414818666363094
-0.2644849060864894,0.43677618563726806,-0.3793644155560192,-0.41685322119832646,-0.3017460467046451,-0.45845739059243873,-0.38560153405572817,1.1589405583728944
-0.30255119595771707,0.49196023950844825,-0.3953488998241952,-0.455952585300339,-0.39935837308464883,-0.45671129138850375,-0.5092330066146445,1.371017339118621
-0.3366691522009443,0.4558457382704659,-0.42294242108314184,-0.5483315627243431,-0.4005680107847611,-0.5677329865371387,-0.4942194653742883,1.2763997030862158
-0.32397969666035964,0.45279782849735617,-0.4348870811963594,-0.5184835513283861,-0.42788529526337044,-0.47853783072907286,-0.4670625743434353,1.2406751809114176
-0.1996665496776423,0.4281173068807188,-0.3368377413257486,-0.41778414090595134,-0.18342503080563122,-0.2615327587385518,-0.28067970617754967,1.476909402171941
-0.2355012591193764,0.3927819006108809,-0.35535834124592236,-0.362968534949388,-0.2495744001241781,-0.36290081142295444,-0.343987391768424,1.1363335255035603
-0.25041690338772243,0.28260119707941134,-0.3720439617105175,-0.4062264080300121,-0.28955364144675866,-0.4567957310004253,-0.4217590170684252,1.3295118343199774
-0.29210166234812446,0.3561810186196325,-0.405134442454551,-0.4575208161286785,-0.3507388085389063,-0.4597030180911588,-0.4610929069795018,1.167152492279993
-0.1642631433205028,0.41147263365287157,-0.2921096274713361,-0.25297986261750843,-0.12324341221165433,-0.2772506157002683,-0.20374475357076677,1.2414501340377346
-0.11032969153562285,0.28482668821492496,-0.27938754109994746,-0.3209949418165076,-0.12974782882319957,-0.30821717982581653,-0.17896462041972058,1.652367165319906
-0.0759781159573153,0.3733307564495131,-0.27127012438647313,-0.366942020842212,-0.18510236703757335,-0.31135463737257807,-0.30721914791736854,2.008718054194747
-0.12848340573046726,0.569331141981051,-0.2973255696281394,-0.4548397016508976,-0.328623574708165,-0.418994750052561,-0.36381696323345925,2.0254703576962747
0.022395178775490056,0.52719372033635,-0.16846798419193143,-0.2643346912437183,-0.13295782215075047,-0.13038180647366657,-0.21887079826497974,2.1162029562431877
0.03820023331118582,0.5674426224478836,-0.15626680587037514,-0.2928318862991146,-0.10721724896065167,-0.16722866029376474,-0.11632936003807164,1.9367048636026778
0.045340017429447335,0.5122758862767569,-0.14084784597305305,-0.3255373134989365,-0.16293594813002069,-0.2948427265757861,-0.2623540168511721,1.7640654624541805
0.022984821108183718,0.6303072616899804,-0.17464627147013748,-0.38232366904467974,-0.2534358756307657,-0.3566439252821208,-0.29111630614780826,2.0039866372744157
0.09295860100713205,0.5159084972262528,-0.06507863441019446,-0.24926916086875103,-0.05985430225961881,-0.15063016859809109,-0.15429908422223546,1.8129597447940675
0.1438754557912118,0.5952048056662627,-0.028676694894300508,-0.16842213088788566,-0.035462870101456566,-0.004954785349036787,-0.04123845241504733,1.898454236796109
0.12064992686585878,0.5497155057362324,0.0012169176568378782,-0.168719455798552,-0.017193495133605984,-0.1029946547356494,-0.1975392678182557,1.775443085748369
0.1236800952558037,0.59519914739052,-0.05448988356359937,-0.20102333555445454,-0.1042545144215687,-0.29682796385764665,-0.2873074468222263,1.803262021742808
0.12606284042818555,0.5703081357657529,-0.0629662860018889,-0.21011917319798973,-0.19309989297037164,-0.22126950085834768,-0.29697150155587143,1.8011303873549043
0.22608742598703646,0.5956087913393656,0.043990863040750554,-0.03269050071836704,0.03262572529536222,-0.06675959620234309,-0.11140742749138474,1.913887778956815
0.2681268790746615,0.6173077455348105,0.06480251554595687,-0.05326678401981462,0.04766598013806984,-0.10572879927408635,-0.11025066552113655,1.6496477157861735
0.30766419956467045,0.6103771206584262,0.05873810834934043,-0.04068772956829605,-0.07495132206247246,-0.09528844071070947,-0.1385411802027427,2.0642449577195077
0.265072765208412,0.5571830820604285,0.025895683399768447,-0.1239697165570255,-0.17948514285587086,-0.18674546992049024,-0.22847034254705423,1.8038086091807966
0.36657300144775223,0.5928796001194775,0.21131473075438748,0.06759110516866738,0.1716249399619651,-0.0480050676456985,-0.024108305438196448,1.6537287108758758
0.437050304384082,0.5716263425329821,0.2788526844088516,0.1326195511097648,0.1528331492049661,0.04015490372143792,-0.05102380393290117,1.8731310805326786
0.4287769695618973,0.5872128917835047,0.2758109103325165,0.1085161414186702,0.08926833524747249,-0.03282793809456772,-0.02714522560554947,1.7122186827132397
0.356993723610043,0.5452977657143626,0.20157120026644493,-0.0033406809244104167,-0.053096317722334134,-0.062265711221227045,-0.11121827375045226,2.0510653775971317
0.329960510453113,0.6197572237253255,0.17660981589127484,0.03555197586980684,-0.08888415775623165,-0.21933605637753759,-0.2552040412934945,1.6846596421134907
0.40348529051915816,0.5424990919947631,0.28942268257005355,0.2444534649740496,0.23764313802202267,0.04914708161634961,0.030590110357952782,1.6558157334819368
0.399641211589689,0.5089022911194476,0.3251834309249237,0.24279280602439962,0.15911974630061446,0.09637621042249711,0.08599602676289506,1.7456572369329386
0.38211411602285694,0.4443106025531236,0.2865563788875356,0.23857367548995428,0.1049943140347577,0.04691596983949895,0.02749615183385881,2.1819644851224997
0.31208316467686104,0.3875442017881796,0.15359686228256278,0.05365790465826978,-0.03226250630403647,-0.11905540508455588,-0.09623255241211076,1.9144285318839709
0.23114757952150053,0.2671573244546861,0.10135595662974502,0.05342420147185143,-0.0880037564516071,-0.24271221525505846,-0.1982699204464684,2.0285992972732005
0.3119929913243575,0.18610043011448152,0.23727712737503442,0.2489980068524705,0.24995092260520094,0.050538249390174775,0.026258621330833853,2.014849026401333
0.2552958998448388,0.20234845757618097,0.23215144383444616,0.26798998056666834,0.167389523159595,0.07210651704067617,0.09182829701441332,2.027255380562679
0.21804770689394223,0.2693849446541444,0.20195596142006272,0.24428720362132617,0.05903509830642288,0.08009917922842713,-0.02538081074928716,1.5910831354139063
0.06325365606445647,0.338799639353364,0.06049277845087331,0.12609661351889864,-0.11794160125846385,-0.12480854911727589,-0.14335797348242543,1.6039405547127112
-0.038400848667408845,0.33167828184031023,-0.028123633778932164,0.04579755881392915,-0.19320114829227872,-0.2438573956737246,-0.2594794977279541,1.2195549252448163
0.11779352626016207,0.34901340939000247,0.12245130190606397,0.2244238898205503,0.12669684799348155,0.019126825477716027,0.044139395016850345,1.4024717400395819
0.041030847135693986,0.3535439248838454,0.06194695693666403,0.15759726330436644,0.1070557707890175,0.06499321294163822,-0.05005917771267221,1.265985881664161
-0.015396827836968888,0.30194385702859333,0.005640792292724712,0.14463503370838865,0.08776265523655484,-0.07184855374241302,-0.02169831714829127,1.2638067317945156
-0.18702851571169532,0.3562640470242738,-0.08352021048279933,0.013940331379811636,-0.07809038200734644,-0.21479820278426373,-0.2477631248556474,0.5563731209140587
-0.3253876002134377,0.398340441936377,-0.18983300761869806,-0.11071709477894441,-0.23357813930302895,-0.4051335997337636,-0.32671213842413793,0.7037736743341477
-0.06355360213699804,0.3757033987226197,-0.057296100021392196,0.09171869429807608,0.09365981384472538,-0.005103128732178255,0.02255798615219471,1.064611858728542
-0.11617806721675424,0.333704999683458,-0.05853680178693623,0.06914777623302139,0.13661776709724854,-0.027822764898604524,-0.03280075635159554,0.8484883786693529
-0.14973481475886066,0.3952930836169957,-0.13310521005013395,-0.013760975056021859,0.04721776064962261,-0.06497075667029133,-0.06791986638118874,1.1044850976150207
-0.23361186849925233,0.39234531068871453,-0.2528023021903239,-0.2711718383097741,-0.21017380405855826,-0.38180694983492175,-0.3016588067351189,1.0089093485727294
-0.32109571002026743,0.4407627074751857,-0.4425450862642314,-0.4814987017072329,-0.5765009601208295,-0.7127893678836401,-0.6876875760526487,1.235435067722451
-0.1454535232488059,0.3326048515408042,-0.24840416779960867,-0.1634830282460642,-0.2925572947160872,-0.4948446864831977,-0.4161860694796358,1.1624717650985052
-0.1514377421097706,0.41747979310785716,-0.19555046968203352,-0.19312457791069876,-0.22088872044695532,-0.4064403763241239,-0.32168135885710664,1.5668108723263197
-0.19107474679982145,0.3765573035860362,-0.2843699348707246,-0.3095530105252114,-0.2483542806291314,-0.46808181765158097,-0.4954465552296608,1.7308536850645349
-0.3070212564755448,0.3617763288161791,-0.39996285108588386,-0.4122815946466399,-0.4652069799223681,-0.6170062035175584,-0.5609664319062856,1.3969917528149274
-0.46233900535579003,0.446972903456898,-0.5124587967819136,-0.6001277281663051,-0.5860137930069609,-0.7382803497873344,-0.6715211569055222,0.8980981685214472
-0.23620551262130718,0.548999228624161,-0.35970732917158604,-0.2794668933245345,-0.22248940511833368,-0.439948188055112,-0.3087336367388848,0.596582812136015
-0.3364086846184439,0.5987463297906737,-0.35922667021674953,-0.31721436823333676,-0.1258307590561776,-0.4292981494103546,-0.2759488507132847,0.5014213828975784
-0.40316597830866024,0.6548202658332067,-0.3848858216595667,-0.3644351279087599,-0.2073195827629042,-0.5067506080477215,-0.3459187568176403,0.32183490350843424
-0.586841822463581,0.7255884356081612,-0.504217304299916,-0.5243742721927127,-0.4669013281268106,-0.6292829506608536,-0.5610882140512374,0.5341273546960216
-0.7299988703491656,0.8134219340493087,-0.6416485341819568,-0.6606939149326436,-0.5508787476898277,-0.7653710982910229,-0.6653328213022349,0.9193905509190272
-0.38340172643543796,0.7153511809793156,-0.42114121391545384,-0.3839988882536034,-0.2554550638955275,-0.48103982340699314,-0.4709028019731903,0.8910725733612722
-0.4233029820234509,0.5984741156159402,-0.5140199861976076,-0.5312591499604623,-0.3658929604946615,-0.6398027610413027,-0.6053335814721893,0.7200454761063154
-0.42288655728034935,0.5061333879565295,-0.5515485452766709,-0.6042129681423997,-0.5535657829047965,-0.7939728016019257,-0.734668552505166,1.5853045753258383
-0.4476229481698546,0.4291126527086947,-0.6356996644414693,-0.7677644447364113,-0.7483434407483404,-1.0041416949223905,-0.870629843465149,2.2581870031326066
-0.4764369183103555,0.5580929796331958,-0.6231774414715694,-0.8479050668333651,-0.7988236139684857,-0.9484166153970507,-0.893990697819798,1.9720235511801687
-0.21902087752637375,0.5515993052007779,-0.4287084293119554,-0.6008453257704137,-0.59804845866888,-0.7850819658744707,-0.6488251382059154,2.00808480126472
-0.2601612677132109,0.6068575282520882,-0.4459785754309037,-0.6586302095383462,-0.6835373679065961,-0.8778687253432023,-0.7609495056943132,1.860529774987742
-0.3275171751663499,0.5369277442130908,-0.5141043531893582,-0.7246888881429618,-0.7618227365728023,-0.9114843778885777,-0.8540173163520275,2.372210263672177
-0.4270836492267064,0.6354086329247555,-0.6086578754024295,-0.8991443841682396,-0.8726795519354983,-1.0296462547639653,-0.9367273636078512,1.8251681515352982
-0.41145785479113267,0.5195236771194163,-0.6077362296105732,-0.8827153828279987,-0.8794456572270305,-1.1243731269511648,-0.9367925386141617,1.9244063233139903
-0.24881565509649584,0.5191906922966851,-0.4258970801870025,-0.6381988062028467,-0.7941887975616054,-0.9851825696216922,-0.8620476962164949,2.0881335702171877
-0.2553971974593763,0.6092263106959178,-0.45998382141721145,-0.6735910636392827,-0.7770153675615376,-1.034922511271983,-0.9245346382382167,2.2722489331715923
-0.29994002594192365,0.5344726103825294,-0.48529370090885743,-0.7583164953364763,-0.8748188932852393,-1.0141658460797518,-0.9264272381747913,2.065135546784057
-0.42822624336216736,0.6066606834115028,-0.6441728568519489,-0.90118777133715,-0.9753373926020297,-1.1736368537114308,-1.1056498914484618,2.0683102244731573
-0.3759092856746661,0.5268350188428217,-0.5680447184608014,-0.8412637185779244,-0.9009577221501901,-1.0793557917007566,-1.0422063901593148,2.1256581923923012
-0.2500758308327236,0.5464288112265967,-0.44849095289476326,-0.5739406329964206,-0.7500090926306282,-1.0021373759851728,-0.9227190026925027,2.092503260570954
-0.2517907824256227,0.4733247630268298,-0.4920336606851539,-0.6578861067939831,-0.7602339703273898,-1.0611575180532657,-0.9183085466198949,2.2616804989012973
-0.32777339419534524,0.47709913677383364,-0.5054679098736532,-0.6881991254835225,-0.8529024560425953,-1.105834129535479,-1.0756809899678597,2.1203196833354827
-0.4561671855497259,0.41873264579820213,-0.6335879013521947,-0.8440703093697515,-0.9573551687314746,-1.1895038959336552,-1.0631137679148062,2.119545648267715
-0.32578660560307393,0.4686941757197888,-0.528664149285817,-0.6747074234500609,-0.8457918305231713,-1.0989386721696652,-1.029426900592461,2.182933631865893
-0.19196429462159,0.3970372889991292,-0.3914551734703552,-0.579042738115269,-0.7067722141018087,-0.988285366521333,-0.9283680235976013,2.1120438041309932
-0.20945152850371174,0.48174190737077366,-0.42782266500095156,-0.5862227052052256,-0.8048947521667789,-0.9999523613682806,-0.9297896751784516,2.0726920835942124
-0.2726958599452697,0.4191578345362211,-0.5077921384933581,-0.7197697183216242,-0.8599537035232707,-1.0845001616393566,-1.0075812099648354,1.8905193258163717
-0.43162578058193146,0.5068849045550964,-0.6016933341740417,-0.8239320406400061,-0.9800882660102173,-1.2353562005992722,-1.0979749088857713,2.0392415686939946
-0.19399609087002662,0.45554065421244927,-0.4149977781666463,-0.6193725703053184,-0.7811197665365425,-1.0757362642496162,-0.9177012891422225,2.1015096580092223
-0.17280479933839799,0.49205691906452526,-0.3654209006501052,-0.5512174033710737,-0.667023814370851,-0.9691840975079786,-0.897384917812282,1.9578802272586115
-0.14629844503618022,0.466592377601638,-0.34499097080177293,-0.561230120120664,-0.7554066904847768,-1.02310887102443,-0.9251585607733755,2.1847542423314255
-0.2362190912002253,0.467872142371867,-0.41848301035632396,-0.6520246942283158,-0.8492568755694125,-1.1056939465667437,-0.9698082099110076,2.0391797943619783
-0.2922142684399163,0.4433100098994359,-0.5146908140127622,-0.7756848416741539,-0.967051405764965,-1.134532008780243,-1.0743364210630562,2.059414103592353
-0.11450850135280102,0.4273129708295546,-0.349849736494806,-0.5196561464714134,-0.7148334742833024,-0.9303671961212562,-0.895337749480185,2.210250554360379
-0.11184656809741957,0.47575259920214213,-0.30392313402348453,-0.45842483291672537,-0.7127707727085822,-0.9479130421269563,-0.8712278107526881,2.351463052317953
-0.08587160813050074,0.45329243983077355,-0.33538609051476714,-0.5000431170015756,-0.6909304555099984,-0.9470128586292319,-0.8161543825286701,2.3098189298504646
-0.1918730098786348,0.46513722375042926,-0.3766255506888306,-0.5588130038455752,-0.8124273801469263,-1.0312991792634025,-0.9743894022418284,2.0562139641118913
-0.16718087370500848,0.4646631685478842,-0.41580014895606837,-0.6462894866445941,-0.8872363724663815,-1.1024806600787325,-0.972419274208548,2.112579159746542
-0.016955871318322057,0.364487132013443,-0.24179805863083953,-0.3842396715593759,-0.57546248526262,-0.8197289039665399,-0.7212822857876844,2.0341492966699644
-0.0650456648976015,0.3742185392712223,-0.2859276877973264,-0.4025406805628393,-0.6133902341183998,-0.8172326051092597,-0.7270913191320594,2.1161351663214103
-0.10336952624940315,0.3321358936653625,-0.28861669063594253,-0.42374017692012156,-0.5861759667584104,-0.8348458671709069,-0.6975183731686178,2.1351637554352463
-0.176419479914772,0.34948179054863604,-0.38985437381887855,-0.4920836848295103,-0.6360144077487624,-0.9901007353439749,-0.8346487286958427,1.7288320165163473
-0.1987143583226705,0.36950485993908544,-0.3924524125215285,-0.44216136681920803,-0.5858133235048106,-0.8561389579965879,-0.7983203081922884,1.3521916114688233
-0.07566947032727055,0.4090781935017698,-0.26177073221928177,-0.21347738438578207,-0.31323646299174546,-0.5493683542284208,-0.4975324903879682,1.4150738019478037
-0.07890461100650666,0.3930374392039438,-0.23487910417958996,-0.24713479719238385,-0.21832251971399408,-0.5628500493058939,-0.44606942114609316,1.6015380986669752
-0.1260907544114905,0.4293403800557663,-0.2973406567805371,-0.3158367679106605,-0.2905894103109343,-0.6193009075178741,-0.43063523973724016,1.3633017466999482
-0.2308476104100252,0.4881537154125872,-0.4012548140051431,-0.44346240379850804,-0.4697483430868445,-0.6948306129816186,-0.6359333994246734,1.0420832967317786
-0.12483627470409067,0.37689732834566236,-0.2635465218668752,-0.2838880669815928,-0.22559824114456772,-0.5523703883051485,-0.37366538646656017,1.4799868241512915
-0.10852566995803732,0.3112345587289484,-0.2100968390927262,-0.21801934729568667,-0.09072709920156155,-0.44556732892051787,-0.27936122360089416,1.2928540987782495
-0.06792575781177877,0.39467266646016935,-0.18451373517005307,-0.20797101903965431,-0.16753314421577353,-0.40591871971181065,-0.36580081093671063,1.287429388275338
-0.13294547743196608,0.44454461788691174,-0.2789587926496492,-0.2815131487479416,-0.24076884810050928,-0.5276708847648615,-0.4045775292518844,1.3164139248757072
-0.16481740438338496,0.45575307715054797,-0.32014167354094974,-0.33830417409208774,-0.3413926453122947,-0.5109445939482385,-0.40682214265455535,1.2840975795597873
0.008241511850349706,0.4164977476311013,-0.1607575286021303,-0.10744252547368828,-0.024996841178708835,-0.3268311310535995,-0.13795722097030172,1.8111315552497014
-0.022511129627777824,0.39397858725067253,-0.1415606545813375,-0.11189156637927938,-0.05409932948618686,-0.3503533230333746,-0.2488608357038328,1.3426530719394345
-0.057631178954795775,0.40955212369036154,-0.18804142954638609,-0.1732169906618832,-0.14158516347039057,-0.3727174575666322,-0.27442591848693837,1.6866154924092995
-0.11588101063424427,0.4270324944853418,-0.26090796135677086,-0.28910067502835857,-0.2593150118607505,-0.54739938871979,-0.4502799757785149,1.4594719977001043
-0.0027196135488659445,0.3584310798768218,-0.0969023252132742,-0.05578303651455067,0.017291760592232062,-0.2924816772563312,-0.11682335572234909,1.4921177767960188
0.02607899626131459,0.38238503363714976,-0.10915191231317023,-0.04724968820128262,-0.010966802425608047,-0.27924135030122677,-0.10283834496020454,1.5517773887895077
0.03161606782790254,0.4071476391665155,-0.1513342807357375,-0.1058997394897538,-0.03474682121386469,-0.2810666305964411,-0.10910064550803485,1.1287701698925139
-0.031837697039267546,0.4150327778243708,-0.19762616507759312,-0.17357640668558838,-0.07865281880479429,-0.25762803563454745,-0.13053652517659872,1.0998387696143166
0.14451941070802263,0.3040189316054009,-0.015113906593663119,0.06773781466389524,0.30209299254984384,0.052421258215785076,0.08949851512926409,0.922385743477006
0.13956916484704215,0.33442087241285534,0.05166166053519324,0.11970502831888348,0.32253907158976086,0.1210060943620166,0.21116967386476104,1.0566517309259382
0.12947636489619868,0.39021937412836677,0.0447651086957832,0.13566308868522783,0.24126006554234178,-5.365014594662952E-4,0.17211650990891467,1.2125067257237367
0.07257969971684888,0.3829987433641747,-0.04061853256059453,-0.0031550700696365208,0.08628646078367033,-0.1067788008141783,0.030484235997846134,1.2898169300290345
0.14773961569269728,0.23552264949564305,0.09528187124127244,0.16683401447759125,0.3514422283436652,0.07134907163296914,0.18097385452963247,1.5608300480569235
0.20827493617179302,0.37438530041985424,0.08473247249266519,0.20790404155416845,0.27745185525662885,0.09959979985162444,0.23767910017757538,1.7325197754823873
0.21228061124441983,0.32040936493837335,0.1009375040607852,0.17905282110951454,0.22451014649538048,0.06385079184352446,0.11843407345029923,1.5558153134791342
0.14175633704677312,0.3856193170726212,0.04093482121608701,0.09637063872421002,0.18387667329217341,-0.02168206720993356,0.09664342320095849,1.4367061213578485
0.22935497465857702,0.3973225923402629,0.1437970337123894,0.27596600711825564,0.3855635243431191,0.15511785873293035,0.29495959460457477,1.347110257572512
0.30969626218638796,0.4438427931593498,0.18901366040395626,0.3697653203848102,0.47167637746200886,0.24154237112371396,0.3966739658185397,1.4059829142136784
0.28529080792420775,0.3913970479470305,0.1839233841045746,0.3475990112381203,0.39949277284931206,0.2375354132952369,0.3947726926041672,1.3095623929664004
0.19658903471901853,0.3921613402712873,0.17630528670469164,0.25547415445446336,0.29095987502045223,0.032252210116667915,0.2538688212274536,1.1878331792237127
0.24228024566979353,0.42593771835371413,0.1958737428436663,0.3263232399541215,0.38365361057571007,0.218263418301004,0.2682332009898467,1.316541230063032
0.3431098497009364,0.45336789264073324,0.29021603764705345,0.4542706573122644,0.6334366160416749,0.38455272828292686,0.5005841109353614,1.4938036915318713
0.3307084383291522,0.34204759679154256,0.3189299743917077,0.4244318877571746,0.5372728016075187,0.3964385791170003,0.4195366834869626,1.514060328513164
0.29669880755365446,0.3737968163231435,0.23899243483384827,0.44674425424791836,0.4917254989428878,0.328049210471587,0.3745905959440097,1.271487722535837
0.22486539235519248,0.3964337765770789,0.20972630202281928,0.32287830914775884,0.34145187967380186,0.12854642673606334,0.1829787731825656,1.184437610694116
0.32616250133505814,0.362515546781147,0.3160482235263792,0.4745388381361007,0.6261762567628292,0.4825768808289171,0.553894932581571,1.2970476942917755
0.3586034149699833,0.3775397439369064,0.3612279241160879,0.5377069641108156,0.6347785572799259,0.40122753845767256,0.5216764146291827,1.1134611302600177
0.35202480877141473,0.42222305304758795,0.3129765030420547,0.4579102290348421,0.4734731974825983,0.2897978932639026,0.44126625165900063,1.136791122002223
0.2792919408925979,0.39318202667664764,0.2294263819446755,0.34988067524509237,0.3670681382848324,0.18189554020925294,0.2670917519385439,1.5193234089458147
0.2230749152879994,0.4516777868006865,0.15344702807252372,0.2789956685864097,0.2598707840266381,0.0688565033829143,0.16966751327796079,1.5607162548422535
0.34208993838729573,0.35729093927549815,0.3031713031674303,0.5110378338180495,0.5350706549269922,0.39948618650424095,0.529990024317457,1.237146748760513
0.32274261622382316,0.3732246066265699,0.2871292225960431,0.4256594029324904,0.49938959654842113,0.29825990777878447,0.4521988528779537,1.6085609776888847
0.3028008714858898,0.46611449448932063,0.23579252481122054,0.42561968914314546,0.4567014756553479,0.29477483563598283,0.35122624444199113,1.3124722868572916
0.19115104874049846,0.40508609774888943,0.16151978197607647,0.3025135597501651,0.24495064690639756,0.11177828090174276,0.22614571516381504,1.4804907270996002
0.19965913910071806,0.39627056146589784,0.154702031897331,0.2783973387379409,0.31525834378266,0.14678494437234962,0.29764891057259585,1.5097855312305184
0.25363262580877066,0.5021234699948985,0.2085874842585789,0.40183371309913757,0.511594618856027,0.36173223619042866,0.3729118439415305,1.5212502041875469
0.2548530675286634,0.4411101157422999,0.24318966819117097,0.395400914405865,0.4446842741212191,0.3552640693153213,0.3867123847683262,1.172352938004486
0.20355257649683176,0.4500658309012147,0.16821847645408297,0.2792598564920448,0.3252715466562626,0.08581122186124966,0.243844638225171,1.4344067087142875
0.07196328188840213,0.44138980191796146,0.0746444805989459,0.11218765945837662,0.13401168851531392,0.008481033407733991,0.08052707853695286,1.2639975997962574
0.14366222100360312,0.525149568953715,0.09761708551419965,0.2192010210873829,0.28561041019297373,0.11852427381413391,0.15530658809155246,1.248462094504639
0.21811228835906687,0.4387326743886164,0.20746593552472908,0.3471082506753473,0.5363171060957819,0.2888637772183182,0.4088362222297765,1.3088392603994337
0.20201117762477144,0.4434835037811053,0.14518052311084598,0.28125541968235757,0.4493297863085827,0.2759556868189884,0.3101818002346984,1.1769345099194235
0.14174406298469475,0.35050044714780054,0.10204547574044814,0.18600994255028616,0.38829600978519707,0.1443077580437293,0.30411557342516043,1.3219670222969837
0.04177315018722445,0.46442385312474743,0.01482755086451471,0.05756627744708389,0.18633246768770145,-0.08206782737600211,0.07274767390237467,1.5969096626456096
0.1297696742841659,0.49599958062855,0.09938722194006386,0.2071655770606517,0.27657473987011183,0.08531939434415191,0.22925219946259487,1.166051029044626
0.16674715657049186,0.43321131357833675,0.1433485804806232,0.26681022332407417,0.4355248106637813,0.21885493208031614,0.26487681358400333,1.284554814163924
0.17267215576776326,0.5172312468694023,0.11200186963130856,0.2540836439730469,0.38034741585734927,0.18014447257589017,0.31298016722687344,1.3863989205404836
0.09111391906646636,0.5438606693073178,0.058145259071620145,0.1369165153000814,0.2514395890035912,0.03040052380946722,0.14731933831737568,1.5898932243789208
0.008209318273634678,0.4621234239871865,-0.06984385835622324,0.07108178593818965,0.14328791059432303,-0.09635804107477385,0.02171363455549058,1.2399472642140998
0.15926717610262237,0.3538118182931559,0.12100802992109892,0.2438297940158959,0.35307332692634574,0.16141513048149958,0.28925956863993196,1.0991483729536
0.14501389006454113,0.456016503992685,0.07478042083109887,0.2424033416144939,0.4032495080688237,0.1310303609279285,0.2126956752465837,1.2435449729337975
0.10404738622788404,0.5001828071022532,0.05911547919786661,0.23262338464633428,0.40095464817228044,0.18150626938742623,0.2648551944491711,1.5511447123770363
0.021970133189806073,0.4999320933567295,-0.013908511728979295,0.108818085351655,0.2093356230140959,-0.016938864610134996,0.07212977457408558,1.323808629613076
0.02397465245812568,0.4923501030552094,-0.024724489675144408,0.09098070472977318,0.13504820983488058,0.015954442977257344,0.06742570015353448,1.5406478300976076
0.18076721622648903,0.5121037653525705,0.1445739679539909,0.2674633746166632,0.4512703123605457,0.19503887220667854,0.3112268044007534,1.4031270480212072
0.17516177491649249,0.42134996410079195,0.1009527532012658,0.29922909996681674,0.37604203948421955,0.15413042673987953,0.28154477249474846,1.4943348234132459
0.12718094449576578,0.5580005494610893,0.07530409352591362,0.1875725792833119,0.2940097598534613,0.09224415642554462,0.15852879635634062,1.498189663153152
0.020137737105234716,0.49173707875925443,0.011832325198409554,0.0824303164455574,0.10113503894219085,-0.015011823992427929,0.09335857933528217,1.540471663685643
0.09041068340671018,0.44791902498958347,0.04643408270545045,0.20566891890392305,0.28301181982160334,0.11614383566554208,0.1694869576984509,1.2802515409614714
0.18164534920707986,0.4485497936663884,0.15447931971247297,0.2912430841356688,0.48030415960578526,0.257929724080665,0.3368536064764316,1.5175958045588318
0.19726969537360295,0.48197815193022386,0.13113155261633952,0.32707951907171245,0.39483034251425464,0.1605324700932243,0.2950087633398979,1.293878494798625
0.13152171707098673,0.4931604284137183,0.09629281082283069,0.22044011447352527,0.3048922711675508,0.0924044936084129,0.21621658428754947,1.137211821888169
0.0813568010508108,0.5050796757806487,0.04089988919241556,0.1405951687929726,0.1818163702638023,0.020241514346210195,0.15616442003193118,1.2588693395286747
0.21219863942853373,0.40903936545212816,0.16682691654626103,0.380370387978949,0.4940501383889943,0.3066076007195763,0.3826110589050042,1.4085294062996188
0.23473373368482717,0.4730669898023141,0.19408793285389908,0.37597748680575643,0.48587016117505427,0.325156736840905,0.35619790599431056,1.323464237485699
0.22394477270435875,0.5358691498396663,0.19926792204191623,0.3694993168179574,0.49071134213624873,0.27142653927833876,0.39925481219701486,1.0837077191696194
0.18402125285982743,0.4718313644776869,0.14763090490166209,0.25832407911596084,0.24628959441037823,0.08327168883044256,0.19579171698044184,1.4181923342657698
0.1622589280433753,0.3888112287074409,0.1279483244681683,0.22498796519023506,0.2456781256390189,0.0848478098957022,0.26286036394841433,1.374993075801544
0.28342014667518123,0.456981308956369,0.26913927194259313,0.4228221471695932,0.6183667574935254,0.34026954039629165,0.4048315046782591,1.3064335315320783
0.3055073252489779,0.4375251189010131,0.2683431867984535,0.45249945480600223,0.5315851405548969,0.36058043117412486,0.48037871699914964,1.2101390021819274
0.2754206121468412,0.4765134950478875,0.25161615048586733,0.40477032068949176,0.5113895398236143,0.31897889493259773,0.41377125232144335,1.2949592473944511
0.2009248367961961,0.44058858952516655,0.1836446622635573,0.31219797272276606,0.3266323415073097,0.1500749008827806,0.3051185689839006,1.3077819459048678
0.170431188856183,0.4755884405674942,0.12915389568920838,0.276705653880533,0.3153238468654793,0.08874478632945114,0.26086494564377,1.044450254153553
0.2800979388989948,0.512600477133315,0.29604493916058805,0.49491885470816666,0.5946471608228565,0.3954454290200761,0.43476116002010123,1.3002990571802504
0.28463315768875896,0.4021660090757612,0.2965167813995864,0.47501380222326917,0.48709921716604426,0.43192741693597386,0.4202357559151596,1.5212490134846595
0.27459913417700893,0.5552313185564678,0.28352548555823476,0.45371032637563463,0.5912795082171737,0.3073675439092997,0.5143638833203306,1.1938808134918932
0.2184281126324172,0.538218100396843,0.20471029680666855,0.29707677452296094,0.36516857601577235,0.2013578090238579,0.28009506780591104,1.1268681599293204
0.14953547222028024,0.5053105899069071,0.15183661538100526,0.27840598547748746,0.23684533923206466,0.06560392875000395,0.18912954000095628,1.3933889264705046
0.29485396463368346,0.42960490411984686,0.27588463905203175,0.4760605271942578,0.5964717016336689,0.4026361783815105,0.43508232061687974,1.2295866297957008
0.2748399562885707,0.5352463367146442,0.29363091559908083,0.4738032217710346,0.5427561534434506,0.38022794385439923,0.5069638006150956,1.0292727764448453
0.25683623160033925,0.5517314142630276,0.2665384356406349,0.4319614182780258,0.46815927527079226,0.31591715419559435,0.49088505606745314,1.5812005980779045
0.21185734761433814,0.46585581614572297,0.19031169545236923,0.3112437715297764,0.33000216371220764,0.17778712469566962,0.2621795198301825,1.6443877457362142
0.14291137920636154,0.43523531894311107,0.11066461466278249,0.24327654072719782,0.256518537433135,-0.010328660463741403,0.21925405666691714,1.5653670401185709
0.2446856880285604,0.555849893395621,0.2558126799939648,0.41414809714685163,0.5401588379529096,0.29751411106586045,0.4074091037307442,1.433853030787248
0.23889698156369987,0.49148525068046445,0.2472833562841029,0.434045481015304,0.5185014857652098,0.3257342777157792,0.4897891931155829,1.2573504038232248
0.2247632237776889,0.5057515481064958,0.22403455919681042,0.37526636415910225,0.47298449605133513,0.2833572300582601,0.38450356732509994,1.2796474119216883
0.16212909908475906,0.5246050240971111,0.18106504394623057,0.30465884403545984,0.30443775846778504,0.14357025081559785,0.24742293565527823,1.3345574331759555
0.11306260445511077,0.5720551280315651,0.14137329978562924,0.20800932333483993,0.21880443380046674,0.06475805394492307,0.1357922048104969,1.3930823887100072
0.22573342890591513,0.46334022736224795,0.2258456994045932,0.41514099397395154,0.4830645400149271,0.3342366195790136,0.437603780056595,1.336672838625513
0.21481728314303983,0.48895255653071984,0.24194432869424032,0.37857951975934767,0.5814930161338528,0.3785227475318832,0.4153155235653261,1.601089031865976
0.20082990984757776,0.5397262227074069,0.22920145874528194,0.32930002271546555,0.4955044388635591,0.24947820292385525,0.3196678268629051,1.304778415889817
0.15599885796235174,0.5439300452331531,0.1378398815726914,0.24548335877204716,0.31595093761914866,0.1513473105770564,0.27646258034725396,1.3656419883932829
0.06550614706822776,0.5413831226674681,0.09971516249538398,0.16054143134521529,0.2249203957004283,0.07132551717306765,0.17372262470582214,1.265427176600493
0.1926337658101637,0.4672701498544696,0.21102232641871096,0.37350575295929406,0.5666712086450875,0.30957085725491706,0.4585225814244518,1.4637940320259624
0.24006767792395764,0.48849543738896445,0.23651692979339348,0.39420604913700213,0.5004022619474191,0.3806251957677179,0.395870704602158,1.2565522454582758
0.21371253649530214,0.5577728659370877,0.1964102590257416,0.37457757127190655,0.4858895409013503,0.3399288886936679,0.4464322923320728,1.3953869213521066
0.15072956739865012,0.41575232610454255,0.13529211841303293,0.24395307291943885,0.37472719952962164,0.13393047194319593,0.3382951570000223,1.4152919649685243
0.08680554326036688,0.5695258617889272,0.07609169594210807,0.16996777829347237,0.2217971544017602,0.04563180469498239,0.26157326876139103,1.3475417246872923
0.18352342057921453,0.5017970160233034,0.18089549167220564,0.3115573126563802,0.5407556132298827,0.1956434825765466,0.3663180192339379,1.372357317760427
0.23220497368728388,0.5229006195238604,0.19940730827785247,0.3735757991599915,0.5557340137608446,0.30019667412956796,0.4822376134776394,1.5616151516718335
0.22060390917649017,0.49714105158130106,0.2099738466732416,0.3635165044888837,0.5486002407235443,0.3521479399770615,0.3693984685138732,1.3369037358056637
0.20621979481098035,0.5266032754164308,0.16214383058720502,0.2538072359455672,0.42086069996961156,0.22256029678469905,0.2678108419079793,1.7490027035958668
0.116164322612489,0.5052283108237807,0.07639490646809596,0.18296927198879714,0.22713262811805424,0.09110163140224561,0.1126772732093282,1.3061195409826887
0.19462649361942244,0.46997186497115195,0.2237585703601875,0.325845150294497,0.43590021785219296,0.2824638866270491,0.39295402304002924,1.451251293520685
0.3168408831964283,0.38409134748667184,0.2735196743579483,0.4383269554130933,0.6053635632492806,0.38975707718051567,0.5353148151444354,1.8683750619847244
0.29786783141636014,0.4637442315797378,0.24199530883336315,0.38763604736868773,0.5329707691719897,0.33817518673728014,0.35975856160629643,1.722505387142896
0.3055412306553042,0.44164769676173127,0.24124644369892254,0.334727766904221,0.3455517724407195,0.22263475939034746,0.26030911566868986,2.0512820321274385
0.22284888738480452,0.4417442843355649,0.15492013675738506,0.26478939904299637,0.2202033820704442,0.08869580754033454,0.1561710527485817,1.8663656505549906
0.31228127380478155,0.3873964150570275,0.2780220972617964,0.4342391475689504,0.3747086764661369,0.2259082589829848,0.30739203737798504,1.8412280585960388
0.34026693274882513,0.4410468087765088,0.32337567811860624,0.41230671904659527,0.48816165982031884,0.297180470858069,0.38515354228554355,1.9150108844159237
0.3790871821395799,0.4106415072285899,0.30217290522643075,0.4329495238648841,0.43728534504907735,0.26150490593519315,0.3923779901692657,2.074881636598157
0.335588630304809,0.3846037866146176,0.2486395716080626,0.32772578143470626,0.26954989669217083,0.15776099211767797,0.259994276086949,1.6829210772987762
0.31657035263770217,0.420681408093666,0.2462687798653084,0.3087866847789448,0.25247612767940014,0.05977476789041219,0.20948080236208977,2.0501378916766413
0.4079679801129069,0.46498969624746067,0.3397356035113034,0.48407784882253463,0.48254456260916406,0.3764671738312495,0.4256802924173812,1.8852891385560666
0.3908725478872528,0.42763891389225134,0.3827583263586913,0.4839447668586601,0.3812806120935952,0.25999140127694903,0.4164683603405923,2.034224112903652
0.42934707086577056,0.437015100651087,0.3503309726394664,0.48049183154207664,0.38755933578832386,0.2587725854235557,0.36907934948846477,1.9123606636029085
0.3578518095137808,0.5251590961173938,0.27756571038575534,0.3666048867665591,0.2896458128560105,0.08401257866217848,0.24216577687301716,1.962407199714382
0.394084385984687,0.49728067685000554,0.3046578341804841,0.4300912867865811,0.34393936410061177,0.24344785578139932,0.34311056538167833,1.9440154734654398
0.4659342717089428,0.37450670722736024,0.38742378319122567,0.5547608693781596,0.5775367925589129,0.36881695904527556,0.4741082426001083,1.7287707247903437
0.4630181572049316,0.4264269161904349,0.42607974034799306,0.5756668624403422,0.6114137142335512,0.411203254070556,0.5033116459963461,1.7854674638894998
0.4230172455331842,0.4642829479269657,0.4254352321039923,0.5113175017251645,0.45126737144533163,0.3923673521414831,0.4339305885790141,1.7057613295930512
0.3634700499203064,0.49825519339072805,0.32872758475821334,0.4599697005307089,0.3555902520874978,0.22444414875098245,0.39874499349720227,1.9903706859380428
0.4698585028083622,0.40308530205870274,0.4414499114699898,0.5918167479395195,0.574176199869929,0.4739599400910691,0.5392781569316217,1.7852689086276754
0.5094283718435803,0.46059659745109044,0.4632751166360958,0.6379865573115419,0.6547144833558317,0.46190464015744603,0.5971357191789245,1.7596014917172147
0.5062688038805606,0.4627806718146769,0.4683503941644177,0.6325463037075333,0.630087893827957,0.4707821422913746,0.6266571865984907,1.8725343668026713
0.41701167567177266,0.5165808733958759,0.40661849839328384,0.552992203713755,0.5172482552728882,0.4073240216973077,0.5097082839845727,1.9584951993093818
0.4258428111377986,0.4609155554249157,0.37380497079594555,0.4409479660027684,0.3428339468762269,0.25664610533144794,0.4598437771880004,1.8105350522712764
0.46133647941053996,0.4615368616999612,0.4375033781213351,0.6164231134021844,0.6389939875130132,0.5509579191906627,0.5265139061594614,1.9724510799867452
0.4803052571316241,0.4932091676735298,0.46950471914691755,0.6454410470017491,0.6531384852111445,0.5866515284956884,0.603534950138718,1.9429615210488935
0.46433569202023556,0.4407245491622784,0.47592858737577315,0.6087738402414657,0.6748473385383289,0.43717674945514656,0.5842137521528913,1.737391973174401
0.3907458465661861,0.4505611872532639,0.35957348998984123,0.5242337151346269,0.41060739606475954,0.3791134688428451,0.4747177567836601,2.094128805911526
0.35329224983958135,0.4697246469084167,0.336844797366828,0.4634074645730147,0.3318938465142551,0.2870765792741069,0.47655529858254186,2.0918992003448618
0.4410020192548678,0.4750194728111207,0.4306256864833179,0.6012430864687727,0.6931080819555263,0.5315542855540417,0.6145404213358002,2.05575108440569
0.38829553738619715,0.464230852175379,0.4281475749568165,0.5889645570776717,0.7186689818359641,0.5446419667857044,0.6418917775053613,2.234323205321486
0.36557110554215516,0.45513364809680673,0.3793686967768176,0.5321418804322422,0.517354950688086,0.451047871279833,0.5806174166838431,2.0341090148074343
0.29526552972294945,0.4775216229973727,0.30993610154340573,0.4272733600003386,0.4795747140433867,0.37448084899513945,0.4616422619796114,1.947003220573052
0.3386436745457458,0.5072780139322196,0.34049721209382094,0.5118210519026407,0.6005885369768846,0.451072994010413,0.5693759461672716,2.1786288586696503
0.3895591617044938,0.39027339369402003,0.37667255322761134,0.6054638569304256,0.6845191195483429,0.6061167917030379,0.6769187313610653,1.7516539076883146
0.3760138337456725,0.4254459733895182,0.3915496608351026,0.5671610107088987,0.667812121742896,0.609032094812583,0.6203979609826001,1.8268720047697489
0.31774313857460995,0.3947681937788323,0.33668895436546725,0.5128586506224085,0.5600660566260769,0.4836767163639854,0.5569704280476303,2.1055431353238574
0.2540876831166537,0.4228842181060264,0.313235427177799,0.4573630845668224,0.4715078587296464,0.36880530132887174,0.5567423753612638,1.8404384620328966
0.37424807452687975,0.4356454471049804,0.3807210667732323,0.607272313753573,0.703295586537969,0.6173983611410944,0.7071172614198464,2.076089712034267
0.3575754158335554,0.4838092517943357,0.3459462941710733,0.5692821330040259,0.7027810183588641,0.6228219196705067,0.7020338112352702,1.936468200833284
0.30535100247651603,0.5012224049227608,0.345762464334523,0.5451359711999048,0.6619988257233375,0.5563378261221184,0.6987226298315471,2.0938290681800877
0.2503872356568655,0.4756279412832011,0.28009716453367606,0.444564794372861,0.49953797267200545,0.3941774101015629,0.6175044203709702,1.823053574443287
0.25796702984789316,0.4789910063697789,0.24154047398214,0.4617156799408306,0.5239189790217942,0.4039242501260094,0.5323149086068647,1.9226258077960219
0.3394620441958187,0.5394233041329016,0.3611483228770817,0.5189157035197626,0.7730717502753321,0.6469777728327339,0.7260183475042545,2.1361323464464617
0.306441091352335,0.4972705644988742,0.3609460848293835,0.5685819828327514,0.7307754175649461,0.6406834994546841,0.754596021859125,2.0525568921957222
0.32549063055219385,0.5161587454271847,0.2939361430794326,0.5269757434581078,0.6208168697819447,0.5156795191066553,0.6011956568994437,1.8392564136557366
0.25733747060579637,0.5226395076794343,0.263323852449185,0.4113670165373266,0.4417162096136146,0.3501086931539512,0.4635754087340155,1.8308175625917102
0.35484447030205335,0.4636793445456066,0.35797558393422174,0.5381113766636123,0.6830987324013954,0.506726839078506,0.5629914966036693,2.1455406901812215
0.4195120699018895,0.5638514505575755,0.37161245598393755,0.5362171682611045,0.5231037360464055,0.4718847302768508,0.5220819123880015,2.396674619993487
0.43114757751505584,0.6850799419081143,0.3676364567807903,0.5220976327117334,0.42710083240003166,0.38276547807074546,0.4924744507547793,2.2699904624022675
0.386406370629196,0.5651265950571729,0.32775594827891474,0.42103519214267593,0.31513564334731753,0.21606718686472745,0.33095933185770626,2.2648205471241525
0.3082247917336182,0.5160546818391397,0.2646503785286612,0.4189116869360106,0.31804075502628754,0.22547398162641688,0.34636162002797627,1.8991126740438662
0.39532820423911474,0.5097245213228594,0.41982390353045396,0.6140850957110564,0.7046923639277164,0.5955830630466804,0.6437060772157771,1.5329538994223577
0.3499720572597374,0.48541208799270125,0.3776577584056923,0.6463819915888626,0.7328125336840079,0.5744197863766184,0.6552019334394684,1.5726550949421354
0.3268091644613124,0.5676164111966981,0.3400064275009566,0.5627906283083576,0.5777560788914978,0.5377016308991805,0.6084403799084963,1.5940062640897807
0.24845194902149015,0.5996879504418464,0.23890128352684653,0.4402043543284902,0.3534053836666334,0.29831337411394,0.41023002128506764,1.3422239289176867
0.24504876843219622,0.5331665783511748,0.2534078948185335,0.4620207770831392,0.42312499386476393,0.3111076449253857,0.413548196662116,1.1186765644147423
0.3577665074703423,0.5658484611400642,0.36783104083318086,0.5799450639470836,0.6389041346245508,0.5075663569616247,0.6317349844521467,1.210332060626411
0.35196055195318976,0.5891054525847671,0.362403002376235,0.6083369986085504,0.6112264927423186,0.5453709146963838,0.634141170119045,1.0146100797408975
0.28326878111109394,0.4952354189084375,0.3170573670101223,0.5731230897493897,0.5293811118305486,0.4137133346060834,0.5998543401653753,0.9609422863466455
0.17664818494282652,0.5740838612486941,0.23950177652937857,0.4621160240492168,0.3961340652318125,0.3701228422058642,0.4101412235587243,0.6408861858820637
0.23569030326478,0.660422712364103,0.27153801786382203,0.5242823644997806,0.4436086070949717,0.36179428602606417,0.4811238591824857,0.9620679447960856
0.30549904332536704,0.5920428482844867,0.3082052575969663,0.5873134124685417,0.6392751158838674,0.5071679852231419,0.6589333739432653,0.7542847185570395
0.2606383360832391,0.5542817681270084,0.32457391726801815,0.6006399668501783,0.5346138782215049,0.5768070897625677,0.6548412909130411,0.8860564458817916
0.24757552950738687,0.5557104049411996,0.2890629063172849,0.5109144303904567,0.4929083979671268,0.4419131063937269,0.4911103621704649,0.9864592971396592
0.12234437239158244,0.5386166511096403,0.228428987610391,0.4681667831475703,0.4081571502164719,0.29502081062058927,0.5047345194306062,0.7799556545098922
0.2493948545721435,0.5720938876976533,0.3350954075402979,0.6123679424576048,0.701760824426613,0.6113529581206942,0.6820669048121577,0.9108069484646004
0.2826738694450956,0.5355554519884739,0.35552359357277596,0.6595400814323374,0.7539659316442288,0.7172334260104742,0.7043061728727216,0.8571820339105473
0.30023992823936635,0.51049873136476,0.3929757455244669,0.6417079824142462,0.7307771991622308,0.5807288892597796,0.7757609226845429,0.7858358883646387
0.2105859709714509,0.5190677269628696,0.33425727972712754,0.5878895054868083,0.5477397917847387,0.5285477494625579,0.6499111685365143,0.7967822784914185
0.20605782200155937,0.5136389366495147,0.27015071457624806,0.5365461652295,0.5226831778538992,0.5031936130161413,0.5782575129635156,0.8606475322483894
0.3431561437999805,0.4858262528082293,0.42469091193620995,0.6724826517149577,0.8479062542989608,0.7297569164063168,0.7069213128763219,0.8836577702947915
0.31313160622178965,0.5524188574655167,0.41656725200155337,0.6828413352939129,0.7733516778724929,0.6326121459120253,0.7615840510517492,1.068628642176161
0.2890349597918001,0.5323403594917315,0.39509740779329594,0.6087084136411909,0.6920925173028044,0.6368551369292386,0.7473805016435803,0.8523672914086613
0.18477998677274934,0.5301335950295096,0.3139834722816884,0.5641062591457524,0.5632124446965087,0.5303710038216699,0.5457409925135378,0.8541245777462315
0.2580074648634819,0.5489375433287322,0.40454167029708815,0.6977438339136011,0.8408765426539608,0.7247410791007222,0.7780417792485536,0.8691381183990056
0.2798497244110334,0.6033270048523081,0.4251609004070008,0.7315146542388288,0.8464250054743245,0.7798947371567865,0.9170215563703253,0.6916918200697981
0.2806195336074577,0.5833218570734755,0.43206354673898845,0.725299498358411,0.7451573378482284,0.7815049611023631,0.7653924605701485,0.8075502281864898
0.2559816931435407,0.48256523300418724,0.3881663179436848,0.6012435912605172,0.6332570570165587,0.6145589719510388,0.6387565664841545,0.5887924207697076
0.20925094239280348,0.6166199796160419,0.33773629490755464,0.5698272641562299,0.6545366909752569,0.5842186500182963,0.5914056756674011,0.6438303019489588
0.3460073272900108,0.5674486246302165,0.42511370291249273,0.7253757337589455,0.9500820978418918,0.8523559475175484,0.890076294725061,0.8518008130520736
0.3399757720695255,0.48976912653855575,0.44830806371137333,0.7173180244164543,0.802695750950702,0.7383339217818035,0.8364279700393317,0.7137690702797126
0.29979666535818394,0.479549396975839,0.4238242721410785,0.6690751597665953,0.7318383492964929,0.7158632518821016,0.8243765413364189,0.9278120167601053
0.2355465250866512,0.49062895606004947,0.34218192689872406,0.5653572997810978,0.5891854623046188,0.5308658607507449,0.6430540671813989,0.9533412334646212
0.341246328005913,0.4766646690470273,0.3943638946923189,0.6603684295015253,0.7954200941178331,0.7151884782940378,0.784889965451333,0.8671647031652692
0.3574745063406446,0.4047346022615716,0.45243798757260006,0.7312600734955661,0.8838902055414125,0.8642110449080216,0.9047753596668374,1.003178870158421
0.34748823239694443,0.555753820568782,0.43268605592185283,0.7336807250354733,0.8616404419748661,0.738450491359874,0.8361090630385738,0.7313051324712435
0.32848381063252335,0.49659137240618106,0.3938982163142894,0.6292364804876037,0.7128726507841042,0.6306845863566005,0.8083253234551097,1.058417446491762
0.2546483443360927,0.4502709218286664,0.3239098565066665,0.5605985072097756,0.615412882080518,0.530622088702816,0.5643005545052304,0.8188390804084847
0.33090330890817277,0.5482224636825912,0.4586920581777029,0.6992104066045666,0.8516860879678165,0.7358561437579687,0.882617536791055,0.7271647877208284
0.34263553700139493,0.5106579271328401,0.4772124854478349,0.6364610200876201,0.8689771341972818,0.7200225986363165,0.8036769026926041,0.7796687739964527
0.35467778416256746,0.5342996128626569,0.40685477785402197,0.6681236800400658,0.8336475821933336,0.7787679223606301,0.7920633508303038,0.9086493039193282
0.2561029275961245,0.5362708784627002,0.38319652237631735,0.5797567452683754,0.6451795695500402,0.5253724236010567,0.6083939471522892,1.0571501724901993
0.22715168867784954,0.5785338273330679,0.3255855363958235,0.5410094556674121,0.6301621494810954,0.556900422324596,0.6235239822319456,0.7404336713724451
0.3372398429412806,0.6026602295049399,0.4106094990249277,0.6963741460718772,0.9375405216726613,0.8212926972729186,0.7900135065702923,0.6246502528345952
0.38835481065430855,0.5515468684461302,0.4358922060843414,0.6349389908881415,0.8076431067970766,0.7656224183940944,0.8396887769630687,0.9837012995726712
0.350787132164366,0.5853592048618745,0.3223161865377107,0.5765816870791414,0.7883621111581237,0.6248533593228034,0.7394179842075823,1.2097768361781618
0.27787352780189134,0.5065843868175844,0.24316298498008476,0.41583398129977106,0.5542255266539576,0.43864950424751636,0.5848287315418561,1.0738433096863405
0.28825117150531243,0.5224791851019428,0.2925158766368782,0.492601186518445,0.6821948986870102,0.6016466193636754,0.7292875599551492,1.1006255861522198
0.37545834494622266,0.4346112572420862,0.3388833367753926,0.5300323032064953,0.8362271645043353,0.7578283715168567,0.7827908333875674,1.0291091025287296
0.36454967519093434,0.5533043835449414,0.3408444930367878,0.534528293053954,0.7734539364282931,0.6465459420406154,0.7334109462427549,1.433381175097313
0.2810471153166844,0.5209071140415464,0.24748013985085324,0.45192821145215084,0.6556754533142561,0.57790860141356,0.6074832363671163,1.3040708641829895
0.20356235516458596,0.5339179875986038,0.13802416507089318,0.31628724722937623,0.4737388528978857,0.3677266649779122,0.47834612244282004,1.5907522392697062
0.2980157535588617,0.5202935904897759,0.2652023380292669,0.46777595359357854,0.726963568052552,0.5743135794997457,0.6017587710275759,1.4455030866833116
0.3591602584234043,0.5315975836063008,0.3097277663966214,0.4704424183201575,0.7538770084841944,0.6153562983805848,0.688969581112056,1.4162165231219541
0.3104589452002657,0.5284818102426191,0.2648530509080424,0.440777716635934,0.5853368398414062,0.47031517764912784,0.5885769180147735,1.653805478847294
0.21869422287447826,0.5526496390526848,0.1474909642410925,0.2911395051150838,0.4297979216020165,0.37473722750688937,0.4879855133235874,1.6005536232977498
0.14377088789293266,0.5314490164759813,0.03394565285136461,0.13847957922003573,0.28103802405841305,0.1925097336973482,0.36990930828018753,1.19494735163229
0.25102880028747115,0.5468450001443907,0.1803907005098395,0.3370018144280851,0.6104078273021875,0.4071711866147573,0.5269637949207215,1.5903277504856448
0.27959676491136226,0.6205523406533762,0.23478409873604061,0.36640606598856984,0.640256427378893,0.5211182777889691,0.637732608286419,1.628736165807804
0.27946444379284646,0.5838445846169981,0.16529154362745885,0.3387900274471778,0.5692488464465807,0.4599141712940574,0.49962124044757933,1.6622411191967401
0.187998770653293,0.5711860673184035,0.0951574477080024,0.23194386982237525,0.41854779965333055,0.3053431144479784,0.39345003619160285,1.8958018065039581
0.08031764596750365,0.5935750436511579,0.003025109720546661,0.095569097253229,0.24760791639224006,0.12377336999491799,0.23716889489328008,1.6578121139111117
0.14433067148997258,0.6219605115157445,0.07764237597251088,0.18847777050316522,0.3813329478990333,0.32160548554400614,0.3891086450031826,1.4042706965603728
0.1898029714024617,0.5058447998442628,0.12966051723441402,0.3134058369966252,0.5301238747081274,0.3513054272148245,0.5110296191682371,1.2499382325783341
0.17351589406645682,0.584520510535965,0.10473751348913346,0.28549951360445197,0.4639251589435215,0.3889166952469282,0.4215184210455028,1.5944613767498663
0.05451212570102666,0.7204162047319167,0.021542598682044126,0.19292234398863292,0.30311826807249953,0.23689731205327097,0.3031780217756295,1.5618115720786783
-0.08263822114596683,0.6509357599769705,-0.050063442164474004,0.09262766873009161,0.13574564725534735,0.06138074347095037,0.19121100090399068,1.2900831682276344
0.0684977665323176,0.5285418495357331,-0.004179080166014149,0.13029706393977683,0.3481632005729044,0.20713123375670223,0.281954759975009,1.4360661672120867
0.15420020259307937,0.5460646244546046,0.07027329269200726,0.20641260453367377,0.5296198648367866,0.2787527370677536,0.40144206328176396,1.5755653271536578
0.13076649573835283,0.629260295871646,0.04167319682645134,0.18526897269225065,0.420555717078738,0.24528353410278944,0.39526768334183965,1.3596750423730273
0.06838432210974414,0.6020004403507725,-0.020367748447622274,0.06321360930807128,0.30662754935485675,0.08388770589473729,0.2183155056916807,1.4384198252063813
-0.04768868341617587,0.5595746155584053,-0.10863984827974174,-0.05261487024271815,0.06010175300066928,0.014550143052870092,0.1482903882640142,1.66203225975171
0.04877071826800616,0.535906871462025,-0.0032441220833749384,0.09606554412626478,0.34619944240557365,0.10800304969050888,0.1849271762655126,1.4268849672843675
0.12560653329672017,0.5775008190076584,0.012407932736274982,0.13768577314512706,0.40139414149561087,0.25037098010259967,0.2278861464013876,1.6758521090360696
0.12137052006542151,0.5114066089048792,0.0096666665623608,0.12834066018949028,0.3484803600704645,0.2052687673437547,0.3120251134493902,1.4708862630325852
0.015052098196785895,0.5699787609013582,-0.02754680898926576,0.06474035360144795,0.23210120189058236,0.00859094712684701,0.16515989756673544,1.5177548295485408
-0.05964656015995822,0.5637608325210122,-0.10284726125348542,-0.05750516795787065,0.01113204482314707,-0.0753607904579927,0.08096919074739738,1.6729295896701997
0.12874377353780628,0.5051035497671481,-0.0071913152505728795,0.1443484229418936,0.34887847111789405,0.1273399848720875,0.2628704864568696,1.4863963766429023
0.10335211440088486,0.5240410427636045,0.010671621677636552,0.1566483879324126,0.30760338699374484,0.18612570063855383,0.3072194523746678,1.2451757403399388
0.070964028829745,0.6003197707861673,0.02208826525645496,0.10940818351140555,0.3560417799256142,0.1489647623950841,0.22586462003312024,1.3061157213285737
-0.033526407727035364,0.6279649706442376,-0.08740987921310776,-0.05089713815602157,0.18172079211963427,0.007374701814510532,0.09407523435345758,1.528476842285016
-0.11013601318916577,0.5622986825181091,-0.14253942100002773,-0.10367699338358762,0.04164983903498647,-0.11148454917315503,0.02858174106258196,1.0834352340023221
0.09534111249107868,0.5597793563241942,0.006470946364818417,0.13327790172463871,0.3810639257600583,0.1701967960036203,0.24425755505735172,1.1471467969243547
0.0670296674763026,0.5924135180193156,1.851290971871872E-4,0.057262150457406444,0.3609361144305578,0.12283711273549516,0.19681762899240512,1.2922070469433813
0.06194369657247165,0.5854497426262147,-0.023809066472791254,0.04580354535725771,0.20579726149091984,0.04075779179450441,0.20472216492069453,1.4641079338943939
-0.07912959826879226,0.5032778508742141,-0.13196140542987211,-0.09552618055251191,0.021954965185389152,-0.09015906158628433,-0.02682818311927466,1.2898140811083283
-0.055847116902237634,0.5385311335260614,-0.1124039308825718,-0.0684099238736403,0.09365453439259734,-0.06707225961325537,0.07197473389456875,1.384581582335596
0.09950642439004606,0.6491810522178754,-0.031832231197075116,0.09337959615491516,0.31288295087372864,0.06608368510293844,0.13496181785453526,1.405312490617255
0.037898273881913386,0.5849655930700075,-0.041333209544277355,0.05712917451082567,0.27511190480362496,0.019835483703710802,0.16101922468765129,1.3952435616536554
-0.006699925667247516,0.5938669526953779,-0.08617748014754749,-0.014371967308171963,0.17020430997734337,-0.011336538008895967,0.0508351774409369,1.4280627529633372
-0.13397712221211489,0.6155829708637177,-0.2217008739794253,-0.16791510998885475,-0.03872297133592817,-0.18232415471529698,-0.08582403238673231,1.4731700178264577
0.04243017225491188,0.4789265610114172,-0.10524923896178331,0.027930352789845254,0.18476536262032414,-0.02726051072467094,0.12632179791267648,1.2416875936376115
0.06502937948648882,0.36924285059489553,-0.024025940382006138,0.09475211230219324,0.2749268582720467,0.060437518286463106,0.16223916241624559,1.1350424575319595
0.042455394884643866,0.46191116565829204,-0.0756426606505702,0.06403654674928572,0.25185893732667985,-0.004346272697852238,0.13410383933100545,1.2661307991948076
-0.024396844765000272,0.5594880272606917,-0.1602685590158176,-0.044191689374442074,0.12941105017259566,-0.05417205532553625,0.01474123533600391,1.2257397947905146
-0.16164885970535173,0.509899346356987,-0.18969974161673064,-0.16318187763486328,0.004151510663407889,-0.22719162152435174,-0.04276210413564408,0.9340721255874429
0.08011815345289224,0.403911039514014,-0.07719019944721796,0.06987515761160125,0.28811780278008514,0.07878883477885713,0.2168735818529932,1.0601730599213277
0.08547826995782638,0.4278045047029975,-0.040907517778866156,0.0829215427859731,0.36679450128412794,0.12190091170817914,0.1892153958068208,0.9884925059762915
0.08129774104442565,0.4786218078728423,-0.07225261750912343,0.02841480045675114,0.2845561044209795,0.0803215213249324,0.1731329227441791,1.0029898484458524
-0.0050989883415724045,0.5502729350002852,-0.14625364140166566,-0.06675219057883194,0.07182375154350726,-0.080095114864562,0.08726466050992883,1.1038537165432136
-0.11567033982743233,0.45907609493925067,-0.22650809404544872,-0.18407494926869758,0.023410065308515655,-0.252033654532611,-0.07278232224147835,1.1915638219253992
0.06855335439542663,0.469929518705239,-0.10153131231991863,0.043113128205567126,0.2654302899412625,-0.023435029160660863,0.11372582411638328,0.9648747035826062
0.07234357671145564,0.5355686419639456,-0.03715571348033369,0.08457840835075757,0.2547611972383699,0.11900986669680799,0.1662613689325581,1.1227161467275808
0.07998570446579438,0.46822546090610184,-0.06740516525591654,0.06341865758907604,0.32178729527849,0.06328924040489221,0.15965924734161321,0.9335890402712216
0.015265683866450974,0.48819563780776015,-0.09565860051972593,-0.04739175911501811,0.08869876432455878,-0.06334997298859131,-0.004355149180732363,1.1656422735352507
-0.06721247214814773,0.4895461871650446,-0.2124371810384395,-0.18355762885700433,0.03530853978677833,-0.1587008455904578,-0.06673853328090175,1.189185179119041
0.005365659122933509,0.4681464896559442,-0.09615298819291479,0.002805412649298581,0.22180654578472914,0.016279055684379873,0.05172259507469712,1.103402387554126
0.08672209218507486,0.4390822292757028,-0.06500256984788423,0.04749723957942112,0.28528404206957725,0.06439183959673861,0.17680453876605137,1.3988515639421546
0.07242904029271961,0.3733242571238054,-0.06062277466518707,0.07813520008745692,0.22828106701236497,0.016893607089306997,0.18887589856769335,1.2347991125493194
-0.01112200906818609,0.5156533511044541,-0.12813412961921478,-0.02616113216133645,0.137235920570604,-0.1401639396515983,0.08981725569750025,1.294216210413692
-0.07860351367634523,0.47831348263825374,-0.16701512141117184,-0.18381276757383264,-0.05089508672113808,-0.22865182155846486,-0.005683103344780751,1.1963537609088273
-0.03761501677914805,0.4449036466235349,-0.16881262965037036,-0.06463877778119652,0.043240593957653506,-0.09314736511198121,-0.025592455754476582,1.1225349312592743
0.09647701808959941,0.4281432576064939,-0.038012042561124906,0.06765859020525773,0.31142946126774984,0.08261348321831573,0.12243847727369579,1.2388962984114786
0.082163834555122,0.4464077389790944,-0.05476276617193156,0.09141575034687119,0.24742635476246952,0.05814695785009987,0.2036850381765353,1.1318571303599527
0.06659255000830125,0.4511214991407862,-0.10103166544605782,-0.0035665020094694396,0.17486536795684482,-0.027611720677451,0.14600832496071844,0.86298213222792
-0.05033401581286079,0.3983634113083975,-0.19560685227882946,-0.13298229203676842,0.003933445305326532,-0.1640673027935685,0.0018969038303662522,1.3921206101775887
-0.09057219467308789,0.43458790182654966,-0.23440604749313063,-0.2161324553054132,-0.025290067570959775,-0.2750876225252361,-0.13802941045983133,1.2856488347882988
0.05595320233898071,0.468744833376525,-0.059376879921194274,0.05554650295027479,0.2483590228020395,-0.010487270693234723,0.11857196157614673,1.5513447437612669
0.10830313398092822,0.4224637690976659,-0.06898539453703623,0.022464072853299332,0.2934410623259766,0.011361532862875487,0.10985832680840578,1.567177603765664
0.059320761365636986,0.4388007521487983,-0.09141011329665574,0.025889571256046514,0.22121116442724945,-0.01817517422009412,0.13911892246770685,1.1588622344466641
-0.02386438751414389,0.4923361916407192,-0.15914815073869232,-0.11883133905334704,0.11487662917619063,-0.17316943197661433,0.06755605518608247,1.2015461944576304
-0.08941305196719167,0.5054642999369082,-0.24646019453844853,-0.18489236439929863,-0.05095595249514026,-0.21032355623842386,-0.11668362851906999,1.085836071990794
5.177508144785359E-4,0.424488686835433,-0.14663749701015127,-0.07669882109839979,0.20636267837348637,-0.053802559093244245,0.08573622245063077,1.256317685873391
0.06788216220518661,0.41497487026668084,-0.07338555225624645,0.001342213193445047,0.2822838676176524,-0.0058855103105915334,0.12187195689798483,1.1564785421046258
0.08291764262795227,0.49903779830225475,-0.10226201018101622,0.0054289487394235236,0.35992676979412985,-0.019952091562254682,0.07612586243386638,1.4136034087339802
0.03735702037583045,0.42026668187777927,-0.14305920822018373,-0.0457977686506799,0.1603083781101016,-0.11327962566523947,0.027877433073681006,1.156307939767397
-0.09385165731006222,0.4398367101372532,-0.2266975163707301,-0.21009803470572952,-0.005632794017638548,-0.2013199877163809,-0.15020443990547724,1.2469825460325537
-0.0705934506757204,0.4825226549937616,-0.21588337845107866,-0.1837174942763557,0.038555415193204226,-0.24863468247056017,-0.06883801149297328,1.0730441294569373
0.09513649611406222,0.4472632056578227,-0.04443498586635072,0.05739342637945121,0.39068558916697493,0.09680448447890731,0.2267143096106781,1.3937526050481284
0.139571125259488,0.40694830023619766,-0.055521743468388736,0.021039347042798636,0.30591970077532044,0.07253433718909937,0.12388946883232625,1.3820824774561664
0.10009522906749822,0.42197756732151176,-0.0762317564247778,0.007227822210063677,0.2413263289552991,-0.020649684293474514,0.12558598279518038,1.0420221348840497
0.027366502664107638,0.479504858549082,-0.132386218865828,-0.07252785973099435,0.05305205636613764,-0.09933796518148384,0.02971914578497101,1.2329524949696622
-0.08006341510214503,0.46229510516784217,-0.23058524938217587,-0.15452412222329984,-0.01709906327311777,-0.14396062036061735,-0.11323504071253913,1.4785010695560796
0.10915182571412203,0.3993585881823363,-0.0863709211388612,0.028847113727487973,0.2695826485595045,0.03546823735896471,0.214025463224255,1.2638260423782808
0.13027691606887173,0.3947459664698347,0.006135499614766054,0.05682176539847824,0.31652389506171486,0.053146012999305124,0.13706849696807283,1.1405329112155758
0.11574798853009008,0.44760942282957894,-0.015056753003977075,0.10212935761891194,0.3382720651294819,0.02871841985649262,0.22207850615986013,1.2766357359179656
0.0677197546377713,0.40106674552283617,-0.07709459930991511,0.008921719567278117,0.16143697244271052,-0.015073141360229662,0.013257656057961757,1.0137793999729499
-8.139570806683568E-4,0.442566926959047,-0.1550194319474924,-0.11254552577900719,0.05917235225116505,-0.21207884118721593,-0.04405270665170772,1.2796812112629885
0.047078239525818716,0.39059401658993714,-0.11848215431010013,-0.015660764927373814,0.1723784444597842,-0.12016212245490149,0.02913083325870277,1.4337825304962684
0.165674768476719,0.43577029927403116,-0.002308916095080525,0.09594539297745193,0.3502601163371653,0.10351401176128905,0.1366108965650899,1.2913861341920811
0.15007707327064,0.3528011502927094,0.023320394483422262,0.12320147350301092,0.3149998440646067,0.09349278072136688,0.20966334312265153,1.1543708324567152
0.11605479169371838,0.5121275900150217,-0.04026839653004895,0.06614178382847384,0.33076535547701047,0.038384147185245625,0.11648378261944384,1.1359467377311505
0.04908759405045367,0.4091334447319612,-0.12159542087778659,-0.08395369059175577,0.10543148600170271,-0.12854922379300232,0.00806689743389121,1.3456632801634862
-9.745552438516361E-4,0.4486520649572816,-0.18854006500221113,-0.1478293701753057,-0.0028872220882802664,-0.22313235592015407,-0.09685018380028285,1.2061581209060355
0.13222770939004128,0.4279580621040901,-0.020387822703941606,0.11167267081343635,0.3605542540702286,0.08201094367972571,0.19827299011211016,1.0207397486157823
0.18702135722328164,0.3929419225180249,0.044221972609178484,0.14795219257627448,0.3661981080936797,0.09511444743403115,0.2518686489981615,1.038701099302161
0.16173306154322853,0.4375712779809325,-0.015401961328131722,0.12431103244479726,0.3437193385915526,0.11207597661324983,0.14824691264357825,1.361693065794404
0.12765264000448517,0.4308372669183293,-0.03331364938433481,0.0487914188932998,0.2196028650576832,-0.04472147340483131,0.08186844651150853,1.1936825806885982
0.023289569266344227,0.4246349828406033,-0.0911909282817737,-0.04972480287309732,0.16162424350909968,-0.15001007549547773,-0.08066419225824756,1.068909474219947
-0.021345836798771816,0.45047957804733196,-0.17925839947767155,-0.11475650222144995,0.06826251974517972,-0.21508951280939992,-0.1088380279836828,1.071119265240493
0.15853760448317916,0.44769106763232763,0.016242879592197248,0.10727000255435253,0.32124477566998416,0.0844308162200994,0.21794203755455913,1.2188389677017253
0.18423502696845528,0.4382077324298704,0.025567745165790908,0.14895590820401244,0.3527450084519601,0.08354389824284801,0.0697727243435511,1.4927829760853675
0.19342905912654507,0.38359364090392856,0.02608652173853335,0.12761460109078224,0.4136464654516183,0.10951628697741515,0.13634465041094795,1.2311901288077756
0.09566068295698074,0.42456997713728545,-0.02677213793811992,-0.019329472744019503,0.18738235304003678,-0.13632559466820562,0.11062330595949987,1.3287071660219243
0.022451711226374065,0.4662795316506637,-0.13388772853166647,-0.08347461243998891,0.06517272025742149,-0.1864674296138707,-0.08290225560318647,0.9704541887505412
0.01249311327539879,0.4166114054556276,-0.15773445309493953,-0.09083584490724256,-0.0036932793471952945,-0.22013641847854304,-0.11732321182382857,0.9787908946708461
0.16569562730049228,0.4497295314384376,0.04677241389868375,0.10467460316129067,0.2966592182145538,0.12212414436172564,0.21369314715868407,1.3157573993096436
0.19281284801286544,0.39757817485612373,-0.034399802290416504,0.09258402129849888,0.31413481391437326,0.03156729727466959,0.20218719321468098,1.2432620280626951
0.161826739011278,0.3790366836078102,-0.0015758414744084497,0.09784060253456278,0.3088558849985694,-0.03227083603264859,0.04189354221921456,1.3049236992529618
0.07982160069392631,0.44147193602103585,-0.12731169253854266,-0.058718929910407155,0.1485823424642264,-0.11669816778312647,-0.002231986941898559,1.183248981860258
-0.0030607190677835,0.42765244448297435,-0.19759858470353972,-0.17257493675271177,-0.04181865462498451,-0.2709256577246202,-0.15138421010323042,1.061240958378363
-0.051615242289779206,0.34440222860650677,-0.20024365060787658,-0.22333748841240858,-0.08985279054463867,-0.3621470347444812,-0.22712272221646118,1.542763409977754
0.14348177898807307,0.4017901976951825,-0.04594392526154543,0.0385586269622756,0.3271630578924275,-0.0352762345297017,0.06932112353690717,1.306752454484444
0.1533300326495155,0.42975127744608194,-0.020485972915536554,0.08744204218667331,0.3521263264316843,-0.018846135946731048,0.09730925889728866,0.714359304913621
0.13548841254538307,0.41153329348465123,-0.032478749933016866,0.0816563003459992,0.2520843380037732,0.016395868778761265,0.08945149162854234,0.9625319386807542
0.06529984209656312,0.44084405973056634,-0.0882954574957711,-0.08752305700999483,0.1024376186104867,-0.14697928926767775,-0.01788755220308736,1.0675181616488756
-0.014107697479813726,0.4482818159972002,-0.1689791059703465,-0.14713997893706038,-0.012247312272290692,-0.3017517901657889,-0.17058969534554821,1.2200021104810885
-0.08222688853651273,0.5132689979118159,-0.22837935825840847,-0.18788259679909336,-0.06168620306730376,-0.3501022995654166,-0.2492480388834487,1.0396990056471664
0.13031269339781482,0.4291186171294977,-0.06508590498419353,0.011628801164156913,0.18214801100756098,-0.10317118557856007,-0.027458666034295302,1.2902688422134192
0.14364994404919398,0.486298760176027,-0.06273457868623841,0.06030719363325744,0.3115268423036702,-0.0095601621179224,0.02044755050170817,1.0932051872953656
0.10544257650590763,0.45277649109449575,-0.06228021726091391,0.021902608580311622,0.25668131118971305,-0.019883865692854313,0.0013993155395328808,1.310122774088739
0.06071171876142518,0.43711258633648276,-0.1095886614897622,-0.059001497121144386,0.09099913342567718,-0.2303990079146543,-0.103417049207038,0.9448580850196268
-0.039745147401991615,0.4306883397290608,-0.19907557088540928,-0.18032373921661143,-0.0577824832347807,-0.29285320920576025,-0.1563248750546805,1.258794571168177
-0.0014539778033343619,0.3982543392155831,-0.1759022776087543,-0.13475574642505683,0.0057678414038577165,-0.30796799068957814,-0.1534363114988128,1.0504074838885236
0.1419747249687965,0.34728879899837656,-0.020875008060453882,0.05445228240324959,0.2628075244222912,-0.03587318526467833,0.08881414666550551,1.215991200070842
0.1503267298381189,0.37663290874487476,-0.020419101642516663,0.0645580689905137,0.2666080958738276,0.03512144309904556,0.0980716869827841,1.0817727385198632
0.10422043596549757,0.3861345694120589,-0.05240942732719153,0.020383521321395755,0.21254473060180992,-0.09013609690511264,0.07516585249159387,1.2691895465473768
0.0508023763024071,0.4200447233860538,-0.12383347721181237,-0.06826238870856978,0.051703166944903414,-0.25457707097996546,-0.12600618509696432,0.9549274921776835
-0.05037203725284751,0.4873324590802242,-0.21922968082057176,-0.20405871320799654,-0.09122738091432372,-0.2857140492961188,-0.1554397449915581,1.1438055006014196
0.07503143297404928,0.43821219099345043,-0.07500281185156579,-0.0572509042263641,0.18777244445069582,-0.13487789512245868,-0.03953791031646685,1.4024195124549854
0.18355506125186655,0.3816737304842432,0.0015762124776031487,0.13754713793171794,0.4240460345594749,-0.015816648010006654,0.13708293869738522,1.1667172560915289
0.17153998813923643,0.37017334160716364,0.022339782633712883,0.08905519602453345,0.29709447350317314,0.012562629000646778,0.14552453567387114,1.217169646313107
0.16683827437712617,0.4872270414443289,-0.021549605385903028,0.02045424128663501,0.2011374697101813,-0.04078012214151243,0.0651493437647559,1.2609885756529133
0.09915764244345801,0.4522147168362827,-0.08997221082854509,-0.044820426301553744,0.11455632621687495,-0.1757292949990673,-0.028256640194138746,1.2523988986870807
0.043610985567841765,0.4096927187661631,-0.15841153285902757,-0.13481285022433429,-0.013425878026140613,-0.30818592970757597,-0.1680708550400622,1.3886887025437653
0.1583884897377643,0.4278873194257208,-0.02049271359065749,0.050089713476232374,0.27663463660985615,-0.032308982507408615,0.040742992696457606,1.0313487414271252
0.20379839715823325,0.44781548050237197,0.010896920910768942,0.1322017269970814,0.2694002343784062,0.08941122890126131,0.18570923970413378,1.3094560552573526
0.21257096826478697,0.4246714023772859,0.016940271992298986,0.10936824015089948,0.3308602170623567,0.032854564703745356,0.20017188119928433,1.1941915728516863
0.1476826404673031,0.4158488894399778,0.01888328909181498,0.06896933043312616,0.20660428744854373,-0.07153031639578492,0.08219948330555446,1.0525747832591275
0.09651920589748546,0.427306518515677,-0.0843752351350819,-0.006586173071829886,0.11406761491226335,-0.20971965975906984,-0.0305479116103372,1.3408400537177767
0.026318031064733266,0.4093330844634071,-0.1443082370173314,-0.12255604914637018,-0.03264458383607691,-0.26717732144050604,-0.09538879892295561,1.6894647847003808
0.16774522499256994,0.35383102480457135,-0.01443521917376569,0.10208912829577237,0.2910943355212178,-0.03909240474477924,0.08273402796401276,1.1028279980953544
0.23869127129929443,0.4276724985048889,0.057149908744344176,0.1855204709804369,0.4294676488381534,0.09037439211979349,0.22217862327572027,1.2314748435662801
0.2531816656967666,0.40485106087926537,0.06614994679823726,0.18440195083292923,0.3611950568703421,0.08851557836745061,0.16586278834311882,1.296855527804564
0.16932074305509962,0.35743915794821945,0.029126181402023676,0.12080435384984839,0.2521036898265522,-0.06625128922005882,0.10674053272934365,1.1894703802757562
0.14544719089798927,0.34219644805987104,-0.04209366430344314,0.007568936639667094,0.10193375220142144,-0.18038832203190966,-0.008507423438233994,1.2185238233619338
0.06072716930472005,0.4078853059029076,-0.1393184542815137,-0.14048801659977248,0.01594079630755123,-0.16487620048246981,-0.164039264581968,1.1911603556023016
0.06178974947072671,0.42532347105071,-0.11032215935621209,-0.07017573368874756,0.012903462282085096,-0.21936329626413253,-0.08117048988480881,1.5072987812616965
0.22533108551710027,0.39572907388609474,0.08116519672660183,0.1789376414818603,0.40389801153914184,0.003945018783045447,0.2110530764795928,1.1543055781667901
0.23789966405018123,0.3655661969809734,0.07034210682232225,0.17016907941080603,0.35229623089625073,0.03611160483077069,0.11903621168841227,1.0586211419487355
0.2360327021033212,0.4682263618898644,0.07026494346617651,0.1375433234271796,0.3342727717691092,-0.0026135728693993587,0.10164722052774575,1.2908328431997875
0.15949966289333617,0.41683154438314945,0.0113196857481023,0.06683363400778336,0.15872135451459538,-0.13268705169692055,0.09131328420103006,1.356911588817087
0.07288845142391488,0.40311817116104265,-0.08428214637921969,-0.04362001726722869,0.052405988128174874,-0.21589365741578673,-0.1083241833001806,1.173969204567038
0.01370722221703668,0.4458369117885403,-0.14461253003243021,-0.15658922736630806,-0.043766660351442686,-0.2738066022914124,-0.22625093147160497,1.2459294836143533
0.16000369115967772,0.3823795598413126,-1.8365949023446892E-5,0.061724286099642395,0.23656120237564154,-0.12514102776999692,0.02940516202288217,1.0465673344161623
0.18582861528613495,0.3831874779503699,0.06025046879312997,0.11627788864058718,0.32365820483103086,0.042986319366742146,0.12408596845711713,1.0133528216254717
0.20412157072333367,0.4176562012511243,0.05899718087154291,0.11918435652469798,0.3276390657501515,0.016687453868935158,0.1532783261169938,1.1671743993801416
0.14574033324992883,0.4612807235432759,0.011037084872885423,0.09393008837689361,0.17978044623773204,-0.03200073106066184,0.1003760635640186,1.2776393332658729
0.08514193073361145,0.42591723887249516,-0.07480429500559711,-0.04369125044412622,0.08340368001125911,-0.1596871666400254,-0.03035309925811364,1.4441279093047972
-0.007375282444739866,0.35178799041594117,-0.1436200875018948,-0.14197070525692923,-0.03512351629481308,-0.3121000009568841,-0.10983971500996456,1.3321066423156172
0.012180477004984189,0.43479678211556405,-0.14048047537690805,-0.13966734845383055,-0.025610244830745876,-0.27607545869065525,-0.1079810685918485,0.9398350819884131
0.16977647733360482,0.3773613150157388,0.02766075105351636,0.11049430095485005,0.284237666004626,-0.030252646124817817,0.1427089636155533,1.342793710699148
0.20213781963437677,0.45484403654678984,0.028916530885521315,0.1304290966253108,0.3132448123640659,0.02954447447357734,0.05545665527654394,1.0007096542885412
0.16923959559358204,0.38028866715043746,0.02312263977327737,0.11276774161383786,0.2944224904907043,-0.04843814306837911,0.10009737714514454,1.1601895615292368
0.11350715823962436,0.39698391946195816,-0.04309677978192414,0.006844424932819314,0.13386292887159917,-0.12525057257582628,-0.023417065318681637,1.001842935821031
0.03529434879051408,0.45730370915485163,-0.130574124048056,-0.10161943433020933,-0.015042422363960981,-0.2757782356380755,-0.08422872993713204,1.1898247312177663
-0.0532003989765593,0.3799224540260803,-0.18331383259704467,-0.2177366153737916,-0.09602938732793077,-0.3387931884787479,-0.19959515712731346,1.4796585753032014
0.10206243800421927,0.39310858145393063,-0.030673244489832486,0.02741031884347952,0.1831570797440697,-0.12887436757663848,0.010348910692598521,1.1678546209265313
0.1660453913033027,0.40272792102891275,0.024772210543591678,0.060859794128184715,0.23382921451725125,-0.021273439103716825,0.07406627537586147,0.9657061984102104
0.1830412102717715,0.52865819667429,0.02465586522677537,0.10416833674002311,0.2781971824899739,-0.0654997758752132,0.09771046797712063,1.2307027620095128
0.1170941961811777,0.3519034395489328,-0.02608357527711532,0.008834791039903221,0.13484586191066383,-0.1462544482079175,-0.020162903874204816,0.936185927175145
0.03492402724639779,0.37618281793029223,-0.08122039037898073,-0.098369592294301,-0.014414317253037975,-0.2782833572609765,-0.10924024636826435,1.07098402913005
-0.04991550368506306,0.4298613672042921,-0.18509620545803318,-0.2176973505654533,-0.09814384442539315,-0.34844599425610595,-0.24887691263591796,1.118303321656752
0.029650054066198427,0.44499245705686546,-0.12390013319863596,-0.03397357830009196,-0.0022587942390430394,-0.26195015551830275,-0.09974779234706159,1.0498493710553412
0.15519307445054045,0.34500589806774945,0.020831746400484533,0.12450521832270627,0.2658085785021547,0.07000227698323486,0.07825759433125665,1.1065812853596975
0.1782956591959985,0.3855063742972333,0.029587539669940564,0.09193448480957296,0.3309778274875168,0.013438915609787104,0.13067655350486193,1.3951327530802808
0.14943613707651715,0.45113574760208963,-0.005032416331361417,0.06980668891905141,0.23884151962314715,-0.05707954567161342,0.015526681678504425,1.2078201587300563
0.09133763693634868,0.4360898950725191,-0.052601504013042276,-0.0387316706867191,0.03369278110180569,-0.19524663144724197,-0.09761140974578013,0.9958158365420404
0.021973546849370827,0.4334945883471033,-0.14567729297017543,-0.12616097803239804,-0.07899713651979988,-0.32141927717682556,-0.1511486704213104,1.0762900661302752
-0.022321364839019794,0.4493329068583671,-0.18039586621178377,-0.14339031162127736,-0.04990601948138733,-0.31125774966597564,-0.16075568424389536,1.1399139473583018
0.1602686750378544,0.3643712634871436,0.00555061336321111,0.07739752661986549,0.2479060097398443,-0.018990619411670316,0.0721794571184689,1.157926967110328
0.2151189097490756,0.3885957626503468,0.03694107275226074,0.13266073814844698,0.2997960964857541,0.023330007135228596,0.10067376868753204,1.1221538114930745
0.19505473049349875,0.4497084468026803,0.03081639658990555,0.13873987434563095,0.2870282360411693,-0.040408284432110905,0.04878440645661965,1.025199476782979
0.1255408364597163,0.4426775402476848,-0.039507587718706286,0.02697995636680769,0.15316792820860456,-0.15175766340743782,0.04510283077708303,1.1634229546974404
0.047386856426326125,0.37603157406090865,-0.12800730944133634,-0.0813337348719967,-0.013944308941472555,-0.21904873298868072,-0.10346665135957989,0.8289807936379521
0.03168990620775713,0.4739371795706417,-0.10835130450121232,-0.04418053703654691,0.012999003553960628,-0.21806016570843628,-0.11959185298960011,1.2236257032146762
0.19561718144153528,0.4349526658993228,0.03920106954892049,0.1478946172406196,0.3692380166250374,0.060436657894325375,0.13001554776439642,1.3912591666490979
0.18875691198278827,0.4297462334045262,0.028776348628314255,0.16442662202067013,0.32879389243568485,0.020205650989028528,0.10840990454723876,1.1436393723557046
0.20668332991405466,0.45078531841501646,0.07209215398504686,0.1487412115394912,0.31645931601039684,-0.020137504326129995,0.22453618682833706,0.9050328353140523
0.12986111029962605,0.4375893677478344,-0.004332285065721646,0.06240033842507085,0.11846003070258779,-0.08764109369400865,0.012908281070695008,1.0554046130731005
0.057380179234941826,0.3556177896077925,-0.08701067838557268,-0.03278352171748993,0.07562796074289821,-0.238580402178958,-0.09446176607300996,1.170808341742085
-0.013713048513257957,0.5123266425516685,-0.13640847567436776,-0.13750685219883022,-0.09742154786307254,-0.28524772163202106,-0.12373370761854421,0.9871180822273019
0.17838630966208957,0.3361515275636267,0.025893102630439348,0.10983393336588723,0.2743385994015707,0.02636385310389861,0.1354971303059747,1.3006661418158938
0.20901004743981955,0.37837954094039644,0.08719429150202448,0.16062790175782088,0.3538777667581145,0.09106754255284337,0.22685325599787232,1.00255076096568
0.23961446629487426,0.4875916391249303,0.08850218938595407,0.2207865167443087,0.3394284816720089,0.0709979372627317,0.23451795778963885,0.8470570141915107
0.17437965683573298,0.40706088690421516,0.03891791362874771,0.14994606301270846,0.2683901017661931,-0.057041838834482744,0.07767446000543744,1.428523382519913
0.11316050686851531,0.41274880066006875,-0.019184403320224738,0.02572262318897002,0.0871943256740574,-0.12388436063606154,-0.05615174678121497,1.3028008794332915
0.049761734034400394,0.5001227561914872,-0.07969282594028078,-0.07610294314380579,0.021518596119986574,-0.23007867995880138,-0.10547404215350226,1.3899964879195357
0.009881678344055983,0.6375444807211461,-0.12454707479862265,-0.06604203900079689,-0.06047060663010897,-0.23130283158832524,-0.12998342729186219,1.7077738261343605
0.24367876554993598,0.48314538230527754,0.07009489122984312,0.15646532591903048,0.31628843700406206,0.07266418567325349,0.09991176867408844,1.4650519717801203
0.21852562569511313,0.5200165471503186,0.09512742976217745,0.19015810509397488,0.3537838231052867,-0.004625413871216992,0.17663048350333174,1.6997952268746255
0.2067610915668141,0.4687700883532154,0.07934298527030335,0.14369749712294597,0.3397993388224684,-0.018251892496293477,0.10263658811274044,1.394349418549825
0.1513586968224753,0.519098655950774,-7.716287854702271E-4,0.07675284629041502,0.13792348867985177,-0.08012654424533412,0.005095452208608892,1.7656595576199898
0.07194816316333617,0.5325801804944623,-0.07681103358456003,-0.03216408606183212,0.055331634212657264,-0.18423014161514645,-0.09720172759408903,1.416059459868367
-0.017702872263196622,0.5121385445099791,-0.14507356362205115,-0.15419624693379044,-0.04371748681479202,-0.28351974497872356,-0.143550157939612,1.5785183312786293
0.10900623604912743,0.5640887006477038,-0.03986295847848706,0.06299100838987769,0.15696961962973455,-0.13114540439405117,-0.02492614904110944,1.3437037143274346
0.2228595419796069,0.577185505598449,0.06031855341675346,0.17874506237090004,0.3526531601174936,0.020065039091853448,0.2197455805377558,1.2977396676709454
0.22746932257059785,0.48700728758305073,0.08154467903209953,0.17974513234163608,0.3525518685406201,0.020794295779425234,0.15199966507664003,1.4046593177026478
0.16664288643453637,0.5202031696458719,0.032158061186547245,0.19632606398767288,0.24083694429258987,-0.03358548997701139,0.12286002487902264,1.5749961009447786
0.1168249860369605,0.5892443702799267,-0.02761390029916461,0.07145083475937591,0.07297352057826433,-0.1566725080455148,0.003745678515599754,1.2613685460845259
0.006882464164071852,0.703545207208907,-0.07901973044831793,-0.04929821325299135,-0.0604439559729182,-0.3382056949013495,-0.15449737582677914,1.1483646256667315
0.06149829505401988,0.6120898550670436,-0.08506265919559375,-0.028319743027185876,-0.01788367648747275,-0.31982386485149056,-0.109624896719532,0.8058493197107569
0.1538036972006949,0.6277134900430944,0.06569990889045976,0.1499264843616872,0.2778503404052213,-0.08426211988091169,0.09925125419002588,0.6169149045916613
0.15373737632378204,0.7088258331710764,0.039177089470246784,0.14353496893353035,0.1613898594099359,-0.04682685358240501,0.033511153222498834,1.0093946478810036
0.1146775055015183,0.5980463970647643,-0.08684527496629275,-0.08535795870275592,0.03507009295947813,-0.2845936227504602,-0.28820358022149767,0.955996028851423
0.029560794193349303,0.6021411013142367,-0.22560075248059575,-0.35678445261163455,-0.20287445062147103,-0.5389652600417899,-0.43913255264763873,0.9779185799940823
-0.028594206225092136,0.6414670413268289,-0.27917974701895093,-0.39989955014062384,-0.316507969224506,-0.6775896944111803,-0.3936597366513971,1.322796667103604
0.10501639407329535,0.5612677999161912,-0.15133479424292035,-0.1238644921108456,0.045037941971216876,-0.3533466924801683,-0.22190763139381353,1.3221356168457907
0.14203535625614827,0.5295513307638539,-0.09994164490334788,-0.10060360011143639,0.12582757669218536,-0.2667626585606596,-0.1466480758849141,1.3606895052344352
0.13060570549796205,0.4168311431577211,-0.11586926948563783,-0.09988149913451587,0.025423434828898195,-0.3200797025636112,-0.18607753299479932,1.8142994645483792
0.13302930213368094,0.49931147186103875,-0.17199731132869853,-0.17419340793591634,-0.16057420294175268,-0.4394676093102978,-0.30235210436995735,2.1907162244774807
0.05668124804001665,0.46278520499050907,-0.20766481049752453,-0.26385513174601627,-0.21781719722025017,-0.5233990914423481,-0.3202035247403796,1.8730425480287582
0.14878355207489938,0.33633639308911584,-0.08938085495597275,-0.053381598049592555,0.032448067149875304,-0.2989932347650372,-0.11601520562303397,1.6324232267984362
0.21832645343794108,0.44635492275646416,0.043218499320984025,0.13948556406302068,0.2696576275906118,-0.15954696820974099,-0.010073799660659865,1.500935100492287
0.24960805622049134,0.4739863565232265,0.0448002134125486,0.1698806496206236,0.2362317339874503,-0.11163010477415562,0.04359924969028053,1.5558758704866367
0.18956370287361615,0.5104147485575096,0.03144814976910478,0.07797314526338392,0.18330214593529495,-0.1799399634780603,-0.09296961917391157,1.6254071436072846
0.11031530927483868,0.46395472227917545,-0.0778670184608752,-0.0240335054628953,0.07467378539260969,-0.267178974451986,-0.13018227887565653,1.8034233731656797
0.21401028065576877,0.5296283550804826,0.004590259883005798,0.10575136524330438,0.24056318843201124,-0.09689770681618026,-0.0076057387918000525,1.551471935854553
0.3067725353394871,0.568383842500024,0.11293340904637471,0.23342716962289198,0.32830127993808306,0.054984602131942,0.25332569052425574,1.521489033892299
0.27824344007032475,0.5158749177524843,0.12581972889083926,0.2069705377823432,0.40111135757737987,0.0795118047373041,0.1652657706787622,1.3898365846204837
0.2507421729011116,0.5420248595162636,0.05725893424125832,0.18424337166188665,0.16095316264370532,-0.04716121604041445,0.0016548456433931444,1.427841800456938
0.16380699442952298,0.6149831443392404,0.03806126222489953,0.07820184029009974,0.05633519058379097,-0.139851225812228,0.01133959523913412,1.3276383402461693
0.28814856184299903,0.4770238522627562,0.10701318742367794,0.25265157052102316,0.364692766074426,0.05469725989618904,0.1961693516801132,1.292976542312348
0.3014636117991921,0.4740969175878819,0.17768213637577163,0.2823817627467589,0.35273431062660204,0.13186464786703425,0.13492533601260764,1.1157120206717728
0.2953039936982155,0.5302783922567827,0.14103484926142817,0.27098863453104893,0.33851052167323903,0.017750686459868627,0.2523951242788269,1.5847272102053855
0.21191457667778593,0.5834989671786693,0.1080668922998213,0.2090142782676241,0.20304592335156577,-0.020040315075037257,-0.007370097801642827,1.4443411853052577
0.15200056896732164,0.5937633271778396,0.019225864244433493,0.06806913227946564,0.05350119616228375,-0.1880000587211221,-0.010619618483759969,1.1856680894576228
0.24802722492925147,0.4981851981646963,0.08554939101963903,0.2596942798802312,0.31835727473967557,0.05265138712337212,0.19734547760413762,1.2775634581236763
0.313103804777107,0.5685024672019245,0.17120482560905542,0.26800032767123394,0.34622521343538193,0.06226804095983939,0.26056939250618993,1.045858885432283
0.3105905104740096,0.5485774882171413,0.1320381724286007,0.28453404356984974,0.3024338921699253,0.05524864936758682,0.1521413610582537,1.2666902330961962
0.23457095988181048,0.514802390866519,0.09950743761923922,0.21303814200592155,0.2388432135602816,-0.07079172181147508,0.0776742322694672,1.48912531795369
0.13507133750730704,0.6027966185585032,0.0023439937355827934,0.05393321902198019,0.08077542067248522,-0.21852870724831713,-0.006765847474704279,1.517385121779337
0.15687529985677875,0.5042975894758316,0.019658881494318187,0.07713754261415007,0.12052184232586657,-0.09103494673685032,-0.021607079376323595,1.5040087438858811
0.2896026327446144,0.5429280139402751,0.19177160218887945,0.32038570813366174,0.3842529742947571,0.13747725521002832,0.18484487659872922,1.1482717181185542
0.30751115036735405,0.48168210853470467,0.1947059510202929,0.305872485419674,0.39311167821521537,0.10487723498130334,0.24178245472213994,1.129617953860488
0.29439623107477536,0.5303116132260609,0.14136947485965434,0.27672402016943415,0.26548206295713445,0.04213168564183787,0.17955038581249508,1.1794895973876174
0.19379782922135652,0.618766782929383,0.0348266272942879,0.1356902193819819,0.13709158639173313,-0.1376893734264171,0.002472243505428643,1.2781042620017153
0.09738925517272623,0.5563864207514315,-0.06146750676704721,-0.015573729209050034,-0.02741904315816004,-0.2860654927123867,-0.12899512657612255,1.3739494280887397
0.029462625439645545,0.5887720791795501,-0.10780701538242335,-0.07064705206783335,-0.046212652884173165,-0.327237046608848,-0.23677551852806314,1.509860807612384
0.24988085591793374,0.5988186154136256,0.0881456615150902,0.2043709313654212,0.2565503403152436,-0.048820905811820865,0.09910588354996949,1.1851528523069463
0.24373977641212172,0.564977716525826,0.0901059095592478,0.21425523365372842,0.32533608294526145,-0.004879544797731396,0.0987349478820552,1.3503653354652696
0.25187170243592066,0.49053922809574296,0.09357757606360659,0.16927284346481605,0.3036711021546963,0.023540159952189554,0.03345127796460467,1.5158766820595975
0.16376309840175352,0.5329532113745903,-0.011554220765317444,0.08301801174078485,0.15313638440567953,-0.14561163862901189,-0.015137685394840868,1.5020985317811109
0.04978183352096279,0.5390700208288515,-0.05096537856309595,-0.003233717193092441,0.009485458938100082,-0.24035152456577336,-0.17614657606737452,1.2676314446945174
0.0597222817007729,0.5511014718024543,-0.07972036705628519,-0.01975384315799995,0.05243737004574601,-0.2717702041855889,-0.11120383475124078,1.3174672601673516
0.254927653018834,0.5212606554934105,0.11040323441343364,0.25786646381268125,0.31779960769987403,0.00832590236051409,0.11045922419019522,1.4668733723767309
0.20726819352658324,0.571570135128963,0.04680723922772448,0.2056394469162569,0.3213437377888769,-0.005084225896041268,0.14200248442796218,1.368657821263796
0.21502051311881007,0.631063415154044,0.044544687802721784,0.1455689926439292,0.21856566011290443,-0.06129970675916331,0.028204928052900088,1.2635066887686675
0.10241098774752883,0.5202367428992063,0.007296394618377903,0.026604362050526516,0.04240035298705148,-0.22146131047282186,-0.07373746932633764,1.44473875850996
-0.01934532059879958,0.5648642686134335,-0.0931504205347148,-0.07148942577609302,-0.08883932633798373,-0.3771331187758221,-0.16376523763331813,1.2209984556854523
0.046992419946347605,0.4833070268777017,-0.09428499863281962,-0.04106857850842943,-2.4994241700279125E-4,-0.2759772949373279,-0.2141212591446711,1.1694891840688935
0.2008855016435747,0.5854744179553684,0.04637752012758065,0.16530309892033324,0.2009375758187999,-0.10344494937038519,0.07789550140664313,1.3099495193126474
0.1920690791170783,0.5698997028871385,0.06495662266264135,0.14033630951008355,0.23343749911649786,-0.07804800301796233,0.07041695239733502,1.4573634551044252
0.14881689756465538,0.522824629458421,0.015905899200544714,0.09765487385802951,0.15524671748459154,-0.1803240708075653,0.04352730477960874,1.4413842370793915
0.069112901934206,0.6031208244715619,-0.09192226234247364,-0.09405155422243129,-0.07999058108884048,-0.3334287258330058,-0.16908754184692087,1.4126540701318346
-0.022465671540648012,0.5837148480322046,-0.15083476156666203,-0.1826580973162998,-0.1848743342070221,-0.45162142035200115,-0.2724254363789155,1.1623353372380552
0.22043377222560925,0.49809012418591714,-0.004240695789698451,0.03723492705693872,0.08136469390503263,-0.2990689199713494,-0.18357019658019746,1.8416134252273766
0.2601690364361251,0.583353419030129,0.11429508396360236,0.09706601600996512,0.006772950955987472,-0.29449068986067906,-0.08907213786394465,2.534866726532341
0.2873355638699093,0.5839040109013509,0.10643376165394382,0.09439620479144353,-0.053589335840469474,-0.23586100603418053,-0.21077950838415704,2.402429374446939
0.24004397401727703,0.5751047293718214,0.05263840099257234,0.016192401809823634,-0.1923637424856141,-0.3502719471687822,-0.29546492890939335,2.3234830716980186
0.20543428577160153,0.5733610305257382,-0.007652830049059593,-0.11895172251189079,-0.4398000139664079,-0.5621416157628645,-0.4891036764558286,2.6312238312745024
0.2650368372738367,0.494170960002776,0.12235605488850369,0.05001177681405986,-0.1849187491580263,-0.40448409929922896,-0.24889573922847827,2.382310690424065
0.31715283802753413,0.4886390534609498,0.12264311121196529,0.12342107493661689,0.041334396828634046,-0.21439279527400049,-0.04909036982939088,2.1739890723244706
0.3121521328915102,0.4601443851764167,0.15317624298066512,0.18959102742825604,0.103003562055354,-0.2176474842316864,-0.1250690923574617,1.5013016638680057
0.20354240862160994,0.5204677882652484,0.060497798429312466,0.10224278790200748,-0.014336224097194959,-0.27345981452293244,-0.12968532920690543,1.5202883175081738
0.07770951416204104,0.5322365533498762,-0.028260698116538162,-0.034940188070338725,-0.0952204432929237,-0.41035999241434573,-0.2997088744148857,1.8144056712543972
0.19857171310763,0.43412083271212776,0.09245632006530476,0.10011452493769564,0.06021954565851177,-0.25003590898657485,-0.06854890025254384,1.3844514401696713
0.300940889305218,0.48268746336758145,0.15169066128436584,0.2712173787106229,0.2722920519752718,-0.03787797680872659,0.15488193264256012,1.2774774139094787
0.3187178577290378,0.4671799369791747,0.22082937433823036,0.2737052161932902,0.2477648694321102,0.03410114452745956,0.09321431711761721,1.4213879294992153
0.2554371721029976,0.47460983830906645,0.13250980588429945,0.2584264335377721,0.16495683731265315,-0.05373003185649677,0.04687456344139968,1.5314675223634675
0.15471930413431484,0.5166426710539653,0.07059639047232444,0.12340840253952046,0.04457873408205932,-0.22566042395998295,-0.03191737462468573,1.333214372326481
0.2031100741146576,0.48318556132471363,0.0914933147108457,0.1944240989142028,0.12139423248737913,-0.18471186593387867,8.897234021617986E-4,1.2060416299631607
0.3179033895295611,0.5254525576788491,0.20862535004076668,0.32172888818418643,0.3324900491459077,0.033492249549191916,0.15011784685988525,1.4394861234559218
0.3272274953302363,0.49602056832512087,0.2324155534015279,0.35160533046474307,0.3182257518511673,0.07369247891255407,0.2857439979717011,1.2434702222900755
0.2968644446561791,0.5153918260270746,0.20116944877476203,0.3540154423837774,0.26709382618604977,0.08916320120644117,0.14407869914012997,1.244857431433779
0.24430431225227078,0.5018248853961883,0.16425788717080278,0.21724157625846563,0.17225413468130346,-0.018704347524279637,0.07792282274074777,1.3190835695894971
0.2807562390676326,0.49864548841473627,0.1688656890618473,0.26828500868141963,0.2086791952246289,-0.049868374125382,0.07601095862774981,1.5641776107471397
0.36622685110832776,0.5365551778742933,0.2709384098691958,0.4113374850333861,0.46881596543565895,0.17871970675772977,0.3381449825794265,1.2652078262676665
0.3600424983710318,0.4691691704356662,0.26025465791586233,0.3949409938437731,0.3842875895849713,0.16191966126974958,0.2803751892975168,1.1693759562191464
0.35699712502022063,0.5344550516413288,0.218536998412647,0.37453654301894923,0.35649962815086267,0.13066928840949313,0.16786893660565042,1.3913919845830107
0.29979737761620134,0.5625069546299185,0.15908086084581763,0.2754556620263982,0.16007448081573422,-0.06250708954233801,0.13974363771037562,1.299875112618913
0.23625765229569942,0.3887519415383449,0.14695655660358553,0.2267505071578713,0.11572004755054104,-0.10651820717569632,0.03767024119753675,1.066863772125169
0.41465297082557434,0.4890197316421065,0.2878449216118398,0.42963874671887387,0.47070721494211376,0.20326384490298482,0.25913899529082973,1.2796239116453145
0.419671341681579,0.4880276697092813,0.29640049055931433,0.446429773261499,0.4891631839750644,0.20084240813744916,0.3338535996570054,1.2595108699442579
0.43538517540517746,0.5122676661539796,0.29885155574501443,0.4523248184008291,0.3991819717483047,0.21174760826610725,0.3437845573160061,1.2212257514687521
0.35783835598701236,0.4885030163061962,0.2332496287285698,0.34384769786472386,0.3585175024566176,0.05590633844383785,0.11041762780364002,1.2451870210272986
0.252416997097922,0.5763892454492956,0.1766125272600224,0.24646477875298373,0.198559515710705,-0.017614084587145876,0.15669137751755155,1.3351664451539489
0.35400190472904475,0.4411304339417741,0.2133975064056086,0.3899866934784061,0.34071154971378903,0.05678881855569481,0.2654726185642318,1.2315750250163262
0.4397028132722196,0.4901842777729386,0.324142858898061,0.4702194417614735,0.4883909926563638,0.26107689802307915,0.35855504227323165,1.2674443114553802
0.45175553234012467,0.5281613054045047,0.33200336626193794,0.482450983193961,0.5727768399123314,0.22567493328154792,0.38532282712846067,1.0469467872598694
0.4112660653798755,0.4662712574247589,0.2865509375750147,0.4369021341809469,0.38110839089728743,0.17062592087241535,0.2587794374987907,1.3272834246221743
0.33516142052450737,0.4821128406102468,0.24869581451891953,0.35985577960804516,0.2782686557791008,0.02397776967610524,0.11495891930992426,1.5057359064819684
0.3014585527512824,0.43624290350857153,0.20038014225406975,0.34722165244826203,0.2987401547378992,0.01909370142480002,0.11842332274850438,1.5230397669331792
0.43424781457980716,0.4999993670959895,0.34320563260284426,0.5240315003191004,0.5664728509491974,0.37183981825588713,0.39634721073775026,1.4196662426528428
0.4526941764107564,0.44693901754033377,0.3582161228240495,0.5285891410247997,0.5846997252450731,0.35140255418293265,0.4714089819519055,1.3566130827756493
0.4047871444125552,0.45005665159905156,0.35744398589678134,0.4754137783060021,0.5615096383647298,0.2410180344761894,0.4177675314383972,1.3273779105695689
0.3573849995234395,0.46548703673825814,0.2524161366467708,0.3713635886121897,0.3851840532738068,0.18886209635316123,0.2772271499599634,1.1540864205254928
0.2865170864528548,0.424642676082199,0.19441545071149946,0.29969329953691776,0.29672850769527914,-0.0015790689541477743,0.16127828201329006,1.1463881862227132
0.3323680976313172,0.5155135965879841,0.2672167469305824,0.432858564406367,0.42490158173647136,0.1836249473844225,0.2752315227250319,1.360291885669245
0.41814261029810684,0.4766283005408358,0.34251214466724705,0.46096406682793895,0.5972529865985399,0.3645922431533797,0.3909827839547527,1.0701155244974756
0.41965219476941046,0.42283607104626053,0.2918984919178502,0.45352912104214577,0.5424846279342586,0.31090161608924605,0.32061010955209257,1.482339877559849
0.3679731363441168,0.55005989727529,0.2535610059827097,0.41791997092744176,0.470122717483645,0.20827444083585625,0.3054550749405197,1.5836896157541227
0.31444528947572087,0.6124906859786503,0.1967744383463323,0.2620731079758216,0.296816475583462,0.03762291407162538,0.19118530136441864,1.5270770924234895
0.23293139754171854,0.49099335527749133,0.14250734565657616,0.1881690106629878,0.21609116636644668,-0.047554297673273856,0.09602955288593513,1.7670787350759583
0.3693950965015884,0.4485275724080992,0.2224235470649935,0.3839119031209429,0.4993917874157254,0.17918242233112272,0.34691299831368566,1.4266669989093594
0.32601790596363,0.5672547124265338,0.24519669282333342,0.36117311826679543,0.5059235697661316,0.2581406593408951,0.31133103333287465,1.6809218503971368
0.3502789066434298,0.5398419709948652,0.22167371998456714,0.3160666737900676,0.5063708470472073,0.14502492888056295,0.28910723160897617,1.805568904010972
0.2623502547736339,0.5267162612747649,0.1315510649656479,0.24632744435876805,0.2999899663461219,0.04428601979542676,0.1340346391522285,1.7460684938402067
0.1817159450556811,0.5716930253686587,0.04772627059215107,0.1424380656311165,0.17248264683339948,-0.05540949461807602,0.017995171836863107,1.6777901942870446
0.14944027439338975,0.5369390327395269,0.07429983080907543,0.14065782680338,0.17992632926858057,-0.08690987868201093,0.01188694426469439,1.5638084029714927
0.319035376061552,0.520034005642423,0.19725937346949854,0.3405042682605576,0.5007939342251728,0.27111974877176925,0.23970108938981405,1.6220244657123772
0.3557808994564215,0.44717261356110655,0.22244220644814922,0.3615959033387455,0.4276372442319473,0.22968193774197485,0.2802021176195683,1.6266818944748713
0.32257551929526895,0.48126817385643333,0.17550741133000422,0.29414497992393346,0.42201211140181355,0.17165551798632286,0.2590911903645705,1.6696593585351729
0.2468741515242092,0.5595378501980263,0.16347243442083134,0.2048359980578229,0.28860842651769375,0.0586878849155703,0.09187031020416157,1.516331196593644
0.19711485602417914,0.5319558132471764,0.0687367541097099,0.11868911057648109,0.17344085292695413,-0.031671351559015445,-0.05620703716212544,1.4683335877261305
0.19322334308809402,0.5051221757799074,0.06097737160578904,0.17545336037761414,0.20591696976451948,-0.10232226113840763,0.014360242992975452,1.5826301004756098
0.3394049345547763,0.5509207509164874,0.20516944312990062,0.30754800878466837,0.5190886087966575,0.20912292811830482,0.22813446540145998,1.40908616006169
0.34223700866953255,0.5561700353614014,0.21644812413469278,0.3135177147466159,0.5059645797741634,0.17430147163427928,0.1989132401831004,1.4562781988501585
0.31333848216460286,0.4995581815297331,0.16943237069951325,0.2929518707614342,0.4419645244185697,0.10472657815531043,0.18532011314356914,1.6126133009738917
0.2493581892301353,0.5481308811039091,0.1192609773069196,0.19253252691866482,0.19544779128090797,-0.01695150055587266,0.0723272577437118,1.4764073421170494
0.14818698901785365,0.547428152544817,0.03608534423515015,0.07004358164433921,0.1542706371874779,-0.11810678764680368,0.00267316478215858,1.7592068244334649
0.23562137828841315,0.5497770644338249,0.09829957669653334,0.20813627819076677,0.3080878813150574,-0.028855491995044287,0.1281878232677642,1.5018271942613843
0.3602303695053672,0.5355104835484441,0.23258902427518865,0.3428199596873942,0.4815584378824908,0.15082603771675288,0.2168442052069883,1.3820959936643207
0.33519220201331834,0.47938267639795207,0.23780961817308977,0.33334785784592535,0.4280530192060958,0.2234910699469165,0.2681185145808303,1.5194679089684928
0.31293672744341083,0.5614887234934711,0.1591256411758849,0.24731743662255135,0.4040274146233192,0.08523168034454282,0.19701256737543962,1.5533779713376548
0.21023087130278495,0.5937889268014955,0.14560906763986414,0.1594255461217379,0.19060960322177084,-0.027308395356295735,0.013084102131112588,1.9051682068381883
0.13853846688145702,0.5620624216986575,0.01185275015321155,0.07498627563782673,0.1349984308490326,-0.2484199747148871,-0.12139225308546418,1.826648548241452
0.30841108557222957,0.5219094954182233,0.16391754805262812,0.24617599922096964,0.3202815595131253,0.08817622824418278,0.13790900991088764,1.7022836516761415
0.33336990317300236,0.5375199427164749,0.1936114807314753,0.2797691657706937,0.4143917710269165,0.11330352160032223,0.1955058770833862,1.404028920148525
0.3085363722235674,0.546672467325148,0.17489110192105875,0.2618016288245357,0.41565950845216376,0.14206294179838475,0.14893807567803372,1.2283826043067902
0.2596790878269747,0.5222597384524053,0.13328370988865323,0.16872788912826603,0.37162401646269827,0.01220264246423307,0.050641640137125014,1.5987807870194737
0.1722522431559086,0.602271269076055,0.038860348384154086,0.10649225804536903,0.08947643362665841,-0.13683936198223048,-0.033567444775846195,1.642844677872374
0.13547006865459124,0.605116449898168,0.013378971288901375,-0.004486202162551081,0.029526796442040242,-0.13179873218499194,-0.07256849045808078,1.5166364495345546
0.2937363381746246,0.5487914426938421,0.16315266555992833,0.2963740249950251,0.37707838535736293,0.07690697917176333,0.16458880072873255,1.5033309997878859
0.29626142998945965,0.5842487204228218,0.18076698593518403,0.32300222215758656,0.36446571515136267,0.10361129755835011,0.17432757379800232,1.6112481476581364
0.3159748759192704,0.5886161783852004,0.16242892510552423,0.2690394831764773,0.43591060517599095,0.1712077026480747,0.14956347014415672,1.6309428463330395
0.248050912390989,0.5217482309107321,0.13006180067003445,0.22610903648302827,0.28922932015601477,-0.03179670357515645,0.09303657912378516,1.4646432532209532
0.17244220165776186,0.53161232848931,0.06796945255006236,0.08043849234685445,0.16215978994185565,-0.1641459337904261,-0.038764309117623526,1.612698347963735
0.17267722695694873,0.5655173947963228,0.05975935639726361,0.09429100669346538,0.14743898386814389,-0.12875240897849313,-0.01271445805090585,1.51092386362609
0.3195079014572875,0.5538818707043053,0.19129167233518773,0.31041864767829896,0.4313121192639239,0.1114179989573272,0.2049503065525819,1.323417905475475
0.3419115590285781,0.5785421608604875,0.21390893836878366,0.32229176783523467,0.3910297010967222,0.07156688888041611,0.17429026555026922,1.4033048960444585
0.3281161493838328,0.5397394613418217,0.1657391518572388,0.2885146182359085,0.4129272957131886,0.10273582413324263,0.1668896565338037,1.4767415504205965
0.20809985352992955,0.570291286512521,0.1372211523457781,0.151638598007589,0.1774763273857946,-0.0517676790402687,0.005511848477710683,1.5928858988663366
0.1316875654987156,0.6037060897539555,0.04278210771140531,0.05081034102087672,0.050103111729436586,-0.13845240071391995,-0.04251166746473235,1.6751027037064379
0.22607546823020333,0.4784088720972419,0.09634226511348326,0.18843855524060202,0.13803974114343964,-0.17324077324229123,-0.1095184454230115,1.97066573783057
0.3964358700741042,0.5805507006930958,0.2885939684141931,0.3250647012005504,0.32864916676680456,0.0852101955506485,0.1166902400919679,2.1293803668726787
0.4578352139715599,0.5527900601929008,0.3276023434217632,0.32254098678319804,0.27222833776130645,-0.006017874931051768,0.15243115534217322,2.4143155917913206
0.3953899629934471,0.4189196042032385,0.2883732241471289,0.3397766992775511,0.19642642592177928,-0.026239787226520938,0.06954607022995754,2.249774780045403
0.3365874355991919,0.46198272439662563,0.2141969593348352,0.21515781339761633,0.045754948140189954,-0.21479337939741786,-0.01931138516430697,1.9411446151173597
0.19249616135490846,0.5769729941701831,0.07797706797264324,0.11409012707408148,-0.03135353475131721,-0.3324359151058915,-0.16718814007605573,1.793433122226757
0.2911637927253408,0.5786231113301464,0.19907469592576826,0.2635868162409798,0.18284971025949018,-0.12264173562222334,-0.0762941152882714,1.1937517957456985
0.33716182217164303,0.49523536665142237,0.25655006786728884,0.3645167925908379,0.2816018011825617,0.05809971090262122,0.06319645694231599,1.6110219663421426
0.33447405446781664,0.5751316862656942,0.26460304749827834,0.4084228474959993,0.31315756255832156,0.09189340959180083,0.11856941439321542,1.3196900708575419
0.28592487618841805,0.5942380376899403,0.2082430833808328,0.3588444821487274,0.27439194684248164,-0.03335360196782957,0.042837566041241774,1.1877419261078221
0.1766643499600577,0.577010672891547,0.15186947616396415,0.21793479298239551,0.06306178984466583,-0.15378578688688785,-0.09836052475618184,1.395517495450471
0.1531152273517015,0.6386728024159045,0.09127200596701344,0.14251255373327196,0.03294147976530794,-0.2567313673185793,-0.11536650301659912,1.4744415860213098
0.3009292425837645,0.6044735511715592,0.23970970200159936,0.3788536163874569,0.38138856405484883,0.0013825735676237297,0.22060105668653185,1.1609301441278177
0.34536135448764466,0.5758393292332276,0.27201102029775925,0.41024618461881784,0.34004490041375673,0.06774089514192216,0.14775515131593037,1.4294420950255435
0.33811971491109927,0.5476789118809852,0.2792988137612187,0.4016884472284711,0.30850824992779635,0.016623995855968434,0.004813730561395794,1.2208091604022828
0.24771975239154473,0.5532762635993846,0.19564619441008524,0.2787314460533784,0.16239534230531874,-0.08434582495727248,0.0567404842553557,1.296717034220173
0.16508655202677078,0.6001066563606914,0.1315258725236766,0.13300335331381505,0.06693047059982624,-0.19595129759758584,-0.10572061521625765,1.1815183891751573
0.1263949761086116,0.6640312963784525,0.06895695489005135,0.09793304750818846,-0.014558601677894911,-0.26107854454269447,-0.16191563167961628,1.508307603494157
0.3290704179000507,0.6034233908531469,0.25819764115633115,0.36240488917165087,0.3619554212227641,0.030925522846306005,0.11894562971790666,1.2876242083082032
0.3417666903911616,0.6462933253945391,0.2686810575064561,0.36848364894073427,0.40286471009987496,0.0726700309205461,0.09161940680275443,1.45956457430769
0.32739935099435885,0.5526344233714733,0.23103275170111162,0.33264604301089845,0.3315585608218408,0.05856503088494744,0.10725814637037027,1.3398180219523297
0.25847407696944125,0.5798340863854422,0.1474006809340141,0.2301520040506401,0.1738850841852053,-0.13070629482509438,-0.02747999052043177,1.3745380348096141
0.15723463398424195,0.5161111984183427,0.0818309128167117,0.1341361233620242,0.03536448222666906,-0.20763342141191124,-0.17460406727439653,1.3099804896990692
0.19484221783248015,0.6085641902522249,0.08510471552732594,0.1587009407013426,0.116794436226757,-0.2354699720326305,-0.1607834781187842,1.6279095745564474
0.30605358885457307,0.5281215578371896,0.2540374032640856,0.33301029618517947,0.33114229455725014,-0.019900554104319193,0.10979525127453675,0.9144691382860765
0.32607547191371766,0.5583547111928202,0.23697211267353294,0.33529672406245553,0.3704493660421843,-0.0022541720714615845,0.02577415912665943,1.1294184278237034
0.28697340945495203,0.5704295862917138,0.1648171758514075,0.3066875952793483,0.2460049288985772,-0.036513684744507335,0.11362950043089397,1.3998244582238177
0.23142091324634753,0.635983073096666,0.1428482696873471,0.20220619307917817,0.10936761942534692,-0.15502341949674905,-0.12710861360193268,1.149515957131779
0.15182864397129017,0.7152702640167243,0.08075826405758463,0.13208325865079834,-0.05465497469383259,-0.2209421513937689,-0.16366482291648873,1.1407395805204847
0.16961603836438743,0.587901778563358,0.0966637538225213,0.17212497013887126,0.08619072376736893,-0.14368514393987386,-0.07757625698140219,1.3889511218743664
0.3170144100311506,0.5521707594245929,0.24766488184469765,0.36729839693454935,0.34577384885081375,0.11577739655699487,0.14298295822411536,1.2293617682116982
0.3418088363956347,0.6029943291651777,0.27412547982341356,0.36369068087614953,0.3677800857536538,0.0762713037401408,0.15702158891051504,1.565904622743143
0.32485497574323524,0.5774892425203163,0.20638442424739215,0.2992292142042139,0.2840846498763899,0.02812629174883136,0.09564804927585065,1.263490846224402
0.2273331121173128,0.5424052085111484,0.1575961159640358,0.2167252189280541,0.15331314391038162,-0.12656129986500353,-0.03789298369452409,1.3676143897372461
0.16015229390668106,0.576292653522344,0.08054950183977065,0.1262472497663503,0.052790551317887555,-0.2723096552426931,-0.1913636496001346,1.3528795103267686
0.1784896599568627,0.5742223894413757,0.1179093430544602,0.17933949509830086,0.11670929281328714,-0.21462759256461542,-0.049040276125441304,1.6611175334726422
0.3361763471641961,0.5240430612528445,0.26517871159041634,0.37150898421497036,0.36051498309989016,0.0443929764583804,0.143509293905711,1.350793331698313
0.3387839018611512,0.568749739747325,0.29732111075376016,0.3821225883432973,0.3668410904983644,0.06990322696102719,0.1401298814206716,1.3999090831948298
0.32724358058565484,0.5873876483802654,0.25289204685453637,0.3599109016400315,0.2931727707352118,0.028924599058592362,0.05696464421033884,1.5845383882395117
0.2549795441438928,0.6229049593256418,0.15275997136259528,0.22532056829767053,0.12504872837288386,-0.1502184508613755,-0.007967655787722865,1.4205385603209104
0.13332834705316576,0.6130374370696992,0.07790350825216577,0.13468906649327084,0.028524370238250885,-0.19598491029399603,-0.1761570852701159,1.434329891743703
0.17598737036363368,0.5647584694327301,0.10032457803219937,0.18175293074882393,0.08288860862563006,-0.2288477872647651,-0.08423656120477883,1.2007311791337
0.32582031850251625,0.6606851678867578,0.2530731881664465,0.3422173722278165,0.3428245479722639,0.05294131734427767,0.14881826448049149,1.501639261028401
0.32431071292549757,0.5337551546292949,0.24900201828331003,0.33289689455000016,0.311871797219139,0.012266826189516267,0.06412672145076244,1.392997237033637
0.2855271239953,0.5555689133286599,0.18605989765176642,0.3357441185052552,0.2803749374504385,-0.08440001123368429,-0.008620336261245658,1.430839976899474
0.2357262937001347,0.6303732760165511,0.17850895396631253,0.2103229333243251,0.05436045966010077,-0.16257294775084027,-0.1406791551042772,1.44995004506003
0.10150605841413747,0.6195605764939964,0.05137764356841151,0.07091974728863272,0.016189812822014447,-0.2658908442896891,-0.1749692308128612,1.5044322786845015
0.22336240553782605,0.5219068547016738,0.11804900281974386,0.24843138028939124,0.18172995844979567,-0.1577189256745655,-0.057793194052875106,1.4038925827834894
0.30839601983650533,0.5465591028001284,0.21830756109008673,0.3078847490895548,0.40992470991376484,0.034975529278530766,0.10457414594304265,1.4657224113344145
0.3380302521858317,0.5817259797803132,0.22890880619727755,0.30548051634003853,0.3545837731202166,0.035013403930378315,0.16275470868697864,1.4881969157568031
0.27785166455929605,0.5931648520623145,0.2215809885864869,0.2614126997303077,0.20185563533793105,-0.10110194380705424,-0.001199946025844141,1.3668090254924221
0.21030299781101297,0.5629110677817943,0.11724162500469387,0.18332377936694488,0.09328418609118533,-0.17138337676165663,-0.10658266551387031,1.2730155844095816
0.1075730291259645,0.6529729445875199,0.049762227251459436,0.047299936319686424,0.015766934555760496,-0.3005072429302209,-0.19687422576749095,1.4794896293696307
