-0.09797460923090653,0.185667246995875,0.06562744897643137,0.11482885479508276,0.0671207947750206,0.07346351856198446,0.04325109518627685,0.3888431734253286
-0.10269731008215473,0.205817042434274,0.07678249999908034,0.1430433602435132,0.07919824510884477,0.08280707933494828,0.07924395528081055,0.42862067985247193
-0.10442096084915613,0.21832065338217949,0.06508161558632239,0.12005530211812743,0.05996161222500212,0.08117613417607505,0.06957835183203634,0.45064363424891624
-0.14343807324377392,0.2165092687022545,0.017985816129655094,0.09409744729495,0.008341639690186775,0.01911192761996469,0.011601695690694159,0.4361936216080324
-0.1519744889931656,0.21700630745457952,-0.004685149808313443,0.04901093179130038,-0.02831617813351855,-0.0335021241213122,-0.04347685524076857,0.23992450341494806
-0.1551136575684626,0.2154540067824856,-0.003400613639789095,0.060156367776126436,-0.008395658187803067,-0.03841975661777356,-0.042097377637062644,0.28850765562521064
-0.07745176224970568,0.23533272648519413,0.08040855987641907,0.1810555134079528,0.08203356782654284,0.11049997629448662,0.09723513995411866,0.2980338556220376
-0.03278817642679836,0.18483670597695648,0.12026248118690361,0.23800113691767708,0.10369781495773712,0.14664523310210983,0.13470137424851267,0.35874072363729337
-0.03394966718468052,0.16137918215813626,0.12241418881557037,0.2104345154180795,0.0758625659538145,0.11872653101123205,0.1258201255089653,0.35752454261751826
-0.05392072579973699,0.18489838224098548,0.0780391299168788,0.1489498895516171,0.034958863996800364,0.06922498603699995,0.05998312225316455,0.37176319142798187
-0.11767045025052218,0.18911521649649868,0.022851736105311417,0.07433694292770351,-0.02023502262991214,-0.01695115442580463,-0.006228884653185674,0.3759320894914996
-0.10942821077929481,0.2243126873365654,0.05635416172661001,0.13262284677160988,0.05131619441303759,0.08873361922519978,0.07660522737487074,0.4226725816281795
-0.06288808294936096,0.1873711256606788,0.08139888689564988,0.20161880171646188,0.12320513864666015,0.1587138678402176,0.16903490260045784,0.4785825172330187
-0.07912049270775225,0.1708408248650023,0.06294173632289252,0.17041447189146722,0.12204879604927266,0.16525987617760704,0.16373563466930705,0.4894065435743651
-0.10443931133911988,0.18096198823024393,0.033322103801263006,0.12332116870411958,0.08646627347533518,0.0919171297165529,0.09538540791238023,0.4121230925064871
-0.13477100696892944,0.18917755334999073,-0.01863576692010918,0.05508635631971457,0.01803081058118548,0.02659003419430786,0.009890034558343907,0.4146812050258547
-0.11018066657543792,0.14772519086599573,0.03166879121628317,0.12096390714332791,0.08926039834917747,0.0936131449165987,0.10636637602334272,0.45901943128638295
-0.08428847821902506,0.19172238066312153,0.06513329096790942,0.15433068392545068,0.13038153419589701,0.1490512914336943,0.16595926318957846,0.4209157430551414
-0.09425560976473212,0.17918825821666653,0.06186951906834126,0.16344463075393634,0.09708829407038727,0.161870985553609,0.1546182549762306,0.36494053978477603
-0.12431065350458148,0.16577876619016355,0.02070094829711054,0.10786888736219588,0.04299897990430114,0.08549526617340131,0.10522686932667344,0.5407348529512863
-0.15626094127173085,0.19925927173291025,-0.009438045722785797,0.05440787199732409,0.018360478699896952,0.023608442892073103,0.03706685543588212,0.42611162013765286
-0.09783775745588735,0.17266527344688445,0.06661744000214685,0.1501458992595966,0.0785840694434621,0.12093820029662661,0.1475689583337732,0.39228949781202804
-0.048768222638017465,0.18739817857568455,0.09464430850708834,0.21312966060938637,0.13265089539047417,0.19895968517731746,0.2085410607425744,0.4963197536335212
-0.03616550608460487,0.18484192869373814,0.12729922139942174,0.2339974149073097,0.11764641199695201,0.17810430368865768,0.20526834435467417,0.4391181995036062
-0.008182576669134693,0.12695532532330983,0.11179720303413859,0.22266930488483744,0.09862108645336112,0.13932387887614622,0.15312024230196694,0.43918008791350843
-0.04776979129096194,0.11839963394135482,0.09313096536519223,0.1796778503508771,0.042220452700216675,0.07501726288626068,0.1118644762664668,0.474801696629258
-0.03698179783359119,0.17290334357861586,0.11889469229231395,0.19990828614729172,0.08844731150881742,0.14249606500476153,0.1395198692033548,0.5288898355373701
-0.012491627002546211,0.14800464616957804,0.15268847341090747,0.2606557552904697,0.16852989872674623,0.23807613565897187,0.2588775475946257,0.5198880125331453
-0.016888778712120762,0.1885839564700534,0.1410022974700372,0.26345960072374813,0.16541521958602692,0.24082542331663132,0.26925583977491463,0.5465391999712291
-0.02350282284973815,0.1682376276436383,0.12655132345534978,0.23778454768034613,0.13761408275540973,0.20271789052802838,0.2296826620482585,0.49910409037780623
-0.059686979669762455,0.20924548191178308,0.08538553652907478,0.1870863969342293,0.09556052631148755,0.13628048636739365,0.18133381340259327,0.4778858169869593
-0.08230401321584901,0.2062837885955402,0.08025218647912491,0.1686242442491402,0.09015634613454361,0.1355871437520287,0.14604112523834212,0.3819870245262415
-0.05016401074109096,0.19782255213550318,0.14645141686697186,0.2633916593762351,0.17254187837529514,0.2576772384168977,0.2842310319947575,0.523532403059477
-0.046080729753012944,0.2147140676706002,0.14443079787214874,0.2840901360568516,0.19317116597681303,0.2816407983171695,0.3203044529557579,0.46611462469038073
-0.06932723874438432,0.22344885732246464,0.14041926058173193,0.24480691107966604,0.18700611384445648,0.2637566606135254,0.28178324177768577,0.49960027939973867
-0.0834422455639827,0.2347742345141057,0.09952902649415533,0.2137593256645368,0.13703460349181482,0.1763798108670534,0.22468228685380823,0.5435593647657285
-0.11143662229681377,0.2537896195150515,0.06106959035977943,0.15356052768831588,0.06701378907291336,0.10991894432791514,0.14106019105070544,0.5593290629655282
-0.08907994827614722,0.23201178193934355,0.11082470522695459,0.212004569096307,0.1473308062854778,0.18641368648099613,0.22130972676845329,0.5239350002803677
-0.05840841030819887,0.23192312714391755,0.14463055534161556,0.2790543195881277,0.17134871011577382,0.280745051435209,0.31486192939779256,0.4752895854139995
-0.04555753844935824,0.22036304435769516,0.1347506240887912,0.2675080674182557,0.180891443184921,0.2657972606789395,0.30926688055016116,0.47412141054364276
-0.08293126379940029,0.22913305329375314,0.10621289397691215,0.22422070157089735,0.14106809643180093,0.2009126976922093,0.2604721587910631,0.4836168671410298
-0.09811116081294387,0.2423575900692015,0.08117297239806393,0.17186122292070233,0.09261499421709918,0.17189513370212356,0.19869932348090602,0.5260768640565496
-0.0628890690534639,0.22616710324154127,0.12609883069133537,0.23277358355364527,0.17737393160592185,0.24582231261746054,0.2798625812182859,0.6158848394287729
-0.05415390341698719,0.2326311393541451,0.14075635444612944,0.26405308361219254,0.18526676039383816,0.2924363687922394,0.31720592182118046,0.5562756102211093
-0.04894009273900674,0.24127924008016238,0.12524544913231542,0.23931897827918755,0.2077221143188209,0.27571304321534784,0.3135116015605441,0.5644262346443016
-0.09226428250441476,0.24562275899544556,0.08639484846262784,0.18611158767486805,0.13382766564207776,0.22337448013743136,0.2401493691143466,0.6365878000079923
-0.10688308451231583,0.21878502907821976,0.038739289945963526,0.14276399571122236,0.1010835649725248,0.1488291489485493,0.18196104379912215,0.5727304290864677
-0.08267476281611084,0.23723927443719864,0.0640539461708803,0.1652120427605973,0.15184391478969975,0.21842276858201526,0.24982843590191506,0.609648619094325
-0.0524654594247302,0.24695969804424092,0.1255260914550584,0.2448762824973288,0.21245518821135118,0.33001928062628944,0.3468769584978334,0.5704065742701063
-0.037800930347670854,0.21346215007333652,0.12473330389340465,0.2516040244347674,0.2306669815722691,0.30973771824842106,0.36000728778421803,0.590045980857121
-0.05781309612467356,0.2396935802264355,0.11715671140198892,0.2077356448263028,0.1938950288904353,0.2662104861923185,0.3054392230605945,0.5878785163418672
-0.06197040124786649,0.22284478120144627,0.0773581791351196,0.1704911880353504,0.13726086202900367,0.2193731242885842,0.2620920215445908,0.5669122254070529
-0.08092707048114799,0.20283979579303985,0.057895749826050696,0.15811172772087984,0.11332081718659458,0.2099662213729129,0.25319668519514427,0.5580069100922701
-0.025398161152947615,0.240466822424904,0.12283461817067604,0.2362555801104563,0.23881421889547547,0.344368504228993,0.38594474793135936,0.6764214696788058
-0.016108180261132345,0.22169343758836427,0.1274725067448165,0.24032553966119996,0.24809679240286842,0.36095038105205574,0.3837908193438385,0.6283109359351101
-0.030927949151391316,0.21392330618575658,0.1025290988652671,0.22536673173214544,0.22171834814164618,0.314423297650583,0.34945404563627397,0.6194084875774398
-0.07253246984953754,0.22391352370915718,0.07574684705945545,0.17589414120826533,0.19609875728391943,0.2656344345048877,0.30959045077499026,0.5981874993789955
-0.09279321997433798,0.22273910946007908,0.0386537141804879,0.10750187803652976,0.1160176419127286,0.19339582233163014,0.2498181271811216,0.6213814579621735
-0.051441399881989223,0.23474719117968554,0.07882474527951377,0.1908311241265393,0.19754157265668945,0.293859003083187,0.34789937245623714,0.6166956351871318
-0.051678192128279565,0.22257897043299238,0.11224577109238638,0.20112713166414628,0.21649965846440958,0.32824155412762024,0.37347474939543135,0.5973581812161366
-0.05127901372440577,0.21956178089615858,0.09404592152759633,0.19350840405124245,0.20017710375056935,0.3245538069785482,0.3651666580055973,0.5974991969609164
-0.08578758785119292,0.22533774584748023,0.059919979869810146,0.14527394381422826,0.1882624787738626,0.2550692297059524,0.3034121718908617,0.6353311970318657
-0.10959591004104417,0.24341456420787005,0.031072126235166756,0.0986723234495159,0.14700810137954262,0.21225648802165242,0.24915227486326075,0.5980410462498993
-0.08001583392046448,0.24247481600333412,0.07570556084555112,0.17321426069607568,0.17989235451112792,0.30862148565292713,0.33990072804415866,0.6620670824577555
-0.06078023250361573,0.25322332953967186,0.09965750748356898,0.18574210283687134,0.1982331012403178,0.31130099814860773,0.3571571014124048,0.6145874846865027
-0.06219348926801797,0.23335073040283016,0.09073103792685114,0.1759495880075735,0.18470813527880237,0.29682538357628163,0.3411707240582173,0.627851230192109
-0.06147174818345356,0.19344706396409722,0.10921508322874725,0.20045487693448777,0.16783429984184842,0.2421406502473721,0.30965122360503505,0.44449378144736656
-0.04502043464230943,0.20969207157580175,0.08858945300641675,0.17734725020400124,0.13326247479081596,0.21000049870933934,0.2753975421611338,0.5131302208822225
-0.03950409511074106,0.2474992345631632,0.13595177435792072,0.21588386513670185,0.19916649436555994,0.32521054696552215,0.38614093553925927,0.5181467991398712
-0.07173635548446967,0.27810718622332514,0.12145174861157247,0.21072630234237688,0.2008615014803773,0.35929961963217316,0.39326280003639635,0.643607961253215
-0.12537051129593116,0.283500377420499,0.09207650489027334,0.18035879719591683,0.19321080055488093,0.2971282236621425,0.36845104579753896,0.7039373141349082
-0.1635276143077413,0.3042543735108095,0.05786861778898086,0.12472030213449499,0.15401357719129602,0.24961916480787863,0.26467192607367523,0.5859420636352556
-0.20043442345996199,0.25329285020522063,0.00850915653430267,0.07547306087535569,0.11449675622361616,0.1823231585841823,0.2052473786064179,0.6367037401441296
-0.17963109519080891,0.25342374320449146,0.053337678055453086,0.15801684509347655,0.14014954522391274,0.2682412103454514,0.3003134035926018,0.5280702246174284
-0.15721914668890885,0.2699668813657902,0.1034849119844429,0.21671650640753684,0.19997025423516052,0.3433622770261279,0.3961198055172491,0.47700786368582604
-0.12282363652773375,0.24449579433955634,0.1142258367734184,0.26035566499453305,0.16651798063908174,0.33072284826417375,0.4203082439863911,0.2207124594846403
-0.17966625766920255,0.25385311243197584,0.0667841612136499,0.16067254277844054,0.10836573651562446,0.2790547648223407,0.34362938947371724,0.07327748014562953
-0.23362709029177808,0.2606634434839273,0.009994446477900085,0.09151688249214451,0.08873622425829551,0.2164954786886471,0.26256688375667775,0.15290360588704338
-0.19784118227538197,0.20780553842029673,0.05079195805635474,0.15064962143939234,0.1260902053302891,0.24425458803989428,0.2813184913656498,0.23715859009355306
-0.02712239474543759,0.14662094142868246,0.16392090594991274,0.30721157162591084,0.21690605438238314,0.37342048456826604,0.41564823793712147,0.40158896621031576
0.04381097226852379,0.14125515846412567,0.2154455107090587,0.3328311485497154,0.2464959131700421,0.38790330317718685,0.41875007865793734,0.4681716623283847
0.06706389859994041,0.07207577669125871,0.20902015975526797,0.32425888206190706,0.2365417845962502,0.3489096157947516,0.3638334013292693,0.5065706880667094
0.05411799479704355,0.07120180587460326,0.17063231568275863,0.26473094420484744,0.23150152497224522,0.3216240999493733,0.32944254231386405,0.5337270439879632
0.049367927291530556,0.08485293466821354,0.16260653378738818,0.2749729831816539,0.2536457529191895,0.35208243778139725,0.3560266928308294,0.6216187346144719
0.04841795086570698,0.1437207314774823,0.19061284462205483,0.2997236340776983,0.3031214236583352,0.40539425283243524,0.4377461955300901,0.5630981398182765
-0.014407033305472059,0.15141202674239435,0.14186089426933013,0.25909693146353024,0.26456010771561445,0.36351721139890775,0.3873978931254493,0.5678581472703106
-0.04306871781257816,0.19608092783128137,0.10152837607571594,0.22084656781791726,0.23713250707098177,0.34447373222120065,0.36716598693889113,0.6128346120039063
-0.08046055291449185,0.22523393625576962,0.06580198240990612,0.16257481927290496,0.19882239413779487,0.28497441514117594,0.2811541268258934,0.5656708006808459
-0.08558618461204404,0.22137241116995066,0.06753159927762804,0.16653674353008105,0.18820962669856142,0.2363932096705637,0.27987059770378525,0.5921737635453455
-0.029189893425539692,0.24329763010091982,0.14095675014341574,0.28336772308116026,0.28227263321463497,0.3632054323173344,0.3943516941114379,0.6472595398658418
-0.02053753135188018,0.21118489831539394,0.14339137438883892,0.2741336907134646,0.28552045547203264,0.3770941390806786,0.39924817884635405,0.6671300972156112
-0.03614262642683885,0.2505588313905022,0.12085673526000566,0.2501459354444776,0.25878682976499057,0.33012406165700536,0.3549129030181098,0.6346464281825043
-0.07346953536081477,0.21801313906782216,0.06943137396072488,0.19332051418489085,0.21022503885698174,0.2682723158682885,0.2896548052090779,0.6153577593046373
-0.07226904820664935,0.2608712947330554,0.07102197995120059,0.20095071647547239,0.22310388944729143,0.2807732565710385,0.299520565859967,0.6655006926736174
-0.03637027385726856,0.23202975335238907,0.12896775346761688,0.26946415602887447,0.27002772535748065,0.36934035986361885,0.40460670416629585,0.649922547574326
-0.05738380915510463,0.2505669686158176,0.12009927509266305,0.25508212693124643,0.2661336318820841,0.3565790822267626,0.38877316277237195,0.741961646940523
-0.09960335296552932,0.27412991666498315,0.09319985356675876,0.21064996051976906,0.2129830790421933,0.3065790651207078,0.32854771263339494,0.5970125027752039
-0.14324444182737417,0.2849211052013239,0.021235538979691153,0.16131609683020812,0.17700398953363,0.23357770792199392,0.2376115211804666,0.6002385538549486
-0.13552449753094686,0.29984037649885714,0.07539813192732711,0.1996907073410974,0.2122073460075419,0.2945181585390735,0.34035379580102587,0.6868575984815258
-0.10088302982720483,0.26130137936023207,0.09744524829937307,0.24314678465083978,0.2519212587149838,0.3543137230684109,0.3782742184717293,0.6306220714565662
-0.11990619382102508,0.2920170445014609,0.08044011333639965,0.222063321643399,0.22411634239829387,0.32847452806890065,0.3423732720787752,0.625667024361413
-0.1589285978171912,0.3189980028269857,0.04223310027522643,0.17094079721743863,0.16497677427803104,0.2519426702139592,0.26600484498680493,0.6451651417261351
-0.16975805397654883,0.30898687765507205,-0.003166484813799609,0.12291990527821654,0.1459887886472273,0.19467770520555774,0.2121176105989303,0.6031277643254628
-0.1395568389799089,0.2776912273690441,0.04610127957058066,0.1943489955358301,0.19985280894206434,0.2646442178433859,0.3194147332312635,0.6617073238741726
-0.11855320703740874,0.2985641471134468,0.07015866560289766,0.20433853070557234,0.2108370706282852,0.2978990754742848,0.341717770786585,0.7043284844023765
-0.13199937373815113,0.2980281052219462,0.058294326763359834,0.19233238895777086,0.19285225926259197,0.2797795209676223,0.31550773416328615,0.7315537857798721
-0.1531815522125734,0.28915899869503386,0.03768952432158632,0.15690470913044285,0.16390071853464047,0.21587844640797074,0.23161671013138993,0.6337083393331988
-0.18711488670283444,0.25407993547797314,0.006872099784886098,0.125808575813703,0.12462227484752735,0.1848309216767973,0.2205507086029871,0.7088034507895592
-0.14179075795917323,0.2920023651734701,0.071944003447283,0.2179864444589032,0.1984276563423975,0.2825401370880738,0.3272596114340032,0.6585278355253685
-0.14900784904158312,0.30285851219380244,0.05052897394913894,0.20339147813554356,0.22065474071299918,0.2970575234648558,0.32168504262095954,0.679140607919823
-0.1577341775279092,0.2929254591233631,0.028068596735535318,0.1766410298719502,0.15485531967549865,0.2668786679412345,0.2988685476321127,0.5928906943450449
-0.19262926910171263,0.30010494479421973,-0.006304767730243357,0.12845540019653773,0.14544325057617666,0.20875206792334985,0.22850387400834854,0.7032340866140194
-0.21542117877392078,0.28979602169406865,-0.0015742498504565882,0.11347188454346106,0.13310817920302906,0.18268422221002859,0.2331325843272056,0.619937886569247
-0.15782488329582484,0.26723290406538724,0.06657207933196646,0.229918442558941,0.22707257214502477,0.3228113612372193,0.3486598310817759,0.6314602545222522
-0.1492786548611294,0.28869603302208685,0.07248258046669917,0.23956357315930804,0.2634117902375476,0.35432130820565866,0.39377734758291333,0.6862336742214796
-0.16667847518719062,0.2728059577271192,0.07115690007956597,0.22404473299551161,0.20843289985478688,0.30196278069902893,0.33280283071321604,0.6497006635280094
-0.16360666331173937,0.27927749264046037,0.0339935830995404,0.17715880622944827,0.17772507529344175,0.23398832540189585,0.25500564922990937,0.6466102373599474
-0.17236122382777772,0.3134463908240059,0.023420685742698944,0.16711148663792977,0.14268876534209735,0.22447460854117177,0.24818966565797385,0.6671495566128439
-0.12928183440593166,0.27089749113807743,0.0839925597702581,0.2587713783814793,0.23151117707507585,0.32912307139310476,0.363952025953009,0.6221749189524957
-0.11441867488151364,0.2815866465313197,0.10220571800326574,0.25131341979439453,0.2169027371006482,0.302250766692838,0.3581755680089104,0.6683385779303682
-0.1261531587593701,0.2801507329024538,0.07959407023884013,0.23504693864235368,0.22147807382690968,0.26782114792062167,0.3119098049146976,0.6218289497791969
-0.16047649033850467,0.29904921493684494,0.05162084400781883,0.18554558248711886,0.1613567635461148,0.21182124775186278,0.2290173818611397,0.6811380892362195
-0.14983413430689782,0.29462758249746346,0.035664291279374344,0.17798850605163946,0.15161945503399327,0.2203283546910193,0.22806092363781091,0.5871843470890166
-0.09547481562264215,0.29090728395628723,0.11098077661746969,0.26662982940143387,0.2317606539462477,0.2944028602220817,0.3299083521565304,0.5958949485303987
-0.11529919992159023,0.261471040694954,0.10136724495156997,0.2538206688925668,0.24077409125719523,0.2995177288407399,0.32515062104770637,0.7079964575224098
-0.1037015050716264,0.2890690368791189,0.07311818671995546,0.2213713334179619,0.19299602198377716,0.24193192467431685,0.2703763484631236,0.6208187415216885
-0.1354984725203471,0.3043090014281231,0.05080775023187817,0.17901168983224602,0.1346007847838246,0.1837707681936926,0.19287706022603598,0.7169689888063514
-0.1448963051687225,0.2851213071434508,0.04976330223223948,0.19961057872765312,0.16123754282207864,0.19936198966831725,0.20793547470761423,0.6757066699496571
-0.09210030796917827,0.2669062529650031,0.10657724422123777,0.2699808001500901,0.22067262264459622,0.2869140666853621,0.29910932109234967,0.6142389023270878
-0.09159887899242612,0.264711866719169,0.1148799234004209,0.27379557055943204,0.19855255504834485,0.27756897054005697,0.3029909073384595,0.6329089662402339
-0.09694585519763263,0.2553941814514672,0.09601274424676966,0.23301051073893256,0.18403513724322995,0.22989906952773342,0.25760097380964425,0.6761338614193103
-0.09098058585440925,0.2664798630623347,0.08984633763398164,0.22779295219117618,0.154787972217275,0.1988610851255442,0.1991640743810039,0.6843982760443489
-0.12254993955302523,0.27490302839369424,0.08803744626043541,0.2168895190841349,0.14691363277430358,0.17947757003604847,0.18865598422941743,0.6074962071458916
-0.12992599122286744,0.2804962470552126,0.0925558813632463,0.25184009686144193,0.23591365166488032,0.29668783955878486,0.31494235604094284,0.7062769528747764
-0.1443070096857826,0.2641587976239994,0.0876134501635671,0.24811569896043556,0.19761599157099616,0.2880081161282904,0.3089936074174176,0.6130421566606172
-0.1713764050400487,0.27618420548651545,0.07745537035332235,0.19976105105610964,0.18861700136170984,0.23601549945195452,0.2568054235508178,0.6200821691338524
-0.19533579512322113,0.27340384695191344,0.0301886040113432,0.1634891173260736,0.1312372181740221,0.1783980500847159,0.19365830587789945,0.6469467608237252
-0.21668803433387096,0.2826391357380511,-0.02032679269398077,0.09396459150663078,0.09784876374207432,0.11433038212745417,0.13078155909754488,0.6322846745230228
-0.17528857365095288,0.2750325758911714,0.03879442559172502,0.17427451608986885,0.18218117770963638,0.22192167972100013,0.2435126634286087,0.6048850625749449
-0.1451629316404899,0.256309541775344,0.06538887948069205,0.20487197422167366,0.21999582687941693,0.2615776473498408,0.25817898271179074,0.6446185661785262
-0.13477320483105337,0.242766551455563,0.040528502985836774,0.18718220302581065,0.20414403154544813,0.2641876480533802,0.26515740996199505,0.7129752159970378
-0.16794787968740363,0.25464725623504736,0.015157159602427833,0.14231414190459668,0.16278283793490028,0.2119914644011356,0.2252115166750749,0.7499554493201277
-0.1782878100616518,0.25833366957633935,-0.023841098391016103,0.10718301846733455,0.13058291220834273,0.13428813431553696,0.1586530269717671,0.6318762466244241
-0.12706759246718183,0.2307971384616641,0.03125923205187927,0.1722680522458044,0.19660672881003163,0.25922867207869,0.2730012529255052,0.5982592621428402
-0.10663087248768109,0.2480293299471778,0.04358804673076717,0.18517390821928598,0.21297026927128182,0.28392426347566785,0.28555853256432,0.5921988314981498
-0.12800226415119853,0.23486937247218617,0.03327665763248011,0.17853691132791005,0.1766139856400831,0.2546681327141487,0.2818599925080417,0.6595393107683992
-0.15415797665202238,0.24860584788785187,-0.004706890667547272,0.12193077943579153,0.12972638714376386,0.19562727753916737,0.22447408885056633,0.5636242867012209
-0.18232696579054575,0.20959960119413937,-0.02043059670782052,0.09581041528815445,0.11403074153931222,0.14621585467094095,0.15569500632231167,0.565315028764639
-0.11996819486346703,0.2229708570859568,0.03679656444238497,0.15860520235478487,0.17742202364221685,0.26501965191959526,0.26807727580239565,0.7378707630118296
-0.13736114964790935,0.20205749880260682,0.031732477077296616,0.1702295339711748,0.20095630704483394,0.2746653568310204,0.3026656025394644,0.6960915374317949
-0.18042605689497138,0.1823296583024421,0.003326094469354089,0.1419325871912072,0.17389598241689627,0.24381661982141356,0.27053116361979274,0.7204991311072961
-0.2071095263049675,0.24276666932134286,-0.04192630667020607,0.0884154400590274,0.12114775419934883,0.18325173162525643,0.21408960862153478,0.6339737679003842
-0.21897625825266467,0.23876969952107602,-0.06605729235882385,0.04699090688083316,0.10030612350140829,0.14769493992216257,0.15519804616752672,0.6568109339734404
-0.17669346856685103,0.2463604796207726,-0.0017833918747618802,0.12840407249866045,0.1897022613273341,0.2666762069887107,0.28010204041165426,0.6878754288067901
-0.16220683043241155,0.26408991661190445,0.001639107167955349,0.13310697911685393,0.16405837835351395,0.25779036056365934,0.2945185465339668,0.6903433947895147
-0.17866532491766593,0.23238717364455078,-0.014865328140927296,0.1198370726060892,0.1539396258183576,0.22301319466744726,0.28372230832125167,0.6703803881775509
-0.2162179029726067,0.26074125182745905,-0.03249262904906104,0.08121575157095873,0.11386237021733801,0.1715343598653921,0.19647373664267037,0.7027752201186107
-0.22910398278562416,0.2892054311352412,-0.07553431313282177,0.03196684792587099,0.06016463760085183,0.10198107024679964,0.15153821880460067,0.6639659350853537
-0.17955761042820245,0.24865110476791644,-0.002625502997347979,0.13114044339253983,0.16689376952284918,0.23432026105672127,0.29067339507004547,0.615891089839553
-0.1362961047391362,0.2563989373165704,0.05723662693863868,0.18845009520616707,0.19824136191497488,0.29941591170336257,0.3524616838889861,0.7272886565892179
-0.14967889356838573,0.2507900706182544,0.058764855337737704,0.1810625061312512,0.1899028177848852,0.28546451429312203,0.3189108583454604,0.7635568135181813
-0.14550663519826865,0.2559297959975312,0.0336734469548336,0.15844549192856558,0.17136938918965264,0.23760927420955497,0.26895216547771583,0.6531619015836708
-0.1582653041746331,0.24329027009372672,0.013399844685926688,0.11609630989276266,0.10921025328070141,0.15921104276191328,0.20174687334016406,0.6401074550463377
-0.16626669393202914,0.24296710323098036,0.019469526801646903,0.12853139989029297,0.14505552298203392,0.20715347021702354,0.23727039221942042,0.6679388429556667
-0.12284174905081732,0.26425313526894434,0.0815369799769945,0.21979555197829348,0.2112268912810488,0.32207594328430245,0.34938530480452074,0.6968820817190031
-0.11109870541029837,0.26810721246972036,0.09623495936233764,0.22720483138682745,0.24800468768202236,0.31848097958946603,0.3455258051616223,0.7173072724983267
-0.11620011484419523,0.24627565641858348,0.07483282538517234,0.19091039653485756,0.18507097263452973,0.272949086298627,0.296296604008699,0.7227552180996015
-0.13769880284059416,0.2502274730866351,0.03736840707088474,0.146204537694315,0.1589755717884765,0.20412181983734876,0.22691632884200608,0.681775027145835
-0.16318888913763327,0.2456911218146986,-0.015368996650950978,0.09555644102025199,0.11997354637318133,0.15339749754292797,0.1616722656892321,0.7957516395668265
-0.1196446962643919,0.2743301003584754,0.07553202035157756,0.20067002727147668,0.19248352022218732,0.28162557346582745,0.3178743134140215,0.7511271441222672
-0.10454981181103594,0.24837719337749925,0.09389376289925347,0.22418902056113027,0.20469611606392718,0.31549615412877285,0.3383732956908149,0.745737227077161
-0.10300766112310497,0.250351294042863,0.08620916036256564,0.21892166477439728,0.20390349574074054,0.28755856275697034,0.312331420373245,0.6515152929367637
-0.1333942704635255,0.2706186507426516,0.04736860184941617,0.18340423038963624,0.17486044619206811,0.21122300033634314,0.26395310866176114,0.6887370485537708
-0.13228940637000663,0.2726488809783776,0.037388433195866363,0.13749562332893978,0.10739263818389388,0.15880350378699487,0.21047695273045103,0.6713400482418691
-0.14253834749200173,0.2819954472687449,0.027325791272765795,0.12468348555003998,0.1069326595033407,0.15492785761157182,0.18984080757415256,0.6480213590285853
-0.08713289685938766,0.25409478679887487,0.086699378816797,0.20962185013186815,0.19656153382384556,0.27811187548356525,0.30184093449727634,0.7808468502010056
-0.10670878330920466,0.27261593912115223,0.07156695328503572,0.19878046849685568,0.2000255759620494,0.2841077905144558,0.32094906425091047,0.7045828940158064
-0.1600475201907541,0.23785622916958138,0.027847828830160137,0.1430547038877172,0.18978635606314379,0.22737969606271882,0.2592504189754769,0.8474478682541149
-0.19656337221554848,0.2811226067822275,-0.01044962994125917,0.09707055538586168,0.1371426248126186,0.16449712920174492,0.1777536893255743,0.8456876660109139
-0.21878642107693796,0.3074360337275943,-0.036076995157259324,0.04175389215027725,0.06952663832471528,0.08809000183729825,0.1345397243964561,0.7687510843572614
-0.17813661331621142,0.2759718827421181,-0.0021880316709647686,0.10433404412285355,0.1336629165248257,0.168043655545991,0.20596182120491352,0.8016751747066966
-0.13687626922062932,0.262754142285289,0.048690932938754365,0.14052433759919492,0.18374314142577386,0.24320662169847246,0.24798757140206068,0.7315490869499639
-0.14445365785834485,0.29945328625530404,0.031491921551018535,0.1424302442998589,0.1627439017220805,0.23113018605025068,0.23224171790437229,0.7295747769940105
-0.1622860933321482,0.28746136603108724,-0.006116589118691095,0.09911241184436698,0.11398459485957331,0.1682037409305381,0.15798701031762044,0.6926526058556151
-0.18022789350502472,0.2975228640416898,-0.0354785623401554,0.04886341334601819,0.09537207408213293,0.10539902277805738,0.10424168682423438,0.7471900544857116
-0.13398094666208152,0.26700458038545744,0.010613350363264145,0.14177453005845253,0.10427787385029337,0.17888095802297851,0.18293371014634127,0.7801721278824163
0.028803758096842588,0.19676951401306933,0.09046025506711054,0.22741368779996202,0.19605012523132853,0.22431842585699935,0.24860517508160546,0.8438595749127203
0.052686572074852625,0.1951288520696359,0.10480288414698918,0.21406426020484998,0.19280339601753038,0.2219719126706651,0.2238620766648113,0.7701121812940507
0.002417104802191308,0.17323463970039432,0.04852609005729783,0.16973266595840988,0.13070599378932596,0.14252786144961355,0.16856366164870085,0.7870659422447304
-0.06693363462386978,0.22337719552773538,-0.0019792275271096472,0.08872490585071517,0.11205327818070858,0.10673437605017963,0.1286937720462443,0.7402771798623525
-0.09038532034232923,0.21292827104234197,-0.027590149176421084,0.0809839735165675,0.08907471732514324,0.12068969709966534,0.11832703282585864,0.6320772859590155
-0.0455877338687052,0.22857385155791604,0.0412976048772653,0.1515411792705609,0.19977586259190938,0.22626108442621587,0.24231951484758688,0.727031036743246
-0.04764837674042079,0.2517454530179399,0.04669746696191992,0.14748155257840193,0.18300743746633252,0.20035535238914826,0.23867449471097382,0.8412604625860995
-0.06772699952483466,0.2534703943310068,0.01651521831000536,0.10951320101668756,0.14090937531020187,0.19089065762545798,0.18756255259859522,0.6920002419127056
-0.11626736212439355,0.21102359530908157,-0.023267569273456173,0.059025614932256616,0.12874471225273168,0.12749070131004325,0.15902677496511425,0.853843468079252
-0.11898377261331952,0.23654580634611205,-0.05377072271742913,0.026490258087090702,0.04723673784650853,0.07027679359789643,0.07597160811264311,0.7350186176492899
-0.07969715725088321,0.2515529947840707,0.023600522057543694,0.10346067160363784,0.14542204066851663,0.18441932307584144,0.1984423649871746,0.7694197762639614
-0.061711403361171084,0.23893512676442374,0.027254331318588634,0.11116579433925484,0.16138032363719607,0.20807622416446628,0.22905772751508227,0.7909192271025276
-0.08447947978917497,0.2254339797103019,0.00816002959026451,0.09125022276411716,0.17330781499505088,0.18250428078138736,0.20735080365243,0.8239508873605513
-0.11402173573362044,0.2509976936129313,-0.014352897235279242,0.04521770381344791,0.12962031865174303,0.15418539626510744,0.14997277563795022,0.7142541934368809
-0.1494851408185901,0.24623157354978276,-0.05915593374227966,-4.893816735100833E-4,0.06780226867767986,0.08264967860500046,0.08281649995248654,0.7436494676059414
-0.09864024146912029,0.2671952100174831,-0.004774548251571739,0.08369036516094096,0.12975217635433503,0.190864173891787,0.21468560312959167,0.7442029150236864
-0.08382247004793716,0.27759642100699156,0.021620961560089205,0.09388567433168325,0.1568742690862173,0.22149186196405674,0.21789845649656267,0.7226680135527146
-0.08736722929331857,0.28116598900444345,0.00473014842025786,0.08711678568740754,0.1477671406536,0.19313865928224724,0.22693173600821268,0.8168433049125933
-0.1239367897401252,0.27260037456659203,-0.02694444341627508,0.017720213046050006,0.12818676846225024,0.14090600438764406,0.14899688846260223,0.7352746651633235
-0.15109894092904588,0.2717815976955964,-0.058566586584853426,-0.02274883113029197,0.09236966806294934,0.06566709307365252,0.057248729266481536,0.7257290075333818
-0.12475142939604766,0.25469270219842094,-0.02924030867261206,0.028359719795899168,0.1137380376920558,0.12764908548235132,0.1453316426182159,0.7233511021517243
-0.07511119932873542,0.2620920930619913,0.02348153419462879,0.09562836188773252,0.16545170620150673,0.22357337321034731,0.2301554895574685,0.7213271926323541
-0.09055056785679423,0.2575262703961837,0.020356662884313773,0.08910572779120421,0.16710015283705845,0.19725238701520362,0.23331642615888548,0.6658216661903494
-0.10013314505514517,0.2627006654374056,-4.25124504506986E-4,0.06873853279487976,0.1356070487065758,0.15051654336374498,0.1761597988176057,0.7492518144036171
-0.13338603211632383,0.2776894243496485,-0.04348630186164534,0.021782642356325457,0.1066795788032794,0.117516678660412,0.122671859750491,0.7291993898142171
-0.11866676366787235,0.28309327628404596,-0.022458731539049676,0.02238753397047689,0.07648183190554551,0.09970718353781555,0.1134217012629419,0.7404994317150504
-0.059439942167142455,0.29250145627580876,0.029476300204635018,0.1083868307167912,0.17648834159367913,0.18943359233502183,0.21871474201012236,0.7210820425215435
-0.04931610097520917,0.2678408596000954,0.027899418205962388,0.11250935323169688,0.17947275844123878,0.19671327312171252,0.209991397594054,0.7593586521156732
-0.0833889842749111,0.2942235594355074,0.002711101092874364,0.0679545985017398,0.15003547593620403,0.15640677875003378,0.16216082120089098,0.7966221988307264
-0.11592433312273401,0.2913281714984572,-0.02811561923378901,0.0290377057450822,0.1218877288571316,0.0860206420618302,0.09850835700475935,0.6639255834512459
-0.1219366839155263,0.27333732431344065,-0.04458234300669625,-0.016060493326174593,0.05887304538213172,0.05364350500167563,0.062255740095786265,0.726005422529658
-0.08181367827376107,0.25901916768390115,0.009651661307828302,0.07487847551892964,0.15843279787996511,0.16368566038099253,0.16233593480418473,0.8265072609784426
-0.06005319212420265,0.2925540918931993,0.001452712482754763,0.07128174099841733,0.15290974341548444,0.18262008802139962,0.18715461219167184,0.7861869082743492
-0.07049023933518564,0.2663803628607915,-0.013073151677555342,0.046332320856883595,0.1321221690843913,0.142861790015762,0.13099471790349015,0.7774717504131278
-0.11621585878351963,0.2896388841331003,-0.0599081806983522,-0.0046487937355916414,0.0980031613908751,0.09892625034657597,0.09818287900046027,0.828382437817597
-0.13298317828913644,0.2654948409208411,-0.07335787626858317,-0.04550136926092952,0.06630740103019186,0.05397262862148574,0.04997680722411782,0.8011767107085745
-0.07299278087624939,0.26633698374711295,-0.010135145585590689,0.05288815594236268,0.13261899816210726,0.14516550530210298,0.17903795194867259,0.7720418632886245
-0.0627399327964204,0.27070368768016545,-0.00953089656372652,0.05476618567960106,0.12951473187437385,0.1678354753309838,0.1694164718820981,0.8009711440483718
-0.07373561488590248,0.27191768524352705,-0.030309051369512334,0.027440733785998657,0.12430107932867361,0.14545844772382177,0.15303731609840895,0.8646612998139455
-0.11162580232270607,0.2537398495568731,-0.07489840032904375,-0.025578797677583993,0.10947451243169633,0.10281966895273459,0.09060222184460849,0.8531033712272159
-0.1370325604309794,0.263201901441792,-0.08477791725651808,-0.0658257691576145,0.05080773987223475,0.04506844019716755,0.04602164173977658,0.7409815773100066
-0.10383941738715675,0.27488044702196046,-0.05753651717490606,0.008894260450365106,0.1359449413005693,0.09672616383150504,0.13216916224142736,0.7915903081916823
-0.08281484838490534,0.2532895251415287,-0.029541937035744877,0.04683757099280141,0.15845053736855258,0.18568912731868878,0.20149838447014717,0.814193518126965
-0.08119084802451917,0.2725653369237623,-0.041822596877580664,0.034188114824767885,0.16599612126702337,0.17897525799620884,0.19474240603236187,0.8602311132803826
-0.11739097418470211,0.26561273495063303,-0.05812976084463609,-0.01009303702698229,0.10999050386274763,0.12886700857955619,0.1318744710991908,0.8594750372834211
-0.13690598514813937,0.2564893668010348,-0.08844903886355843,-0.05458972806031769,0.10353907778985481,0.08386019497521613,0.08909221442800512,0.8403696346110033
-0.13827346352321962,0.26866979335443153,-0.06796226345180884,-0.022243570670577487,0.12426130345548282,0.13066432945501072,0.11962974125860154,0.8487700641507794
-0.08423376280533347,0.2899637122286571,-0.018445495641814212,0.027038540518979026,0.1701409469190665,0.2169500445084717,0.22097127372090075,0.8581063345023403
-0.08535891064270207,0.2646916240496372,-0.02778662507330142,0.038456166091969265,0.17952467169603822,0.19600604420515164,0.19400444721096474,0.9036367719918286
-0.10590774820648614,0.2519216129116367,-0.034107401061670976,-0.0018687714479682196,0.1446514350330855,0.14405947477002046,0.17611858575032066,0.7289618609528843
-0.12850494557625577,0.2932415748381669,-0.06665077022890094,-0.020980171507636602,0.10389586003353986,0.10664706431938535,0.11576487306545301,0.8239898952530825
-0.10142980524264661,0.29181599348432563,-0.055173853995965944,-0.0016847731708872226,0.11543030621325272,0.1284741818037738,0.15071015637013435,0.7671588861204762
-0.09446876863074953,0.2851170111380375,-0.006658154917913494,0.050706942013093434,0.21265938169393073,0.22895135367557742,0.21987220398094234,0.7979697647772924
-0.0921446497996093,0.29505017548995993,-0.0109597014254193,0.04505646830817236,0.17819026244276567,0.20558818500071982,0.21275222129075733,0.9056959015314402
-0.12556377492485107,0.28540597143387736,-0.04738778277756312,0.009318159226501232,0.15713133543224506,0.17270813974752008,0.18888395336220373,0.8347700235352384
-0.11391760238947325,0.29860630762009355,-0.06495412940057053,-0.01567516194740894,0.10190294643591055,0.09758726988199438,0.12139215563386384,0.7700129014892588
-0.14618496100023154,0.29362277650513585,-0.07804460136900776,-0.03633676547355968,0.08342726003086579,0.0910868337429772,0.08607265284798755,0.8172883113896262
-0.09774625433254615,0.28393789129911556,-0.01443898769909579,0.04350658798613195,0.1809913924789516,0.22011931764085285,0.2388211746781196,0.8056672600478336
-0.07594118881631988,0.27047880051175094,-0.00655840925986742,0.068876518998002,0.20061773891331525,0.24103935355102066,0.25270404431292065,0.8487566446780007
-0.0438225268817541,0.24676754522985347,0.0355526534584181,0.10082600722558584,0.1844721709716251,0.22886748108069618,0.2639227265629018,0.8149650407686839
-0.05719192563851673,0.2447312904392611,0.0069023738197221,0.05404117702017629,0.13528750452637323,0.17257369641064463,0.21269900360701707,0.8994394938513974
-0.1407879987574501,0.28430785170720596,-0.08223713274815697,-0.03930367202880901,0.10447636798779404,0.1280362406011052,0.11596310843302578,0.835816666254569
-0.14918818951679735,0.31992841443608966,-0.06283016514986081,-0.008783456269473352,0.1323979870077896,0.160802091499472,0.17781164570678912,0.8932596978581091
-0.11131748358637876,0.3212947027751037,-0.012230372763867006,0.058694930321230666,0.1923680334203004,0.26121538768503333,0.26992344929619805,0.9268370333250981
-0.10444120814130095,0.32066819834700505,-0.007139704508757869,0.04837925447353063,0.20777466524656665,0.25550197290531335,0.2713335689145546,0.8903113369612372
-0.13063407961879434,0.2998380251876758,-0.034757884967294116,0.006806433457259722,0.1712621581688474,0.19707912959180293,0.23222576508893164,0.855787876593597
-0.1355494338507797,0.30637280350753,-0.06843524543388989,-0.018599168265646632,0.13187865004207724,0.1490293994159546,0.16535004759910438,0.8884160134352259
-0.12487582974401235,0.2679052973140321,-0.05400400393899383,-0.00846419893080204,0.10871148530118496,0.1613770171008031,0.17313067553778413,0.9518322839786473
-0.039656176326254206,0.2486492989820937,0.02128933846309097,0.10581341937127887,0.18916104958514393,0.24666440143697219,0.2727027826074979,0.8869950532221146
-0.04224125116481609,0.21576784109973907,0.03670814031729177,0.11444654399504951,0.201049594606845,0.2397533248956697,0.2616919014374973,0.7722538033517199
-0.062300726830437775,0.2589316024208394,0.031014772947524322,0.08791738355753398,0.17138172352565975,0.1948774789407801,0.2322969771814013,0.8692921482519658
-0.10167339633093793,0.24761591183909304,-0.022992902707021853,0.04777680589797379,0.14151601265712677,0.1415694679863639,0.1492433132627405,0.8873456278470905
-0.10751878440716173,0.23876585887093618,-0.029405359614795106,0.018204655267159572,0.13442887340723778,0.1418824990232557,0.16198172191279817,0.8416126286403501
-0.09783239841049819,0.29078435610500697,-0.0036298991913067354,0.08080814179936872,0.19683038357045282,0.24698707293757097,0.28575679472350596,0.9520379310385378
-0.08427099419556207,0.3149435026886821,0.00835154242883779,0.08386347438961893,0.19021340871106285,0.235614925930526,0.2572691102145538,0.8662281739307748
-0.10522073978809011,0.28975262363565996,-0.01090850499352195,0.06423306910875486,0.17511419427147915,0.21606680063409073,0.22419496850212234,0.8165319851947458
-0.13039737579173843,0.2975213428413654,-0.046044477402746475,0.016240702701993754,0.10971439381531954,0.1355539602019539,0.1769551461336318,0.8842219848292324
-0.1427155934164829,0.2870233773781401,-0.055341188213433895,-0.008800533305139588,0.07601557468102448,0.09662276129330873,0.12749204901982208,0.7922811908129405
-0.09316537325042865,0.28017213594115037,-0.0065394633912312684,0.07421399466994562,0.1752430438896952,0.22987886238687075,0.26319057637207033,0.9551457437035389
-0.07444394843774599,0.3051241237244092,-0.001106792705175471,0.08711814905641017,0.17677863928765386,0.23251057909774311,0.24772704719636723,0.9757136070983385
-0.10429196008738402,0.28114870083269106,-0.0028850414769709264,0.05985468972800855,0.15220212403156125,0.2213773001360781,0.2306024900126615,0.9036748596309292
-0.13833399793474047,0.29043885987578183,-0.04573255793830628,0.009669041769606791,0.14494266022815072,0.16743395991184948,0.1796425103000929,0.9472067817940122
-0.16999740962632368,0.3119889635557577,-0.06409538161317242,-0.014927116942755917,0.12068113701376193,0.11191358197337054,0.13525933943428026,0.869616916848637
-0.07886753697474959,0.28606931046976936,0.02595122937690382,0.10923061698743626,0.18538905762575394,0.22290525669325043,0.269599062773513,0.9721375013794575
-0.03497928297911335,0.27355047601416166,0.06660153546926302,0.1550083668251904,0.2033605298619983,0.2666603008273939,0.2911808875618164,0.8590125189162152
-0.044632990145706174,0.23706419615193294,0.0396045934669057,0.1312466149737843,0.20422220361302867,0.2475296136865447,0.28673366945141926,0.9418418647380372
-0.060571904538499914,0.25079258203825894,0.028945980954392395,0.07658989207146177,0.14894695391984294,0.17854844147425084,0.21280193891586435,0.9156206058422816
-0.1027914084373302,0.27067948827652344,-0.029440978354440376,0.03461035695176293,0.12408647347993192,0.17967374028843403,0.19261335346332967,0.861142196116973
-0.08540762545238377,0.28993209026394845,-0.008152432125195798,0.06707954395977742,0.19930314223472909,0.259153638438113,0.3085520414028184,0.9217670572434637
-0.10460603274250885,0.2619471598883805,-0.009836573980275844,0.05787374832624392,0.17906517332477578,0.24565265103054973,0.2978086381808008,0.8104165284601205
-0.13043928249355774,0.2911105748361919,-0.04867004137181561,0.02059284027036583,0.17218385002226805,0.22408609580644342,0.24898658659767597,0.9407971116543606
-0.15357457735631405,0.300813346879031,-0.07567907269012612,-0.03930608489038682,0.1445429043378779,0.1423307384894872,0.19656007460378574,0.8911431696278646
-0.1466515101385669,0.29879865505024483,-0.0644743112626229,-0.00568882484105022,0.17896029669842758,0.2036480437569072,0.26307093943873416,0.9244127418463759
-0.11679670887293873,0.30070731682590307,-0.04203417733256164,0.032832820672664485,0.21329527068780493,0.2600728899044894,0.31316042972682273,0.9134323000265906
-0.1258130214982675,0.3061831826811344,-0.05519042412080055,0.014006958558009713,0.18473947092695872,0.2469437373910151,0.2827116370184938,0.8824486356282207
-0.14062179303829658,0.2877364651694235,-0.07020872761666566,-0.031126638604127847,0.163636154014504,0.18654936950047127,0.23887622853040677,0.9398915575745487
-0.16401155084949984,0.28494941234537513,-0.11083139860945158,-0.05880732865832247,0.12635337189531543,0.15119209895373192,0.19164861499690658,0.8411953216718178
-0.12031076287432832,0.2759996580599108,-0.051752099889237416,0.002174911977959755,0.19929947032357886,0.2501841442086774,0.2954401041680643,0.8920933987520181
-0.10745439996876396,0.2982183042347331,-0.04972964992419612,0.010855343457260271,0.18587832144246183,0.2572297394309077,0.31121540776939044,0.995994526287144
-0.12685253127330615,0.3231518831327475,-0.05834950344284197,-0.01634273836418494,0.17816912152360215,0.22296147491650106,0.27200485151687226,0.8723061936972147
-0.14167026998120985,0.300447482365166,-0.10504945857754722,-0.04769271262354164,0.1339705186288131,0.171538198135252,0.192079571074774,0.923342186751269
-0.15400870633473088,0.31796390991993106,-0.13490199707578357,-0.06410714928851076,0.10599708417429296,0.14657098686330564,0.16875151396621646,0.9377231209988263
-0.12120930396956985,0.27997387742957747,-0.05360745576039181,0.0019227212574125902,0.20851545176416944,0.25498219882850665,0.2985574742360182,0.8811960082380655
-0.1008641720481532,0.2933673363832859,-0.0451947410650427,0.008373890588763382,0.21167975254011145,0.2759560053677493,0.3139082013969585,0.9459167983730963
-0.11268978102237866,0.3046691997792406,-0.06316953526139091,0.010351530983651115,0.2219453699441639,0.250232601252963,0.2619500466338107,0.9122742733125635
-0.13479583893486458,0.28573865466605275,-0.08382555894153253,-0.04479086298901241,0.15070307244433523,0.18341922516893597,0.2253358996945878,0.8999505385720893
-0.1460694643148179,0.2923395293219726,-0.11130848212191215,-0.07332909611665392,0.0982885054104875,0.1427568428397927,0.15210082032608854,0.8464208162477691
-0.0998097279610745,0.2961544295950401,-0.03841645359755727,0.025297241466993286,0.2106569018478613,0.25958424912654326,0.28312022891772864,0.9662897099536557
-0.0998163081928813,0.2958062003854408,-0.03314288397060883,0.05492517017949024,0.2269791731756114,0.2899019248792876,0.31849964793132013,0.8913590582025763
-0.08415441862473311,0.2615740653328648,-0.04105024696562793,0.028990136604345473,0.2179736573308321,0.2801065370143212,0.29119673412444635,1.0484296644616529
-0.11569774009172773,0.23802945083195937,-0.07403761528538126,-0.010396467279837424,0.20449464541119025,0.22710853743022716,0.21647512737188912,1.05699411873015
-0.12317184333143534,0.27876301128008035,-0.09702189773898949,-0.04836853753621851,0.1547336009607113,0.1724116464951128,0.17504566315841202,1.064157650150669
-0.10899357207145147,0.24467722326315144,-0.051487436495759584,0.020415265240690723,0.23358034226448157,0.2473511705738899,0.26932659142679033,1.0976497756529155
-0.09342428300447053,0.24523181153619147,-0.028690566863758718,0.046565628232384755,0.2548434023532117,0.29935637623188865,0.3010418893122225,1.0956383391080682
-0.10091227249522818,0.2400743179072793,-0.03737069123651328,0.03191494730198295,0.23119038233987518,0.2644211680870552,0.2872646999191374,1.1241386758973542
-0.10337735884148065,0.3004977846463614,-0.057213667742993614,-0.012926924828596795,0.22503602785757465,0.2272546878724353,0.2067606830452597,1.1080077587810975
-0.12580185071418948,0.29504290294182817,-0.07468963626021703,-0.032156078524827644,0.18012689879016688,0.16839524371010536,0.15612670304243523,1.1352618914032668
-0.10006726345484807,0.23439424937003547,-0.04299923944593006,0.01757464884431236,0.21790924997617397,0.23802681699915426,0.22533034846136624,1.0603101765026433
-0.05854078464618041,0.2787820814904217,-0.037400066594921844,0.039798404474771835,0.23545618414446665,0.27264290835865496,0.2533956785889584,1.1163846364846373
-0.01827891071643143,0.2415021903645363,-0.002298665535005037,0.051272202940698,0.21109950227490623,0.2191926225522769,0.22429349545437594,1.2053376136599083
0.010199632541226373,0.21690391072823662,0.007199221863237512,0.022529375450351434,0.1686750623523205,0.1556281277585761,0.14527725719332008,1.1570912347908093
0.004458786602596521,0.24230782742106027,-0.017182270637639285,-0.0133123687086116,0.13141530939339774,0.09599449815297634,0.08097505248112247,1.156444010285539
0.029100226567654496,0.25400596288446853,0.030482233402047677,0.05797635065388033,0.20798698686814268,0.20641617418790376,0.17597957587338892,1.270461922018268
0.05527821399029409,0.24346741722349982,0.05341850453619003,0.07407570062690215,0.22034843106139002,0.21253278945308884,0.17862243300650657,1.2372469549788156
0.06408005816305998,0.2552580087063091,0.051026943491368895,0.06702153703821481,0.16873016830858542,0.18383621810345618,0.18312550887168613,1.2274250754479092
0.02885620364957125,0.2740055901926232,6.176223181323143E-4,0.004748705921767966,0.13178998293879743,0.12804830274077272,0.10378700651681516,1.1784423972474698
-0.021037288672852716,0.2876952536753235,-0.050606696400158836,-0.05107850571521666,0.13301245933740877,0.09113112620687558,0.07015874300605923,1.2279437526154235
0.03598880451060076,0.27783544801211246,0.02557125771678277,0.03714730965621654,0.2198275233360205,0.2007435684016643,0.17560122901817948,1.1817659280271455
0.0655284795879698,0.2795147811346771,0.03484883160097071,0.06842270437090024,0.24550195647910286,0.2533662455981648,0.2467527912785587,1.2326350593550441
0.06312124130887813,0.28114078430065553,0.04497934451274075,0.06086934783963644,0.24799036989911827,0.23465622935483665,0.21790415182555833,1.311587170944184
0.02679289745621686,0.29085765288247367,-0.0013850540619549736,0.01806797911482604,0.18150951268967191,0.19560409764000233,0.16071541135048673,1.256435996650239
0.005124125578922007,0.291006061898486,-0.04244459430026475,-0.042855327418713215,0.13402423624712226,0.10751965278932897,0.08394115747674642,1.2783777717076763
0.03534101792025275,0.29788404780869154,0.0015981634455309575,0.03470346223184808,0.196889846735026,0.19244002685464484,0.1924153791018226,1.2106090754545227
0.04702719276274994,0.26161300139412996,0.03378817359088556,0.08542916906894508,0.25377034295642914,0.2675736262117317,0.2536819342680527,1.278734637511725
0.058355036743729556,0.2791394783306843,0.052825199230574986,0.06514688204691099,0.24591698181208435,0.24318088483189848,0.23422940236533168,1.2088560306099083
0.015634837218328316,0.27367339046934336,-0.008333184280173994,0.018817462497458283,0.19587912025711082,0.18835317118675177,0.20019938399506046,1.23799999425026
-0.009180705438963651,0.2695780474508019,-0.045331120494372934,-0.026599617556769338,0.1600759242870069,0.14337600160428327,0.1333085364222628,1.2256309227458715
-0.02260121338983494,0.3111553948197649,-0.03814462643131833,-0.03196635208794382,0.15759035969192456,0.14016486213086776,0.12969146170837853,1.2532204345590106
0.022705380031494086,0.29098021582075445,0.013331936394390842,0.03678447361529152,0.24473501054508937,0.27230449017011626,0.23846943246000774,1.2473606314652521
0.015819386456605942,0.2884654302367973,0.003348614736260379,0.03412478691594069,0.24125964207588602,0.2500495409092204,0.22920592635173045,1.3081208559352362
-0.009793000054009224,0.2788619238884872,-0.03365017949555813,0.0061761169541450145,0.20489443166476878,0.2246003429041658,0.1901825632361333,1.2486214720968503
-0.02635936703815482,0.28477280020297857,-0.04167265976152897,-0.02778849397965564,0.16597986658172675,0.15501855270692733,0.13331270737441936,1.2512732765904895
0.02138996254179119,0.28985292171588245,-0.01514435238379855,0.033835026315794166,0.19293394428419033,0.18221103599866761,0.1936395255817177,1.107539059633604
0.050448152428153925,0.26081938149756684,0.040491268157936376,0.06621000580136109,0.2440452632469426,0.2785766380155427,0.2617693948967596,1.1708351210220274
0.007145773193440433,0.27308558191325916,-0.01008735933719292,0.0222645402400804,0.25873817194635124,0.26451743294103325,0.24940985514328343,1.138080904297874
-0.0076929401895906024,0.26686752694486027,-0.04607801460751311,-0.010799987270258696,0.19591717753487412,0.21717483565677292,0.2183107206039116,1.1724235139125625
-0.03299312034585231,0.28477747923857205,-0.09074947880475501,-0.06132231256407856,0.17648983346878766,0.1663127208183528,0.14260367118864015,1.1964316233899406
-0.07843001542376517,0.288745578923797,-0.12367197588381977,-0.11525646496318803,0.1383024118473885,0.11808486254234517,0.08169035084111081,1.2176433899190964
-0.00663948934763127,0.27087568649454224,-0.027327769652389332,0.009028137416222952,0.24975944986233606,0.25940840235775553,0.2702466303117512,1.2283236525912173
0.01687549196924996,0.268791825584922,-0.00341022594915201,0.037390237176250465,0.2666561942664969,0.30919795506876746,0.2962635423923807,1.1897232155780828
-0.03698440654727031,0.2894150486008092,-0.02456610382184545,0.010287949971421313,0.25313217941051064,0.28306720337515195,0.29441627387441666,1.165510290643038
-0.06449228550837288,0.2729625439717763,-0.06992066574457606,-0.02940629785813545,0.22915680905537955,0.2361941201766972,0.23164427366084353,1.041111906002028
-0.06929668653173178,0.28850548133862153,-0.08714327245179981,-0.06890333888895338,0.1616767125325531,0.18559620067961552,0.1807198623063763,1.1112456842493068
-0.0543242985434231,0.2525249856879339,-0.07066888072603242,-0.06763522779607246,0.16276473341141784,0.1554999222978856,0.18519716520987092,1.0731242421072928
-0.00568548903183122,0.2518278419274009,-0.01342500281480029,0.037221899093230426,0.2401840893292402,0.301129495674462,0.3059674619888372,1.1088592878095873
-0.002534060753513366,0.262335153028644,-0.021499351961578667,0.017881985457679783,0.26914776586410794,0.2856385914524155,0.29741037538237813,1.1490854451156511
-0.05094406170274577,0.27560771653929184,-0.04418584191159374,-0.02557000557242669,0.22180250198442464,0.2537056701443264,0.27416120760809765,1.154018959469349
-0.06717504169610079,0.27988683614073184,-0.08409740868741633,-0.05960551004003301,0.18227321205130165,0.21237599330745066,0.2293219016431654,1.1163172228901974
-0.09115515861559392,0.28496512268828134,-0.10428628164616206,-0.07554878234438447,0.14690714120846693,0.16283920815143282,0.18768715070803552,1.0850788662044586
-0.03786164568603861,0.250381374377862,-0.027204424864458458,-0.0035842420421102823,0.2317366375569637,0.2756707251163807,0.2834184291092893,1.1030898216912925
-0.04794661147092243,0.26528848082523676,-0.03838987760574502,-0.0020027061293459445,0.24094340551625226,0.26584438491008716,0.28672435437365645,1.1362974206961776
-0.022911323159112037,0.23925472175217602,-0.02959033570328586,0.008137743444757563,0.22455049460563573,0.24020575964885024,0.2543066049215134,1.1300639504037928
-0.006105029333961521,0.22645217225407974,-0.020997685706237067,0.004571899557901561,0.1633501903320405,0.21014648420749263,0.21598861489558527,1.0641676407853973
-0.008210863107543966,0.24263787906464504,-0.021967138604951995,-0.008210713622074086,0.1332371883794726,0.14454089661451477,0.19005230419493735,1.0578243075117761
-0.020287235209069523,0.2464448847337917,-0.00818190925585696,0.043499570435004666,0.2498468918169969,0.2773802651900269,0.31038827701388727,1.1873273265250963
-0.018844993845385696,0.2770289587895463,0.011118972997277519,0.06133024634584612,0.2349488343753892,0.28507613836799556,0.3089125947436818,1.1934640157931438
0.006554603906854167,0.21911701013900262,-0.012086286439458416,0.03283579548192687,0.19766746162701945,0.24579241018777637,0.28257922601350693,1.1073749419533452
-0.0552716322755094,0.25893376250135136,-0.05646574882286861,-0.041162363977678966,0.17877195401209156,0.19079856655041486,0.2026458216575357,1.154682539223825
-0.07462103760646525,0.27178524623482775,-0.09395623538809202,-0.08550963262633562,0.13409477151169116,0.10589075671023013,0.14396750694219368,1.1272401095954072
-0.03369931853065606,0.266447151547298,-0.02510077039716002,0.011834811000119428,0.20213825597494953,0.24117746415469066,0.24224821033206956,1.17088120957996
0.003448027296945868,0.2832111491427213,0.024876594500122612,0.07165918587475503,0.26557413811548364,0.31431845048034635,0.3430040904478387,1.142834418858279
-0.007479511413200246,0.24123026138677908,0.011906249469081085,0.08422663862540018,0.23304179627055482,0.30055859915288247,0.33014277437297235,1.1896979810584751
-0.04210486135942199,0.2749295885394559,-0.008228202382770935,0.04456370917309309,0.18726294336833071,0.251929364177901,0.28214495231581427,1.1658454500564077
-0.06618778783756062,0.278256267693821,-0.039158060448417076,-0.010434163000367386,0.14790365972414696,0.1672124234139272,0.22864002306432202,1.1634277192196867
-0.08606339862133354,0.2827393405843041,-0.03616094609011438,-0.011594568184991596,0.12509508115271442,0.1662571400677724,0.19339053531759068,1.1959838330396513
-0.008201488836426251,0.28045772895757304,0.04431844219574677,0.10836166739424909,0.2537732115113414,0.30169532934446064,0.3594671605769644,1.2326570339129017
-0.008025311623539366,0.3179143252476245,0.07371598381830323,0.12323300758496587,0.24879761146774002,0.3531336968143025,0.37339703281198133,1.1807557540312232
-0.010727688777055171,0.26478991664870666,0.04811481155815399,0.10881205743470572,0.24001713877307693,0.30862418540440445,0.34690126983339287,1.2178707782875062
-0.01911622047856303,0.31106874469670653,0.017275396568719095,0.07391599565492445,0.18853896346729382,0.21929653174676675,0.29036381966738906,1.1397737590369792
-0.08304694914651238,0.30865297386639123,-0.025423328081799076,0.009084466108781192,0.11975421498176536,0.16669655333632807,0.20968763297568213,1.1361646881272054
-0.05878838404404996,0.2898284394843581,-0.004813730518584023,0.0466782304771877,0.1573321685703608,0.21105778360511676,0.25159939400403547,1.2040773811902228
-0.023370626061480732,0.2803286555153093,0.06117974578161959,0.12309549619736229,0.2373759939883416,0.3124756148085145,0.3530563140179157,1.206176730177053
0.0815833743828372,0.2525783862212367,0.1363767849329459,0.23933390992564746,0.24475171324890033,0.32049512241326233,0.3719900412613742,1.1854629481462458
0.05430296409478885,0.27395148327777646,0.07522379624321882,0.15233516386428786,0.22254361472269077,0.2677351025911668,0.30205541614121434,1.2481724663790401
-0.009036110636526644,0.2401012778567829,0.016570995094510994,0.08813714104587508,0.18658378515063326,0.23155901211636187,0.26142802044826957,1.1125026184746865
-0.04592618581075771,0.2902371164726193,-0.019952160036368155,0.030559664820318,0.12889511516334795,0.14912425934393717,0.19085267823685642,1.1715592237875496
0.016265296834187138,0.2961584134641664,0.07491342538968179,0.14730992373098128,0.21246302330984576,0.29642174870242083,0.30681174189381505,1.215859070949725
0.04614390815422792,0.28626577374222667,0.10130283139941576,0.20521995362197648,0.2234186907984571,0.28398212751481544,0.3519639919957777,1.1185262117389159
0.06783214112684656,0.24085935010701442,0.11796931294518392,0.22570210276885502,0.20622385582812197,0.30004237558407243,0.32917084646379596,1.2228554808151393
0.05206198135438483,0.26730203971055466,0.09525044809225301,0.17394921556554002,0.17716630655993285,0.24261915757710326,0.28018483683050993,1.1870782716802277
-0.039605169817198194,0.26539713082045546,0.031666672294012294,0.08520978622524425,0.13593085893031176,0.1802516276483355,0.19945674162096177,1.238545410548908
-0.0033310993802183695,0.2609220311549735,0.06102767702075708,0.1476008460110882,0.18646628191454442,0.24231108955186817,0.2712797091135575,1.2744136491810059
0.016481290494215737,0.28101887004552095,0.10348795031537153,0.20240630710398685,0.2175626300166704,0.2937207198841275,0.33287217124066504,1.2833946671282772
0.015722070777368896,0.295645602197278,0.08700922139131557,0.17417326252723575,0.22305717510474277,0.276669005146397,0.31015148697076506,1.3232192238932654
-0.013545702478421637,0.2851742938611449,0.057481569851521426,0.1295917047701789,0.1480866882142775,0.1867218948370258,0.2204364954152719,1.2141366771894893
0.018303741735776775,0.2032498256116743,0.0837032114534123,0.1593257838840652,0.08892681758751937,0.15838207360217987,0.20310291598256347,1.098739524381133
0.1582987675802561,0.09993527456212559,0.10667732198573689,0.14048208618743865,0.03178364743594612,0.10849644145886538,0.11131554469344332,1.103378866948419
0.20297357872623706,0.10527517608265803,0.15639864260324432,0.1885085110393437,0.1191852929630278,0.17210910487109093,0.1866247629847633,1.1220385542297113
0.2236510402533862,0.10960205583030262,0.15459304711150718,0.18033256365156697,0.11044345201154615,0.17688786679110483,0.17363218661480817,1.0957666616417059
0.1709214086785753,0.11096628931875419,0.09655656982341486,0.12803364179669732,0.10196172130775388,0.1283438582396887,0.14512573736695367,1.0546753195241556
0.1101705977744968,0.108255801132039,0.057215019262369556,0.051774744094932275,0.027237040204901607,0.04790734994515295,0.0540500950519059,1.173240178883232
0.06938553226079154,0.14846142008051438,0.03374868108655493,0.021176543742905965,1.2542323295778804E-4,0.009798906042812324,0.017374446202613043,1.1511151094069751
0.08786524105867421,0.17942194690342086,0.09221468949500469,0.11808415981669947,0.10507901398997523,0.14275313125110695,0.17985877965627362,1.1549408097556835
0.13652268343428653,0.10380222210636611,0.14811327944112485,0.19993199717982063,0.16382983039213914,0.1860484185335708,0.20260237513872312,1.1617781687507238
0.15555090758031176,0.11118824543173035,0.17080419145068668,0.21136697098087773,0.13551463791492707,0.1871082566172166,0.17570124545722762,1.1122556034115572
0.16087752747236445,0.0864192357855351,0.152608251656261,0.180448949777205,0.08778411189580095,0.14003302909166215,0.1323199221651622,1.1245983880101047
0.11614028134927495,0.12980872001739416,0.10551212187253838,0.12219778011757773,0.05912686440592723,0.056095319376527945,0.10015940657412666,1.1545769566097361
0.1036266575991412,0.16628284377366645,0.14835920424791513,0.19260927751198345,0.1386060323700337,0.1850970327897584,0.19690958720334223,1.2375988039502104
0.05572694014957716,0.17250732123856372,0.12580649916683564,0.18955059295197493,0.14650838608801042,0.19110015812374107,0.20740478016863417,1.2757490264770521
0.027034785987671475,0.18469646185301059,0.11155954054759001,0.146977395028552,0.14131756511138585,0.1694431102521328,0.1831608929667546,1.2162331368047778
0.02763041233321307,0.19911133246005958,0.07646339411820001,0.1301392517732541,0.09071917813857425,0.09239617411979785,0.10466654037333151,1.2502123396690707
-0.0117221678269226,0.20222077624555404,0.03357187618421989,0.08806133731461212,0.025784449493054588,0.013710963486984548,0.02015084642685378,1.2524703684243153
0.04300729555266069,0.20024309470997587,0.12890218932160807,0.18849484972854685,0.134941874895632,0.17694771334983272,0.16135531783204737,1.1541230079097275
0.039747938069552305,0.2189795068182781,0.16170784967039234,0.23438682598938781,0.16121663585436516,0.20283083202624097,0.22352996809660597,1.1538683329257988
-0.022189998801148084,0.24692036859445896,0.1548629536742734,0.21972270853418352,0.17704664766793962,0.19954216297334398,0.2270193771081212,1.217669241740316
-0.04188440341605214,0.22300976326859398,0.12205883509583158,0.22624075376299108,0.12355289882534615,0.1637853331146439,0.17878502675533492,1.272392783261994
-0.024905604687843294,0.22801587665577144,0.12915218418344512,0.2139228194839651,0.10405182625187782,0.13089755725574528,0.13983775961088615,1.2520631980489287
-0.07182436395078938,0.2406164328529933,0.08018117781063931,0.18124418218856386,0.1296006961260835,0.14831287906129076,0.15188350357731337,1.3183027576935664
-0.02720739952569039,0.2694404120958207,0.13522506232900863,0.255677287163776,0.2248325738757031,0.2679955355964402,0.27568803934339603,1.3739413894558303
-0.04598908472315463,0.26796141606079676,0.12495841090085974,0.25790762977427323,0.21659317173176157,0.24394403874949724,0.2855123855191923,1.2840201542724659
-0.05794357322270942,0.2639662876358183,0.10584479466306651,0.2277948202311197,0.20450662100531747,0.2323938051107367,0.2536353011388146,1.2568097723563194
-0.05781149668244665,0.28502318995418996,0.07927621411836835,0.17258832235135177,0.16963909381754047,0.18413244310076604,0.1995920874546186,1.2122813627737894
-0.10238560257032997,0.28756403294028343,0.044806397622670004,0.10842544030564479,0.10919583760884662,0.09701701529364226,0.1179894673493034,1.1864398819564117
-0.067641303014628,0.31751217008484073,0.08564193015872089,0.16968326527568606,0.1974053124262874,0.189313520810797,0.16909463846355502,1.2929097469563426
-0.04110476386077622,0.29619503577785794,0.12285004391480313,0.21613092500402123,0.19515226282033551,0.246042487736367,0.25188818472948893,1.289702697986718
-0.055665483584371206,0.3010028493366984,0.1107368739128505,0.2037627309418946,0.20633870938816917,0.22975847075879952,0.23076543367901783,1.2830180310912045
-0.0614415933490344,0.2960052682267168,0.09031517584501682,0.17405764184169709,0.15639741859767387,0.17785125481702946,0.1708402063802715,1.3063670949530723
-0.07121640819226789,0.30026930761709847,0.05258461329078045,0.11106443465674112,0.127795157289105,0.13423275455090747,0.10044381626899627,1.3452906664728257
-0.09894303496985168,0.3130100206551999,0.02301495476997879,0.08609722720906621,0.08016540877283994,0.060791721647714715,0.05187426325722148,1.333105717516314
-0.039575301978292524,0.2818288201932006,0.10023951244022591,0.2009435155237433,0.17879671549341072,0.19275623555103444,0.1935709373117811,1.336928684436896
-0.012060632904487424,0.28455896723144164,0.11509404892779598,0.2249184747286486,0.20765389650972405,0.22943487615065958,0.23130302517312068,1.318087198170615
-0.013828425663536502,0.3115987123316703,0.09726879501419626,0.20088519019636192,0.20676856065437968,0.18883439147429565,0.2188303636153374,1.3623953684088974
-0.052874722134321483,0.3028015588178097,0.05801977109847984,0.1283514910006306,0.1504550249185533,0.13568566672344567,0.16508806402738405,1.2941684463035332
-0.07162726341903375,0.31171645215179944,0.009721210757849362,0.07637343488158863,0.10211428240496988,0.09305102994743479,0.08017096957690277,1.2317390481993151
-0.07007759791326214,0.29467817051322026,0.04336898828905215,0.09829138059368846,0.12511700718703814,0.12516522031544117,0.10771008666377418,1.2838726704571
-0.03398848201727799,0.27182976946563003,0.06559952576185932,0.14262291719319128,0.2015672586593318,0.22638622340920692,0.2119379658510211,1.2579690650141793
-0.03711730989675345,0.2906607525214312,0.07243969741868063,0.14439264800729523,0.18945470232406508,0.18533577328338338,0.19237673216560464,1.2579122472120912
-0.06735816581780284,0.2952678938984371,0.025929924919708358,0.09163069552470819,0.1585238023496281,0.12964018824153886,0.15671503993285932,1.2562258866760547
-0.09747503656529864,0.26916704488791515,-0.005799397813262708,0.04206062140573413,0.07440419499335428,0.09290583839180368,0.08868312349197523,1.2642027196336725
-0.12375792765484339,0.2928977415659082,-0.03697454466148711,0.00942265140126268,0.07560361656049254,0.0645135871441588,0.051688042666101115,1.249938141989887
-0.053929173223942854,0.28191978322425376,0.043580383640155734,0.10363428038683643,0.16312190368294305,0.19908963255634507,0.22913472300035154,1.1895662589261455
-0.05224038180461219,0.29131834373522625,0.04941147894630356,0.12819286308325517,0.19973096571540064,0.24553037937305572,0.25240972693609637,1.306065981563793
-0.06926037141866942,0.28159100090726097,0.0436713253969091,0.09077117480630752,0.16939210629661783,0.20352732514465174,0.2155338584427407,1.3280266713618838
-0.10560299548487133,0.27470111136954917,-0.005181599673271664,0.0378936750948326,0.13211683516781195,0.14963530109973203,0.14882808822841326,1.3791191923335684
-0.14693295306314763,0.2578265205045643,-0.05862837570246725,-0.014238313063190022,0.08107283904344051,0.0770036977118612,0.10233596935566038,1.292866722970851
-0.11942098313822724,0.26610398572385013,-0.022872204251215358,0.037112168183276464,0.1252580198807966,0.12116510116717732,0.13777674326077097,1.3653489927123685
-0.07076368955526502,0.25156361128309335,0.046984293562669956,0.10744149648353189,0.20280127552887078,0.23055095300043432,0.26390148864764273,1.2991444586680303
-0.049299657946471905,0.2677730419127498,0.059890222373855696,0.09812932729635788,0.2072870875257586,0.23692057916389647,0.24375419225509867,1.340504913536805
-0.09277623105261618,0.28826528204978524,0.017199265334697934,0.08260920729501572,0.18814566014073228,0.19611729501064912,0.19899763319826033,1.3646891878687208
-0.1004784513202597,0.2860878536322463,-0.005685854743336467,0.039399505431446664,0.13556991781667288,0.103553288342229,0.1197248475009856,1.2885578162973048
-0.11636160228358147,0.2636338978578526,-0.050689983521142255,-0.013429741246616195,0.0879940531745044,0.0731571357616863,0.0894988353802373,1.285183137247529
-0.07046567364647317,0.2702921816744973,0.005696447137498756,0.08409531158654014,0.16123983879956083,0.20526277819755537,0.19927422288792132,1.3025669655769274
-0.043685031019952386,0.28292563406332316,0.038346295490517095,0.10681913703980321,0.22157150113343965,0.2372070529769476,0.253930417649026,1.2910334655397493
-0.07276838431565609,0.282946830120129,0.0288770691924764,0.0870756657377574,0.20022431269700955,0.22718477896505843,0.23685133954594426,1.3164975698708408
-0.08068577593884713,0.29669529661530086,0.016845051132140382,0.054280130668330144,0.15596749676951496,0.17639330418558558,0.1504536875160284,1.3409188275929536
-0.08120284622267995,0.314790758856665,-0.0025158297921463475,0.03458450574526307,0.12335128631469665,0.12140270863273779,0.11107856261244707,1.2570808463217722
-0.09077719542356219,0.28440113148326995,0.006916824674725262,0.03277232900756321,0.09654751654636982,0.06942438689939831,0.09513728573028271,1.3194104453540807
-0.04759425086318877,0.28528031044011204,0.04675470469246731,0.10824945005862498,0.17803890154309335,0.2114601876670758,0.19920394502178798,1.4272880037445026
-0.0662278810266374,0.31879923521935755,0.03922754008850977,0.09435901609955555,0.16996855368134117,0.19374885325361754,0.20344051530470914,1.3470190491665845
-0.0853962361336097,0.30342695484040444,0.023589783334937706,0.06861375076536218,0.13435296844922795,0.15826456873505587,0.16965030156948133,1.3496958965112813
-0.12448418787320914,0.32924788206836964,-1.8967175086998295E-4,0.03723200328710617,0.10937345966291637,0.13061027191224323,0.11714736020345427,1.3344874945351335
-0.14547226349513848,0.2929447032147462,-0.019736916560444503,0.015291403802105105,0.0950790277272571,0.06900604059718517,0.07679329281941573,1.3451789369461231
-0.10127305924962778,0.2558284742200783,0.01792525391217341,0.062435600658087315,0.15748071416836762,0.13508325443711267,0.10950958666418066,1.4843823457293048
-0.06400914407801366,0.24712566349745715,0.07521566667238877,0.12074266287822602,0.24308765799620768,0.2185842232074765,0.21186390942413572,1.5284326666520287
-0.0525959510830484,0.2592466613288959,0.07508307047816426,0.14605530538488531,0.25134654582340726,0.23318235020654585,0.18597679925909416,1.4422888006889314
-0.07389678022548163,0.2734939377482218,0.04034007375020114,0.10348230386888145,0.19330171139664382,0.14767905161463696,0.13359975627722045,1.341148164056491
-0.11885039046334833,0.27326350401088845,-0.010997574889615848,0.057862474518491344,0.1472367807564844,0.10774891927670785,0.0660706104621289,1.3872277387804115
-0.12437496742527407,0.29415558803651964,-0.030908310838506144,0.022161023629383263,0.1210480680926409,0.07056301648960447,0.04155730994568997,1.3080184407743916
-0.09113915610263079,0.30496954359119105,0.033089230258299886,0.09739226957984995,0.19406071867627772,0.17374220013244351,0.1343485157624855,1.4447168652764022
-0.06772623088063247,0.29028472258918253,0.03253780564998881,0.11239553574105556,0.18850723514068923,0.1650482137447687,0.12163972518035918,1.4099478231899303
-0.07426170431184657,0.28936530582173864,0.026933526007814648,0.09700159701481846,0.16557698271599644,0.133862424021864,0.11771358099397806,1.4147294563660513
-0.1011777031054643,0.30179652153032255,-0.014073637203233838,0.02631795210786454,0.12326107843997273,0.06640113561513768,0.04034591127586927,1.3462653153395001
-0.11083937401931333,0.28815341058306393,-0.0306435887744237,0.017674726707030262,0.08399177180417634,0.035726219630000826,-0.009322362837710827,1.3603128043423784
-0.06875054529995728,0.2812860626480741,0.011643616277289312,0.09291638410470976,0.17764802354001355,0.15558674376694892,0.1139007112311249,1.3936616612048407
-0.060792474498382834,0.30815845972632117,0.011833780884062187,0.08354834150266731,0.16608744458791366,0.13796119687447034,0.1038103411629141,1.3774429639962789
-0.07369055002976334,0.2953289221197451,-8.421132879033186E-4,0.05321598858319974,0.16791650036126948,0.1009129487999805,0.07943138257770756,1.3602958850745839
-0.1123532626055942,0.32842810553802304,-0.04543714829714839,-0.004373819434850022,0.09487441870626102,0.028625716621579502,-0.019290066199667708,1.3638738600442977
-0.15068491228177736,0.33214201995813314,-0.0849911350532117,-0.06190897812211329,0.045389180372792666,-0.04405548801814022,-0.07329790033539986,1.3404214283381668
-0.12619887092176016,0.3096420128754958,-0.054744325147677526,-0.0167278516648284,0.09711089770375533,0.02521842669177437,-0.009995052845058892,1.373287515250904
-0.07519335178781904,0.3207881905750233,0.005070335270667605,0.07913248795031469,0.16862043630581594,0.14976689195221224,0.11970253880337853,1.4488044721403646
-0.08132247307643317,0.2805273865849371,0.00421361510325476,0.06165014622406329,0.18085290787617125,0.16054369546276334,0.11609707098236878,1.4390327413955233
-0.10864927399470363,0.31400718131546834,-0.01719582734552367,0.044084618706384644,0.15821052148674775,0.12951905882260586,0.1065946380469276,1.4228549363181318
-0.135715597057186,0.32531541145711795,-0.050350537461928684,0.021370755208085013,0.13217272998304758,0.06682856461553753,0.046952731410070496,1.4417001248058603
-0.13259264879316063,0.31433515319417216,-0.07120774018921057,-0.016277510378156387,0.09994130246357436,0.035593782936569285,0.028318209331564138,1.3854198143164596
-0.0717428397354619,0.2899081218208083,-0.0021355128152015374,0.08928721016713353,0.20373754091197227,0.20065097295913964,0.17595956994923723,1.3247928919948901
-0.05351512580013524,0.27686981197910276,0.03034225012118941,0.09672854453952233,0.2323894376905755,0.23749843715670094,0.20505861852472632,1.2845968375053567
-0.06032740546134759,0.27542650623002846,0.04274583724505753,0.1076955785413384,0.2146410289541898,0.23447884389754653,0.20791173965003715,1.3794030972833204
-0.04121461880319042,0.28780118831035784,0.05021311901715327,0.10536586241504219,0.17226103920787006,0.162474907251366,0.15651179374727056,1.4242637424117317
-0.06477689174952608,0.28048198946817166,0.01218235113080461,0.07641895035020752,0.13888124566757556,0.09752075977027222,0.09259192356186126,1.3765856939973424
-0.11210259329929992,0.3081974875727968,-0.02729390635755209,0.0410525828051343,0.13211814700176255,0.11583155448964978,0.1032320910333644,1.3259931343816878
-0.0894301874962596,0.33086431368611424,0.027206796072560564,0.11001640305377618,0.2214449201670287,0.2178939420785993,0.21648261793536994,1.3942077235955246
-0.08483234488082493,0.32873315982441126,0.03419336000077761,0.11693499285855033,0.22296799804947615,0.24939826746610227,0.2256725889626477,1.4081090791615525
-0.06896727738968987,0.29907368636191345,0.05849304651438704,0.13586484990923203,0.20974009500701746,0.209886611135436,0.20132308614753466,1.3340610146780836
-0.02054183604577353,0.3113040720698994,0.05309346369635071,0.14236022549851932,0.17253849057561024,0.17828472054055386,0.17079938279509901,1.291670423653806
5.836668301753002E-4,0.27326845521655047,0.0642323844194569,0.12824243818323608,0.15196959821954478,0.13998672481672225,0.14816289585953463,1.3640068187520669
0.04410221442599119,0.25703574089284487,0.1187726684959002,0.19622859824780484,0.23924171895094792,0.27493507882631196,0.2616738495760475,1.4582405092336324
0.018456882090211537,0.28693775896663004,0.08660562274356579,0.1631779856248804,0.2645577281185021,0.29404685365682315,0.3038301785347831,1.4466515870649086
-0.02067541831619781,0.31354669763506,0.037421237731678374,0.1134409216478245,0.22071232604388674,0.25176237205519886,0.24122641883204887,1.4341300479913972
-0.1004232329207525,0.31362901218320166,-0.023084163478171,0.029721786783550565,0.1769167928352608,0.17972605411850487,0.14973537642885482,1.4324711015048044
-0.14267616162964417,0.33649191949506585,-0.07119244176242863,-0.03233008052354444,0.11260332740479073,0.10474235531294088,0.0981217684272729,1.3667636470332343
-0.11921749552641718,0.3462406241230639,-0.029203744257015645,0.02214629759635094,0.14945078204033663,0.1420180473615888,0.15490274200429366,1.4427739863289308
-0.08100750915536854,0.3488736375083415,0.019225919849873555,0.07569517749289639,0.1953213456023831,0.21445568075771831,0.2323325679488387,1.3892074387110838
-0.07974265148614347,0.3623366415887543,0.009825780778977194,0.07915382662584218,0.184699905692652,0.2054418826078255,0.2054087220062329,1.369997915090851
-0.1133077594322053,0.3311078317972988,-0.027530468138550843,0.034953389671324935,0.16145846943446138,0.17211109589392085,0.1555656900374228,1.3123114746621765
-0.1271970072260455,0.3379179616248475,-0.05324665347237518,3.906427604514626E-4,0.1323445579919706,0.13389969187709427,0.11270508503378213,1.4164983121044512
-0.14260744728359007,0.36267073467898836,-0.07486904170778813,-0.03486823897481507,0.09467453231500017,0.0729933048475982,0.04147719585011898,1.4645103100899335
-0.08230387673003298,0.34404977017972677,-0.007879916545805849,0.06114764921258391,0.199220914351064,0.19441559484699744,0.18332569406431956,1.3894897345132855
-0.10575961451366002,0.36419167720618645,0.006457551305885306,0.0732063738224679,0.22258471704731692,0.25028383288592926,0.2321660809004629,1.4455445083858416
-0.1098091667503982,0.3778635009676985,0.03837942197320431,0.11243643121984705,0.26190628036406893,0.3277594873672227,0.30114377811133053,1.4459177571273079
-0.11130101333380928,0.391031449679665,0.045162440393328916,0.13079299648641374,0.24823718691575747,0.3019885612722119,0.3003002491177142,1.2977958577088982
-0.1617399842212326,0.42069205426488765,5.612137089589232E-4,0.05775266858254366,0.18740065161833486,0.19391609517018557,0.17209879928965688,1.3466186442047703
-0.20557643864282626,0.44067798115090184,-0.03469969156940447,0.06465736395802053,0.188627737801399,0.19531870684666536,0.1948231047331735,1.3580406163454748
-0.12857167038922637,0.4027178205969971,0.024031405334232262,0.12642077860307685,0.2250696594093255,0.24363300410593233,0.24300361098924292,1.393663786692969
-0.07971660485996505,0.3574608650930495,0.027457471639582353,0.1328718076812876,0.23482023525486104,0.24412365650504586,0.2249584806909737,1.3917429384088904
-0.09571123781436211,0.37746506563169485,-0.004369026020585443,0.07704513029812088,0.1650305166832435,0.16759074829059406,0.15881706506724408,1.418249494170257
-0.1361491357480077,0.408053990338975,-0.06331305273172816,0.006477118211308257,0.10451593960607108,0.06969139053151564,0.07522683081079523,1.3669917917933525
-0.14454403013600473,0.3647494288832446,-0.08413457737641925,-0.0038632243017273672,0.09863355115717447,0.04209063607988318,0.029828418018239655,1.347313519095287
-0.06850115653201441,0.3530745468556274,-0.015528935537974393,0.08309013518096321,0.18603227366595057,0.17513213564220229,0.16871995746817406,1.4148364597503567
-0.07308687775908242,0.38064391298045186,-0.009971209053051433,0.07548465728262642,0.17461576793603747,0.1738949185121674,0.17196941789269612,1.41587873090393
-0.08354896116376632,0.38311814953297935,-0.015210304633530024,0.045996955782728915,0.15780789015433702,0.16337020720420503,0.13458960760875735,1.4431331229978577
-0.09924233360393461,0.3660900281713743,-0.0518181395797959,0.014334947130570362,0.11652722394503172,0.09541831792811815,0.06013420289803861,1.4928619449184688
-0.10659572331175698,0.33706090359489355,-0.04859359295563912,0.03278225206713645,0.12689076112798076,0.07728032797007592,0.05501855726682434,1.3966887189933412
0.006223069462717831,0.30948825723841733,0.06051955580224278,0.17607873815441888,0.19015206468629167,0.19876986209086944,0.20411836029602898,1.481637029081609
-0.03928502054083676,0.3494563247899596,0.02882413897929511,0.1308596481003357,0.20186983289432708,0.2066175478406004,0.2089917526542001,1.4949992872440143
-0.07089116129044613,0.36759310988117355,-0.00744796066900759,0.07493477986411644,0.18699673498423774,0.17694394052109996,0.1604509877651483,1.4640766916610168
-0.09259829738822456,0.34414004593221187,-0.024997591433086636,0.05210463194004203,0.14002303826998377,0.12344255338057086,0.10994864765153833,1.4050080153310849
-0.09703545753514682,0.3239803212599523,-0.07575503758892221,-0.003181305034747923,0.10156097858983476,0.0672840588247649,0.05676105772192404,1.400491408843389
-0.03734074632372484,0.33194188027714383,0.007790692042435795,0.10374179744298838,0.20808864191155924,0.20225396794331268,0.1981942740721737,1.5081216866228941
-0.008116848269261675,0.3085074309450637,0.05653575068173984,0.15494822195209104,0.2515944770491779,0.2586673022572925,0.25998434581997987,1.4402484683746133
0.025101382938279525,0.3057891066677078,0.09705989172501124,0.1883777750870251,0.2315177250997113,0.2774710608173721,0.2814191272077046,1.4250954244964564
0.02655575275448543,0.267242058968319,0.0674985777688819,0.16170038398458053,0.19513839649498063,0.220999475081882,0.19927207950605758,1.5690007083605035
-0.028915777759004335,0.2827271136098021,0.01143033342206132,0.05988242540503953,0.14960171485048493,0.1269493867447039,0.12880141057629485,1.3497968928379023
-0.066809494752478,0.26777208285407955,0.00675570659800787,0.0930802982212216,0.16119793098588264,0.15141528310862992,0.1501475380072631,1.3738410956453468
0.004677428762171232,0.268822370773475,0.05457955489920841,0.16480775991033883,0.2508166438142539,0.24509562695826445,0.2620697791266135,1.404325550438772
-0.016526300239660712,0.28604598020944166,0.05227149413426606,0.17460913049045992,0.25117361249508896,0.2529439067684207,0.26500445552925084,1.4421528231466372
-0.037817540634303884,0.3203730227996712,0.025125059795788787,0.10839755731076035,0.1588761499470502,0.18794408281350933,0.17444455892315341,1.3350980635484375
-0.08462708813228642,0.3337684528202693,-0.01961359734701738,0.04014088276217791,0.11942046553297735,0.10879811466264099,0.12469899625899822,1.298687757651532
-0.07908122504004764,0.3012474391530834,7.041640385216904E-4,0.0859003627474963,0.15658565757643703,0.17017238218891678,0.1429625936648313,1.363116469199315
0.017531482961982425,0.2913270405381903,0.0994385603498679,0.20044841176239203,0.2182831137454548,0.23511425512617887,0.23129183169716155,1.3333137391547374
0.02990327529681877,0.28932698766954645,0.0822439315133169,0.18828385717511606,0.20226100390769428,0.243199709871208,0.23812155617849046,1.396765306697612
-0.06590248783081533,0.3206477542236199,0.0015284766994184606,0.07971425491211856,0.13924779649764663,0.1561318598079723,0.1469386785293366,1.4623438024538082
-0.1099121777368443,0.3259244944208601,-0.05134674239661487,0.022537816365529602,0.10657085539424097,0.10533723977524766,0.09869551394888759,1.4312774639097197
-0.07646453864828029,0.3142006981044543,-0.013485637950417012,0.06507744227005041,0.13640365846199393,0.1532266873841002,0.13885519892071807,1.3814387515369637
-0.03791513339537266,0.32250751961305996,0.05054035843025009,0.13342226295211315,0.21521891823444805,0.232405676401603,0.2453782113399777,1.3997492758803491
-0.024609195060575313,0.29478592654099356,0.05539729003829792,0.1374476796778694,0.20971474852835353,0.23944119573686004,0.26000371016384793,1.4191370604837596
-0.050038674943986006,0.3334322026671588,0.022789385828271565,0.10489376640260768,0.19576591042510427,0.22122022164042215,0.19281820897990232,1.4330479985486158
-0.0777617713422062,0.34306161418372577,-0.022698061611284726,0.044019759391531736,0.13865708671746796,0.15399024498949532,0.14007954032155237,1.5370903099769162
-0.08738477917803693,0.3185286887837762,-0.0031325335607472627,0.06775145379015585,0.11460561613880281,0.1740170896129232,0.15237860241579593,1.3741776345978596
-0.009153489542157112,0.3250692469768263,0.08908766985824106,0.1757890507343831,0.22413025083920887,0.3027092455049896,0.29664051850838363,1.3799734736251512
0.003754391296327386,0.3351663266977995,0.10780266701309599,0.19895591268913876,0.2542107172651921,0.3166427780312204,0.3141545839283871,1.5003611975235416
0.010711480168298424,0.31179872557912014,0.11433477949449258,0.19253266122345197,0.24354630682652215,0.29160057925208205,0.29551271782569416,1.5008637797918531
-0.011880498762001727,0.31691073357910626,0.09026171911908523,0.1650625067812967,0.21040813142437967,0.2368051322143418,0.23204362056085726,1.5057059401702453
-0.04914560989263001,0.3172388758438872,0.04839850178324199,0.10369591804779761,0.1516993298101244,0.19091230205363835,0.19857739609299552,1.3719060634376932
-0.012512838563734743,0.31597990986921654,0.12202978769285834,0.19934131345006664,0.27075268190793184,0.3360749627404012,0.3517922112996882,1.4684413458147487
0.019870601669340807,0.3281866109222163,0.14808439584339417,0.24777355673095053,0.2949251030435764,0.38021642901107544,0.3970830349337205,1.5193753559872034
0.019143797184664548,0.34183244738168883,0.14430585414725539,0.245300281798575,0.2916758578938912,0.36567422359501417,0.37398323267060285,1.457875131218402
-0.015168570864748772,0.31737638584668426,0.10344925335979445,0.20265105645729395,0.24161019683239215,0.29993395176518717,0.3098301446443314,1.4754708036276554
-0.06250548922055274,0.3360401800352747,0.06590764112457723,0.14657965967125122,0.18625648114970558,0.2432859867134088,0.23347719595305372,1.4893666844376856
-0.03071170888871464,0.2984439885950761,0.10242618956101927,0.1994051046588677,0.19017323803847805,0.21739246524321343,0.2220544510586621,1.5712990984217716
0.04946357668234874,0.29040694197335526,0.18294830011732033,0.302995654226175,0.29098529588211497,0.3788947302570905,0.4029393676485973,1.4350284900862162
-4.1305407713532405E-4,0.35284681290645076,0.1933395796365097,0.2894199705083576,0.340995474890833,0.38823505605766623,0.41880369632464254,1.5320376796780746
-0.03648318021754214,0.34004664049463074,0.15848111827238642,0.2555085596995338,0.277014212797657,0.3557988837788418,0.35418257340388726,1.4678179595608478
-0.044488278193575655,0.36380832962210197,0.1407151852295928,0.2251565838480091,0.22891790595148148,0.28155891767320906,0.30047653754916653,1.423342491339603
-0.06829496640515023,0.3390455028862631,0.0871603687909867,0.17595924725565912,0.18664396226371968,0.23344061994782822,0.20552076481966788,1.4787102436255013
-0.034343444284645336,0.3344209500349613,0.12382240031384756,0.22043009139166586,0.18042502029299012,0.2619435876599536,0.25009023391911456,1.468782142177417
0.03277985943641203,0.3104181103579901,0.1940847793043116,0.30845831474362273,0.3051299007991007,0.3418021448796726,0.3699888062738095,1.4698395115358378
0.03208535757132335,0.34156435730080437,0.18476304554224857,0.30678404181835595,0.2727504300387354,0.3731939357325371,0.37412911283526556,1.4701302985719755
-2.4332239416656722E-4,0.3429916534265649,0.15494919992349718,0.26149325030052983,0.249722632605338,0.3026396138199813,0.313429989209766,1.5839987551399617
-0.04134019712893721,0.33098525087971703,0.10483869149755082,0.19621794006606424,0.18666092761991207,0.24762579945353907,0.2536933757504103,1.4428122778348254
-0.07268081623717988,0.34383072638024265,0.05080811510413912,0.14383553839845745,0.13533457540072605,0.1608201092163155,0.168924644633815,1.559647964314292
-0.0748422514860248,0.3452173048181625,0.06108012419807472,0.16189186462632088,0.14557076021539375,0.18448386468934766,0.20470211815301312,1.4631025973968725
-0.014577977451465704,0.3273013627705609,0.1141536108124759,0.24338630473455772,0.25112789670388264,0.3037882412126892,0.306550688571874,1.4490831976861114
-0.012785834972323789,0.34541782500384727,0.11187058485063299,0.24057184826073325,0.22438785478899087,0.31851643262986734,0.29953048779263197,1.5219877660598424
-0.04352579596344082,0.3729395830597639,0.07640888646498598,0.1860516116656372,0.19155454563283966,0.2587407277319935,0.23800298107274842,1.6535969053493766
-0.07640836435724248,0.36823580728513294,0.04400709045793646,0.1298921952612389,0.16644440858831955,0.19169974068084192,0.19138222248352516,1.5425213952016261
-0.11571131239181118,0.3714011255655351,0.009118049453886872,0.07681897980011,0.09474740685027751,0.11249571376728441,0.10085547445617607,1.3573050518176981
-0.09781573537301555,0.3451767993118449,0.023762019766665244,0.11595704100704016,0.13506604505015452,0.15268137587900524,0.1648722363868559,1.503493472292669
-0.04473394701099723,0.32711099341871575,0.0643772711778871,0.17767824123970324,0.20347057862170273,0.24038708161218697,0.2565799712874153,1.602032390472387
-0.05738202549628059,0.350827592157103,0.06471143232760691,0.16287501487380618,0.1888023580615303,0.2210060028503079,0.25554040647365056,1.4974250706290397
-0.08348425815507783,0.37183760236950564,0.03525508887427758,0.11988458439815411,0.15405095126601626,0.1987756315486424,0.17226440345914845,1.4559278539756846
-0.12615646533413255,0.3781744069690459,0.00267359685864027,0.05938343059163202,0.10906386145970688,0.13119808527413135,0.1126334789906299,1.4177243084228472
-0.1615739916291796,0.41099937891547056,-0.05551713190313231,0.01212725571743109,0.05772102536909038,0.08296105823633215,0.06820766972203535,1.4245351660990277
-0.12087557435253235,0.3919715715901597,0.009680265676758028,0.08775779485238455,0.13059717454958275,0.1534007594379268,0.1880638051384483,1.4498402057072393
-0.11210956258015341,0.3950927550775214,0.010089000759118984,0.08670120436133807,0.16438111004258796,0.19452087828699471,0.18835583518337992,1.5883395891186298
-0.12818551530627725,0.3629100644880118,-0.007290967990906776,0.07664643161193196,0.1315952216678824,0.1610693689571276,0.16809611876042435,1.53257456229813
-0.16243714942273263,0.36594906574873964,-0.0324145966057054,0.010700829144989698,0.06147386817574514,0.1044212113276754,0.08470235281381414,1.5240526323561627
-0.1944820709443899,0.39769408693530006,-0.08505766979769727,-0.043951332662587994,0.0516325659067165,0.04963597448769338,0.026658695784704117,1.5062908884955688
-0.17718531613672553,0.38588389406977874,-0.06152532991879279,-0.012290120088849147,0.042675314183248436,0.052340270657135625,0.06196496295077065,1.4743415568385305
-0.09705496723800558,0.3910242489241531,0.012877524815674965,0.08613423708398252,0.1559147877588494,0.20397923070206267,0.1918178441542511,1.4429577930195345
-0.052733676766565034,0.3560333026390589,0.05702392629760525,0.13615309735526648,0.17097549215381264,0.1823489675134163,0.17165040334886109,1.4381613587429445
-0.060099428423543974,0.3541521256977405,0.06068171856962819,0.10681548921843252,0.1123828220530737,0.14123941975738097,0.1651156202311428,1.556169386879133
-0.09205569457448812,0.35500887375841034,0.0029031705644270048,0.04452516308432888,0.09481811605190263,0.08083644883946241,0.0846794074151944,1.4553865787514328
-0.1282009383045502,0.3406247187251233,-0.03269376612019628,0.02280774265503587,0.05529460319566192,0.04626522099501009,0.05133755820629715,1.526701373351985
-0.0875749060195656,0.3540984823945259,0.040883514191418,0.10573750572642354,0.16639315234916702,0.19104568228079122,0.19478598107472347,1.5357358163263042
-0.08104899622043239,0.36668441137905394,0.05976324099713519,0.12159062245919368,0.19544963265137416,0.19103075148733195,0.2106089722261444,1.5188012650867895
-0.08193731152108538,0.3583059682935467,0.04478729218476733,0.11300143367951389,0.16374207403191687,0.16668445993602032,0.1690356022739238,1.494848092197528
-0.11678118714318933,0.38328934801990233,0.001591478266266788,0.05816169228942164,0.10739757442603673,0.11675285968499385,0.14662130509630691,1.453808796937627
-0.11002800564734273,0.38284760622623515,0.007553354995189563,0.07195344409929683,0.12882141978905656,0.15242881485728446,0.13753676840165768,1.489694193714707
-0.0687821368267073,0.3868349375701354,0.07535589575205666,0.14295000267291522,0.2181308437068537,0.24702201656749123,0.24345945003376737,1.5280742921335118
-0.05950948431382515,0.3966479678904967,0.07212064190653057,0.1558545177000701,0.17946628917067736,0.24358488382473736,0.2536639483320672,1.5446905578582364
-0.07861613262157152,0.4052924746484734,0.05834041559973687,0.13328024740163852,0.19973277298060776,0.23184740428807382,0.2213407758506773,1.5587626859199801
-0.0919868420969002,0.390557876234415,0.027890369181271107,0.09657243201038905,0.1602234582157886,0.17266109686611855,0.1593281034658632,1.4938183318305553
-0.05295881816043041,0.3966224027503861,0.07573050324132158,0.17381103950850202,0.21716322166051982,0.2494685200576175,0.25017862354567977,1.5295680422992592
-0.033729321648728786,0.3676308967772609,0.09976137487181787,0.20740776416477627,0.24784312094483057,0.2730495365669381,0.26734851375530505,1.5248879295348576
-0.043608245830817856,0.3877368954901755,0.1013377066464719,0.19393272624436164,0.21908653024721936,0.2615683352785117,0.24837433702275932,1.4954254194578862
-0.058316535629166014,0.41507135326985595,0.0736239819328921,0.14670122319096296,0.19838443678300585,0.21158208838571693,0.1890388009169153,1.5169877807297818
-0.08141901379262503,0.4095875463745786,0.06401651421491047,0.131177824095642,0.16328301380880506,0.1768257771576947,0.14751712975187775,1.5537901636546994
-0.03982592766637603,0.3971041796444995,0.10808800411158244,0.21692597024283686,0.24570805608427657,0.28538340752473446,0.2753410855010685,1.6341404213764097
-0.043971559333104544,0.4068362543610131,0.10209828378555798,0.2191431110243857,0.2463199511480892,0.27786043463298055,0.24346276068051498,1.599374183107102
-0.05561606670632082,0.4087670309997598,0.09346951673936267,0.1981786046467998,0.23324933047471863,0.25903767451962967,0.23456969788185184,1.7095020260151403
-0.0848193078553004,0.42631691909632546,0.06575045023966455,0.1576087603261922,0.18534378944306537,0.21506546301900922,0.16589770552985392,1.5360293642574385
-0.06442565537038095,0.42089652956829804,0.07161260194394535,0.16132818380635258,0.20087195864321494,0.19521709357644013,0.1783231991498745,1.551719529460587
-0.026414376970477275,0.4083173944104705,0.11672806445422827,0.23846099238428078,0.2629294028117085,0.2797499450109768,0.26769921443665456,1.6459638255859805
-0.033645522754565386,0.4124721944278309,0.11200096085116144,0.207288787180382,0.2454139207629003,0.28214764596011965,0.23606499294457314,1.6050491570219096
-0.05891563373846901,0.43206283763641,0.0771040160947502,0.178187987285121,0.21137243888724644,0.22284093048254383,0.19593675659666793,1.5321373445806348
-0.09786734447851411,0.43645738804345685,0.04220969955634514,0.13084035452647777,0.17594535020418206,0.15688846905067658,0.14459385437720482,1.4485719898811789
-0.07518207277076751,0.44792250480972523,0.06467154585973803,0.1657407417499104,0.1914505060883289,0.2043788683767059,0.17962290249135368,1.6052273161496253
-0.028142933856228368,0.4122147678062605,0.10657866089446681,0.22021943584419745,0.2663206345478205,0.265538365474876,0.2665870044210875,1.494701713474618
-0.04137936832449605,0.4245306988668689,0.09918303663186832,0.19151779377792524,0.23289689241566816,0.2808227584194201,0.27286025957004467,1.5514769579978835
-0.06580302572602226,0.42781441036105555,0.07154800629357704,0.1624488951126464,0.22261913360003832,0.23206633715289549,0.19031090436784587,1.5398792373552084
-0.08850590783727542,0.4254011797437692,0.027368853379768077,0.10516786634649612,0.1821531480936593,0.16721237940666916,0.14961536425665178,1.5586459106184862
-0.08356606941236587,0.4088975770717145,0.04875859139916881,0.1247760656643911,0.1918211681795715,0.1863940940369368,0.17235728397548702,1.548390268282524
-0.03992829709580699,0.41827519698005444,0.09173225750077033,0.1882454138337955,0.2337071770772628,0.2585511710644772,0.260599887482696,1.5771535450185121
-0.04753708282801739,0.4188677850072266,0.08445636128259136,0.170749438715939,0.23209600581109052,0.26313134880302746,0.23940228018281018,1.553996849992411
-0.07424460331328896,0.40740622253294745,0.048707061667316254,0.13663406433439984,0.20191180816668725,0.21609236354512418,0.21111870964753984,1.5902270529644946
-0.11102474081375786,0.4165926600602131,0.010501221997982594,0.09202530028866547,0.17224454203998105,0.15595017927046392,0.13081848355164363,1.466347753914897
-0.105808335930169,0.411139302026514,0.01074549867521658,0.08643178274858876,0.17294530283330706,0.17342331037426512,0.14524585361306153,1.639021180008553
-0.06380854861081428,0.39680470983999594,0.06064886237980577,0.15051271319564272,0.23322451466026234,0.27621568829080356,0.26918928170986633,1.5284608332408751
-0.05858556892352981,0.3964246007546384,0.06241226582349987,0.1458736321555225,0.24359026787963545,0.24669616836941066,0.22832730144556912,1.5946329605101774
-0.08324421970395328,0.39430575944950924,0.0291547551798993,0.11401410931955706,0.21771136547114822,0.19407702487933948,0.202544635055139,1.6615303232729761
-0.10492112423673307,0.41238681831735374,8.566890585559829E-4,0.05510744563997549,0.16655028793879095,0.1640032405364197,0.12696684470483247,1.4805589699426607
-0.10042232153169679,0.40281371855740344,0.012367847715881708,0.08799570278732392,0.17376619527270065,0.17958182508720294,0.17443610783417512,1.5238584865174671
-0.07697225624512972,0.42130654996617617,0.05759080050575813,0.1261347242867814,0.22367056115931594,0.2605930313227627,0.23782872249910453,1.5104271573938814
-0.07302272828335668,0.40796356901524683,0.04187340338844208,0.12165711133476632,0.23419311495524298,0.2415386684515145,0.22620868025280755,1.5183385405949215
-0.08761659322054001,0.4264835268915115,0.009432316789102772,0.08186719938083581,0.1818232071917679,0.20200758167760086,0.17177431294715836,1.6159943128952952
-0.11540041104857915,0.41970981475288854,-0.010685565063665836,0.043223457442825845,0.1316150349500931,0.16397246292867215,0.12732590896304574,1.6044435813573528
-0.11538460068478895,0.42642888518072625,0.007324765082337958,0.05494249407970681,0.13613103894156744,0.14969546337980463,0.15161385789203505,1.6204438990185308
-0.06788417553529943,0.3892660816315196,0.06146034288031502,0.13531904090818592,0.2250584247519992,0.27014214989801855,0.263611097535074,1.5240904891094016
-0.05932728658886205,0.4041115081261574,0.062282286874201315,0.13066858294304753,0.22612832133461552,0.27287190957827756,0.2611392593304794,1.5613564829089555
-0.07327666155451124,0.41918057604238806,0.032112770473699585,0.11248712107379898,0.21905777900574402,0.22935930802689833,0.21208799569469985,1.5932522231865964
-0.09449828189665173,0.414868831798979,0.0011976300209300705,0.07215943805080371,0.16094395341177728,0.18045513984635111,0.15159628504947076,1.5407362430512637
-0.0908897823376593,0.3923879716802559,0.007334956001826492,0.07950142985493752,0.16309017918209254,0.18275069729581891,0.1610756296851043,1.5270657610972884
-0.04077447780524502,0.39825633804754973,0.054543479124293706,0.15947834466614122,0.24550218277288363,0.29221795696902164,0.273931815036208,1.5846664064658702
-0.03904684009625878,0.43042392191248524,0.07215832918768056,0.16432063711409675,0.25648715370463415,0.28348574600152526,0.27690487256978086,1.6822415643861512
-0.06442741524734222,0.41372980237733875,0.04484470149784768,0.13329429274030194,0.2111284004266763,0.2705462856509729,0.2529598523652231,1.6448142408348085
-0.09031349801760281,0.42491114092084736,0.01665589576070748,0.09861788143850166,0.19614225212078065,0.18339624828720116,0.18200353526063293,1.5638594372071593
-0.08711149853514856,0.41943362903060855,0.022851190661516484,0.10785799082821272,0.185007260621478,0.2314541635868099,0.18586702241623515,1.6089572990261394
-0.02961959587409063,0.3969602264257202,0.08612377377177527,0.19141811919668167,0.26548286927922465,0.3277246908312999,0.3193152583585396,1.4377575059710024
-0.029412685872639233,0.4098642038925869,0.09099354358941103,0.1996059041152431,0.2913506654435188,0.32353739728785835,0.32014409755292134,1.649075452639059
-0.04297826035036995,0.41572610689711365,0.08186265545163746,0.1791495983149719,0.25466685121051325,0.29284724990946853,0.3033090769561436,1.5189130370221526
-0.07473397377612713,0.4073289145298451,0.05322924846937161,0.12714162203836896,0.19267099293167933,0.23252932479035943,0.23383230436248711,1.5329592172057251
-0.08900525044136287,0.4190773014777412,0.021026759745550037,0.09379057242587002,0.19280973822218095,0.2165730245859591,0.19591008921581746,1.642539968379656
-0.04087569978100013,0.4191898750180466,0.09498650059221538,0.209032858946311,0.2550721703521245,0.3206377464735382,0.33469731059102475,1.7051940329528272
-0.016891881890557556,0.3997121151495745,0.12154931429275832,0.21868570519399638,0.29673464218038215,0.329412510528887,0.34411703638412067,1.622013804247045
-0.023415067601548215,0.4126884955113592,0.09604878369688821,0.20598722716527812,0.2659351669743756,0.3085090176014099,0.31394439421079917,1.7653097213140514
-0.05318326645849791,0.41674525600155626,0.07891365097638103,0.1550277638117933,0.2243521656234781,0.26844305283080994,0.24374469583371025,1.7011179439844752
-0.08392285022798286,0.3958745398193733,0.04515212313938828,0.13600366142333373,0.17160382945169764,0.20485800413693964,0.21646230771388086,1.585222890246763
-0.04014097604322561,0.4062647301461091,0.11122479696630225,0.21295316130969583,0.2740955648945686,0.3503337551724356,0.32830136411745164,1.5992867036655996
-0.017280593162193096,0.4211972685487896,0.12209129568023964,0.22249271189900074,0.28985069001100155,0.3600219162403324,0.3413955389003074,1.5175132223890648
-0.03424251508282912,0.41472519695250387,0.09629047109511818,0.19181568184051795,0.2421803678004253,0.32648318066577975,0.32097970410581006,1.5736922656601071
-0.06095460531762026,0.40433951683010694,0.06758733577660832,0.15457828638230883,0.23173022359786707,0.2768281628699753,0.2524001126936652,1.6980621646557204
-0.10563262818513995,0.41847354854272295,0.012778563334223551,0.09973337707819376,0.20097288503813568,0.20844906241860078,0.19377764555941404,1.6104054728469523
-0.05574254853756328,0.4177955523471909,0.06519686126629969,0.18349660507702592,0.24567916450242736,0.30689873461430617,0.29987135463279474,1.6162917403771124
-0.023708292831991724,0.42853064029535226,0.09583930752927601,0.22334880495800494,0.3000373865178364,0.3807715450684168,0.36191936154917526,1.6388130599370088
-0.051760363176232456,0.39994410912459116,0.09776425695406725,0.1937489547921523,0.25086963050465866,0.365943826900238,0.3421036650516472,1.6367176266831398
-0.061983822302324326,0.4216703324302319,0.05685380335972576,0.14306361563939743,0.24649897423029932,0.3056148829883116,0.3039454117702162,1.5661677022880702
-0.0945618688015128,0.4381309085242207,0.013228619201320624,0.10194970471282824,0.21182187181500964,0.25188035137237674,0.25476652832887703,1.5622287425322428
-0.09232239309398686,0.42824261172090966,0.017980507435087674,0.1260194423225981,0.20235714948739333,0.2681485470472545,0.25896255737909835,1.5727033957194818
-0.06264603780980724,0.40876572526317306,0.07553432974982922,0.19225255930280882,0.27040828784786375,0.35179894968369846,0.36956554433944894,1.5228924038000013
-0.05756708860024913,0.4397039058798862,0.06519092202345086,0.1963598438837871,0.27627460770295414,0.3479442656568827,0.35362470455554545,1.6814685262353444
-0.06925855660590777,0.42293719305419836,0.05611427520733264,0.16165013113434962,0.22728693586717824,0.31021506780255637,0.332791213370864,1.6444398147849406
-0.10333100451528877,0.43177848003812325,0.02694251842356987,0.10114049650316871,0.23123090822666154,0.2856739439856842,0.279072046674374,1.6708712026650732
-0.07970903315558404,0.4284512844727788,0.03275499644971487,0.13216330006730975,0.23872114956761611,0.3129418322308071,0.31994279204711135,1.639308760066467
-0.04883082642982927,0.4265305078606917,0.08181666839082155,0.1937916441381496,0.3027355036933923,0.3791847604426585,0.38484806969049856,1.5769408525854958
-0.05026286138035231,0.44018981817044955,0.076857533341655,0.17743154333370267,0.2768749455213761,0.3622324746060955,0.3830183086301954,1.5237665321559521
-0.07318712438850204,0.42254575276718465,0.04277171466222449,0.13729907594040328,0.2671278956302825,0.31600544192227814,0.3295079729884264,1.5141311524075767
-0.10394539583586786,0.43747160512916683,0.013391320968362368,0.10908574304587933,0.23100821323155488,0.2711098349553478,0.2712154184744542,1.6140358396336578
-0.08074041855629155,0.4249455193114505,0.03305411629106688,0.13240656629782374,0.2287578428687714,0.3016094365723053,0.3202404395283613,1.5992667017790578
-0.04176419018136622,0.42334336955752616,0.07932403429636849,0.21900744768566444,0.29047552623223283,0.39105297479765583,0.42278136163076047,1.7020615838421846
-0.0672384156189364,0.4372717383114565,0.08498716846772159,0.19596870357176158,0.3112297588457451,0.38169379646610435,0.4228100575759492,1.72131580324238
-0.08733735420910861,0.4104217608655897,0.0731331268101071,0.15001749920309781,0.2764069673823746,0.3346278682615214,0.3814341379566951,1.7357064968158658
-0.14719126151302372,0.4445936325400232,0.01839164707682645,0.10478799811755125,0.22978208016869026,0.29349707965757843,0.3275411439432912,1.5841913988104157
-0.1178874675241615,0.4567107158126397,0.03484917210271383,0.15578146151015776,0.2445395748589949,0.3488216457985121,0.3683924675584062,1.5814249838890113
-0.07853603346022539,0.4522063230181498,0.10442177529573947,0.21745416488254793,0.33313168108120844,0.4282444352722667,0.4477058611405682,1.5733332812720833
-0.0832912022887777,0.45859447906142553,0.08687139667429804,0.22950456862153523,0.3374155318391278,0.44161273846636656,0.46078852201870235,1.5122066245152705
-0.09335002468127966,0.44036057644195453,0.07643681543559909,0.1917003139736846,0.3103217619581728,0.38937899235728024,0.4196884682108958,1.566323270003623
-0.11871688303346019,0.45475281379273574,0.046541139110156476,0.1532044526167078,0.22853125951678283,0.31758505243024066,0.37328966851422934,1.566836423647072
-0.10061431601772484,0.44849062156926145,0.07353470121978056,0.18288067405916372,0.2556110163431528,0.3830772091410617,0.4242823774115556,1.7584024192451149
-0.056231846703595295,0.4238479413109031,0.12879420669131914,0.2670689916802699,0.33611488973237963,0.4587747678495587,0.5020248576748836,1.7169631377489063
-0.048600721859995845,0.4130896425114836,0.12035321761060856,0.26374594783718025,0.3270493704354191,0.47339740267574587,0.4981864648371866,1.72640017711928
-0.0790879183277201,0.45599643579532506,0.10048351949378592,0.22051221316269257,0.28135875851604464,0.4215909870241229,0.44726105400644806,1.5451092223224279
-0.10769664311253095,0.4449151161861916,0.05660618957982719,0.18231685548198773,0.26398584806261816,0.3723691902840336,0.40170556576918226,1.6820677360755176
-0.11054784062230945,0.44500329553459284,0.06292381890779446,0.1698097381406194,0.24356796680137136,0.3359748630257738,0.3770781315822049,1.5880963858297803
-0.0924048061028648,0.436332713988672,0.10482517450254222,0.24855541494631458,0.3356423218718592,0.5026853792713574,0.5072758335445388,1.5777348390447514
-0.08307031022223732,0.45701780092155353,0.12902582659583903,0.269159955909635,0.32382582186663805,0.4790533380160601,0.5078292806443859,1.6329383930259103
-0.09826317824084022,0.45845046921436455,0.10244143918836482,0.23763121784717564,0.2814789340643379,0.4366245581090251,0.47905427864271977,1.7521624313770634
-0.13192451681563394,0.4705960308279897,0.06967154791910973,0.2055115248562623,0.26652731576979927,0.37269635607705703,0.4196057684658059,1.7109067899868076
-0.13438249699359145,0.4613973857584018,0.05502757486304917,0.17309839685918313,0.249306922867547,0.3397016516776675,0.36106727850205184,1.7200233501230333
-0.09095586717560777,0.46924454172692853,0.10416463407433081,0.25834887044726007,0.3575616435298121,0.4354117261769909,0.48317744767752197,1.6310435550362188
-0.08700861896168663,0.4696743740249447,0.1284946584133546,0.24998064073312953,0.34567526604547655,0.45726098972753226,0.4992813199405625,1.6759727140260856
-0.08602011919265563,0.46580593522142594,0.11944117554313158,0.23141574242053842,0.31435955953576117,0.43166129132836806,0.4703838733980011,1.68642741564819
-0.12144801608774117,0.4611082491957382,0.07735555983191165,0.1990580294428944,0.25664735032714664,0.3546178659394089,0.4009851195715937,1.5734952120635004
-0.13865922496810423,0.4713172256323369,0.061328330281231816,0.17312232586722193,0.2234340493207099,0.3090968258920728,0.3413610814471175,1.631423236096478
-0.08407092102075195,0.448122422224614,0.12062562624490145,0.26555199187717565,0.2805822016421329,0.42622027815850916,0.4591629651553487,1.622587101672271
-0.07119449173780786,0.47127233421043685,0.1266624962137862,0.2809557118316128,0.32859297192552567,0.44145520858785564,0.48436551351040463,1.7252033635581485
-0.08882755627682411,0.45008381696908145,0.12315927143682338,0.2533921029441437,0.31058851785145547,0.4347660050064076,0.4751880926045009,1.7088989620590709
-0.0980307691868655,0.4736231729073804,0.1026377807896116,0.2189120908052852,0.2863055325354694,0.370098423054633,0.413504254895799,1.69369262762617
-0.1171685671845718,0.44930320600047136,0.06641240858179272,0.18471981944546176,0.23131138013952274,0.33584294482566607,0.3452600729389414,1.6393743662480313
-0.10456893180214487,0.4421645301122509,0.09065418693467112,0.23535884306031798,0.2736730051446973,0.3670908141516477,0.41290615504332956,1.7242517316739612
-0.040356948707737476,0.4594027654756281,0.1551320354650159,0.2861005806987638,0.34068402014688354,0.4709292807020404,0.5128510825578952,1.7276290954538494
-0.061167939839879226,0.4503711444449695,0.13850396604015358,0.27741926213964985,0.33195388804452897,0.4390701867109015,0.49041091573742474,1.7184184379161533
-0.09398669454736748,0.45263482927375037,0.09869822877601543,0.23724447430461698,0.2970035603762697,0.3935705691799336,0.4403141183738374,1.6496672513765969
-0.10600873854848959,0.48656390036039393,0.07056932243584585,0.1889961918529376,0.26369067158872495,0.3499545407116373,0.37798349527742464,1.6972792817159161
-0.10372854425260082,0.44635281929177095,0.06779175378560372,0.2085796684492093,0.26407733771769765,0.34280046138810016,0.3938114539696961,1.7301730222675564
-0.06373176813630449,0.433117226248851,0.1329127185717992,0.2709171808118891,0.32523707702791343,0.4500877716493999,0.5005966706235974,1.805893461228144
-0.09253458447144432,0.4338540152871535,0.10973327260311636,0.25023676494701796,0.3069670677797263,0.44267322753596966,0.47707795015980914,1.649581731221388
-0.09731438455674765,0.42984137953517765,0.09445452934019778,0.2221297689958978,0.2775678866463488,0.40678033917832973,0.4375882229073142,1.7865105693053809
-0.13614497851146354,0.44906951515895205,0.04841639703428769,0.18008620930076946,0.2357570485747365,0.34580600683259105,0.3616453110524407,1.6895180512293637
-0.12876480475762336,0.4524632888582689,0.06675386647695282,0.21046455722271454,0.2634614100663056,0.37368009306223965,0.39609648474790116,1.7356167796066582
-0.08616716656637796,0.49213776988770314,0.11626171335452064,0.26060806503857353,0.30314109020155977,0.4403480213791147,0.5071016668370929,1.752682426967038
-0.07653324315864883,0.45331586797101614,0.0960702247589891,0.24272111478485528,0.33353858142971987,0.43367426828370553,0.4753200537264143,1.7191344334742322
-0.09587153090608161,0.46227282207723386,0.07673035092016703,0.2115646455641667,0.30922500519203566,0.39105743325217285,0.4299840263804097,1.7462872524791306
-0.12131085842175354,0.46593204678844646,0.03452118103009563,0.1563930763603319,0.23343649831968194,0.3306749024959876,0.3919621643945423,1.8106488813270332
-0.10099847032058933,0.44977132831787386,0.06570176347196738,0.18099775744593516,0.25002023700812037,0.3675921191633494,0.4061269586668862,1.7391479486617962
-0.08036769247454054,0.4541626942091167,0.09733201183457343,0.2549044894448947,0.3338359159871884,0.43605281898515946,0.4856019995033157,1.6908626219422636
-0.0767548051073401,0.4546827855883599,0.0950847697066253,0.25134681828054484,0.33035741473139557,0.43476167999875037,0.4854484259087217,1.6498602471908432
-0.10004250811029194,0.46219375578215444,0.07301163211886498,0.21309310665731393,0.29087932657641485,0.3927776107613133,0.41859834931325723,1.7182205349257376
-0.11579843990189301,0.46023842341667365,0.03794406461233313,0.15623868523359252,0.2717196398180835,0.33893970213227875,0.37010420497497537,1.6943910883321147
-0.1330786913479574,0.4326109664548412,0.033954536381403104,0.1549340873592626,0.2521610463848871,0.3205070698655714,0.3775420037083981,1.694254647407477
-0.08506062427146181,0.4517278276987502,0.09106129985806337,0.2221565471830551,0.3303213874290951,0.4359339573321948,0.4905271102050456,1.6525302180551975
-0.10754080814423612,0.43379781641841836,0.051733561044788816,0.21545847974646454,0.3196611001390101,0.4115333368217916,0.48227999107572794,1.7453010295741096
-0.11227433519198443,0.43539099947880133,0.04722696329532033,0.17869776679528526,0.2867815633844577,0.39072405580041647,0.4251872500247551,1.926819129880798
-0.15610343358134013,0.4486168588532895,-0.01164090074048153,0.12345199982358503,0.2507574300698672,0.32560400579272875,0.379425791820439,1.8071192302167405
-0.14426177948479726,0.4587002234787566,0.018398551096730484,0.14398781929219953,0.268219590343303,0.35270168696063403,0.3931077534059673,1.8099906114958961
-0.10564354501768417,0.43838171173603846,0.05576871742793639,0.18633696440855804,0.3049324259315936,0.4098975752007864,0.4552666719700592,1.7229541892456646
-0.12475531046942824,0.4594838232600903,0.042424816162872525,0.16104363846328723,0.3037664757014867,0.3800215516550765,0.4513648671355703,1.75693188961057
-0.1497139122244286,0.46571022575611265,0.01812728713785788,0.11847907886596312,0.27229717948470056,0.36559731584724403,0.3785070469092886,1.7358230087533477
-0.17002764162037043,0.4405700539255099,-0.012738453813415993,0.07476945003660364,0.2126337042615677,0.28492349709393816,0.29768035665674103,1.7265293211141695
-0.17502648313697936,0.41706365999086714,-0.025644714490865257,0.08112696453231091,0.1976824539916027,0.2634011691801065,0.31223912679343163,1.7602700898253272
-0.1204987400330119,0.4546146367469698,0.04297108851842567,0.16578888679248682,0.2975918895818484,0.3756613055495947,0.4236177576456467,1.8592665605232388
-0.14066798384057355,0.4304741943217366,0.03269139937597411,0.1440416338750997,0.2914649700770278,0.3548309330301582,0.4323064182432297,1.8241926599327962
-0.1738054842039374,0.4522044558445667,0.00884680446000644,0.10124699502044088,0.23379851836096466,0.327159097709575,0.3902929775030319,1.67675089355492
-0.19281214844274086,0.4510324931117264,-0.019571915525909218,0.07470750117450513,0.20843247454140904,0.2703239751836064,0.30448170816604303,1.7022360401189522
-0.20369745689876234,0.457536673884287,-0.04613505619905702,0.03787933641326569,0.17071312228550956,0.24125555545170912,0.26072493735996044,1.7235248877784382
-0.12305187205937757,0.48013677144155803,0.030343173321354475,0.14146089049199334,0.2820404602390968,0.34903065151414275,0.40586168044173593,1.7302814810881606
-0.07790490320646652,0.4474331175042236,0.0775695659872322,0.1979247059133087,0.2961207872375251,0.4032972455402162,0.41168879605162806,1.6762833716773802
-0.07452496538558315,0.44660371146304634,0.047882915255259395,0.16750661782418413,0.2980651025076339,0.3566282322300641,0.41128818874946116,1.6985302073688313
-0.0954458572773613,0.4306053603639243,0.015439437213130293,0.1282416964345302,0.2494716510516714,0.30468881602106895,0.3439080796760133,1.7634309337285143
-0.10430793555810618,0.4453138101348932,0.015260052319204104,0.10710542316380235,0.24093422898911093,0.2718800831719938,0.2883014073104691,1.7780533300569021
-0.07255008065340605,0.3843250985290333,0.06380873627631278,0.16745773198058084,0.26954507764162217,0.34865471066364984,0.3660981821984992,1.7078159188635313
-0.136893707981937,0.4482057625756671,0.027604434013012463,0.1436261980311148,0.2402380104312009,0.326890295475943,0.36761139935093773,1.8097004671806376
-0.1523090043304945,0.4566823705107036,0.0236662391712016,0.12219394659859022,0.2100857490809956,0.2852291034723416,0.3379651213347578,1.693755332530994
-0.17955199835889352,0.4497423642247986,5.007286943957263E-4,0.0811453728552704,0.15637215989014958,0.23414323453741911,0.2332759683795594,1.7008111249613098
-0.20546931772224863,0.4393013245707179,-0.05018667459039039,0.05456262639775009,0.11361656826726942,0.15856446336393604,0.19477299483529456,1.7030524761458197
-0.17961968234381748,0.4348443205008628,0.029391715468127258,0.12477406792505306,0.1869471013102512,0.2625846265600567,0.27383081434315004,1.6587067805077202
-0.1519187902002355,0.44605069803137604,0.04643256176523942,0.17918618854754115,0.22830832887394573,0.3084731654835393,0.35519514348190223,1.73820953409914
-0.16708602432425404,0.4617953085115295,0.048083461097350615,0.1658631505908378,0.23052748224967165,0.29670457415439444,0.31264655520706713,1.7211442576070155
-0.17729025992543343,0.4742274791288239,0.019482282649189827,0.12609378691446385,0.17935046609910138,0.24186978025847747,0.2598486117487177,1.754343591089225
-0.2078955368266775,0.4561773099330038,-0.015628818661095084,0.0870745883290752,0.16130674701592124,0.19096344263970555,0.20845764934055086,1.7503136994180442
-0.21101047582290136,0.46242019661835954,-0.013270369764616331,0.07963730386468283,0.1389969800432285,0.20606197900548992,0.22505321479749524,1.7640335713656734
-0.15643081107354523,0.453963140231227,0.05601855105366674,0.17112493875548046,0.222725191091118,0.302338804729141,0.29924529518188314,1.805986612652165
-0.1466198584997817,0.4547002300021233,0.055921503696093826,0.18401310683582517,0.24155283296521562,0.2907150399556523,0.32442636424555377,1.6629910569139141
-0.16557843246064097,0.45738625298984265,0.031112639807591554,0.14396737544905278,0.19954751669097434,0.25844044381177855,0.2693263556445469,1.6738851764357403
-0.20048149169096932,0.44986318827516314,-0.008748671333152254,0.09672342707940067,0.15468454600027154,0.17642059057699214,0.18314985323209262,1.7014369177520443
-0.22641192753552034,0.41489590247125585,-0.026626655619032484,0.07096625665608451,0.14132521098505083,0.1525021772945413,0.16329766134160492,1.799133796013937
-0.18511690550105786,0.40314588046851124,0.025639647931254953,0.14004172825447905,0.22651802965351941,0.2586752650779791,0.278416778424175,1.760839912566654
-0.1686084678553129,0.4129794244134619,0.01796612812345912,0.13773793085089917,0.23855321981421723,0.2725247923502798,0.30446114940840596,1.8713374665436502
-0.18624544191989215,0.42695724388512657,0.001400533121390682,0.12494319866837253,0.236413651983819,0.2721923163645112,0.2706497889501129,1.846538147685348
-0.22043293506500608,0.4145342846685161,-0.024442299104427665,0.06642679987751655,0.19714203960104,0.19525482370059652,0.2005606902045109,1.7304348988145708
-0.25896062485002297,0.4147212500652572,-0.06686414084110144,0.052777974944913056,0.16130584814156168,0.15431015000475168,0.16193141314146592,1.6552903114026598
