-0.23050700413266226,0.034923109529739316,-0.01252354661889414,0.07874508664660301,0.09071331300609842,0.12267671096342025,0.11312486153018697,0.37366028556686187
-0.24410123862899286,0.04932143962137156,-0.006137850401510908,0.0964463574494352,0.09554482772916026,0.1286283000508664,0.13679297541027077,0.40243554536964976
-0.2567170188375885,0.04879764243808704,-0.026875149912563095,0.07009750100810197,0.07402334443675172,0.11494536595609482,0.10977525766382829,0.40671536876755265
-0.29028819246246557,0.03648063436725338,-0.07835427223582743,0.036364883834400764,0.02045627360047654,0.05156342993178032,0.05972496239156646,0.38779839240245023
-0.30287838546962464,0.03268635099138109,-0.1014583445795764,-0.01263195287061232,-0.013497502625486045,4.3679991989054034E-4,-0.004268322868679529,0.2190319101468441
-0.3002004942347277,0.03580049812327643,-0.09330998786543745,0.003052537884007882,0.0023226235610811323,0.0021862229987582166,0.0019424361297795609,0.2646851713051648
-0.20248813094148005,0.08576267892047071,0.005242601927045967,0.12497303125534501,0.10222003325297045,0.14585997395526695,0.14788805488022597,0.2952642898888356
-0.12619712314651635,0.06977007749137598,0.0626595666168589,0.19509045311235587,0.12005307611044203,0.18307613928138589,0.18096407446063278,0.3471172135201105
-0.111443061604803,0.058724897611707835,0.06304204463265571,0.17434280181704356,0.09512628961127786,0.15334562193798193,0.1676281014637644,0.3421540336783279
-0.13863463711256724,0.06905135302727937,0.01531977693503156,0.10755414430211527,0.050386965498455914,0.09206065699621399,0.09098474877789943,0.33793845203363654
-0.21934276445318762,0.045822110206597044,-0.05490100048309237,0.02467825965293015,-0.00546392615957835,0.022590104736498494,0.03561251801184829,0.32463248767003905
-0.22609040607063308,0.07911747249467554,-0.017294728009248847,0.0837493972018036,0.07611262588140556,0.1251254152388934,0.12276250289975885,0.39166503127082886
-0.17148772754852187,0.05994517172624514,0.008940108764928692,0.14743860128587635,0.1412028014345102,0.19561731916310388,0.21206396182129506,0.4488083139222005
-0.1863091564655637,0.036525757411637355,-0.01802533782463117,0.1086934895955292,0.1521862425559827,0.19688135306906152,0.21154232919595153,0.45083433113091237
-0.22208823201417188,0.03610189179824125,-0.05491402054666775,0.06080181606607045,0.10475515985766967,0.12155070889741672,0.13705021803741851,0.37873272358558424
-0.25886809217066875,0.032492569401717075,-0.10654843570471861,-0.006291703511911412,0.038241864288935126,0.05675349773094692,0.041311787716655675,0.36599001250148566
-0.23168912271649633,0.01313451340603422,-0.05362015591100212,0.05981062974565858,0.10750041924347963,0.12233724956403667,0.14125466996931466,0.4181006741705802
-0.2074301990977004,0.042847047435888685,-0.018492961883972814,0.09170984997533711,0.14111428802741877,0.17011842453631276,0.19445806869643964,0.39570618807294033
-0.22076056249358866,0.03569418358993151,-0.028516151457454286,0.09257323273391217,0.11602330577051745,0.17564913832610535,0.18158894892864771,0.3430047337087613
-0.24667640192659496,0.017744375184749583,-0.06990423364138697,0.03694184400266087,0.06265972689573295,0.09908326736863846,0.11984170377358368,0.46433541069232837
-0.27495440953107275,0.040439472684646094,-0.09949180386727768,-0.0088772227829342,0.026114407824600522,0.03719667759215408,0.05258368285762886,0.3699270443792097
-0.20478000390482526,0.043411553060940605,-0.010598209105819198,0.096098970191791,0.10069796438611059,0.1406970254113387,0.15854237339630184,0.36411614393117797
-0.15166615848222878,0.07068118863941884,0.026309952241407933,0.15525930768688523,0.15640940253249505,0.21211403746185611,0.21909615439467484,0.45172500344104244
-0.1191238402381424,0.08511926609763534,0.0716649607130373,0.1928262278452576,0.1311507629268586,0.18465018168290215,0.20367685328138802,0.4047279076454327
-0.07905761336678906,0.04835148119569431,0.06729288841214924,0.19212918153578176,0.11514429513661392,0.13938373916969635,0.15255630989325644,0.39264472038462384
-0.09548177105587949,0.043029114737789365,0.051645190462074955,0.14581523251362835,0.05497134892169367,0.07303132215057444,0.09647513763509476,0.40585233685131245
-0.0954662787156761,0.0886333723603687,0.07162799240894913,0.16981900630378088,0.10600363836966323,0.14329985194817804,0.13607162223328584,0.4690405419156051
-0.09222986013805384,0.07324660235673149,0.09635750091585113,0.21843848483966324,0.1837538585446525,0.22241999551973624,0.24673909887102063,0.47247021305635667
-0.10820056985904931,0.092846199998581,0.07679923826933469,0.21127358234514246,0.1700129209892645,0.22949622249344578,0.24499415080895384,0.48602376093672756
-0.13296881339631264,0.06022237278153261,0.05521620661212309,0.17329307978599923,0.13895585929894996,0.18566698106459326,0.1998278427357822,0.4369320535537526
-0.16962666344228022,0.08387424257880408,0.008608888750826063,0.1260612564867138,0.10220927221317697,0.12230955792518303,0.13790756924746594,0.4156355678228822
-0.20912347128926675,0.06682044179153052,-0.005557097034258732,0.10525760909400013,0.08659801398339698,0.1116094809084364,0.11375340605050827,0.32896646802741303
-0.19723801341547048,0.06446225840379913,0.06343712738136288,0.19823736161803948,0.16840032028858537,0.23594131703028112,0.24997555999678125,0.46213401685328986
-0.20269912280502758,0.07080878283613845,0.05833895019139626,0.21370798099117386,0.19338283508973883,0.24483162831745398,0.2686531154851986,0.41326123322619035
-0.2281544914004695,0.06560433589410039,0.04307185392786969,0.16779153087921592,0.17819769037905428,0.21902680152741918,0.22675289749841376,0.43074096137430895
-0.25778650741594905,0.06005467504749701,-0.005209126975746756,0.1198801760860436,0.12208888456979002,0.1408277366652043,0.1558742838943381,0.45241718278312604
-0.28373325705399527,0.06909889319566406,-0.046923148972169586,0.06149059450521829,0.06226878892722443,0.07520192965359539,0.08201113452929149,0.4525769268954855
-0.2556295269136053,0.0653480440570253,0.009762487471187353,0.12131807776586706,0.13411673066830454,0.1599836737367389,0.1766631980697534,0.44287206351617137
-0.2180003936639604,0.07256050895456481,0.0443129505169431,0.1871516622642565,0.166618564420798,0.23871435950282827,0.2593158192183482,0.41065374429396795
-0.2104893293772715,0.06254675940773094,0.03738337459477753,0.17748655983268613,0.16484603362175185,0.2195196662745665,0.25080381805607366,0.40448842151699743
-0.24017378801233646,0.0663849373680151,0.003631444509004128,0.12474981119976135,0.12992936896699647,0.16029549550964078,0.19771548455979993,0.40420796206764786
-0.2621805484025253,0.06589997069953432,-0.025762036270823352,0.0774763352938698,0.08502349840921443,0.12374372753319715,0.12854624818358806,0.4279972574667417
-0.22348316440112875,0.07319198305355987,0.02805765199670464,0.14323992370202382,0.16094230176044355,0.2049649975168343,0.22878481669277498,0.515464817461316
-0.20890464402512415,0.07776527216180448,0.04143261377374345,0.16469349602682962,0.176676171515635,0.23932260780935286,0.26215988507747146,0.47553826046461006
-0.20388480844035603,0.08066939841877552,0.026269809214554476,0.14473685564577754,0.19029876536406634,0.22657983108761928,0.23975919660306583,0.47035546338657047
-0.252519506807873,0.07572263815780658,-0.01274491124228018,0.09541988654404504,0.12909961009092732,0.17105239121310883,0.1847823098966515,0.5269440864138022
-0.27447351689655397,0.046205315472939434,-0.06135735894676299,0.05041045614773684,0.08596075952239832,0.10401581418761521,0.12304705419052334,0.4618180383583274
-0.24397847679358775,0.06993578702191161,-0.0259646292361171,0.08781695084700211,0.14307217738700914,0.1811714674775329,0.1902386790614043,0.5064229856543314
-0.20193916005686618,0.09218927737850519,0.03828002537668042,0.16877697888756618,0.19992034199297512,0.27445299585727906,0.28768799667780226,0.486711609177253
-0.19257676983214958,0.06469038750373213,0.0387982821947358,0.1768234792441028,0.20127771043193546,0.25907173067393025,0.28562433902140316,0.4967552197966159
-0.2122214530685563,0.08529747948230978,0.027633089359825808,0.1380662640375619,0.17547757497731808,0.21733925673705964,0.23501163868866823,0.48885320546662003
-0.21860173774832095,0.06928236651109002,-0.008197265319417682,0.1003656618787402,0.12447893038448743,0.1656389573798194,0.19012242855540692,0.4661295877419569
-0.2316329914172669,0.05120063869656005,-0.021444322156491433,0.0938921419835134,0.10660580195039432,0.1635658139247811,0.18237895478643382,0.45487455729906867
-0.18831912983166554,0.09692391303390169,0.0480033956899894,0.18072219813242135,0.221473287558076,0.28572802135146114,0.30848006169414494,0.5775719866135633
-0.177216204167003,0.08153773115739726,0.053581086895769306,0.18228492658170603,0.22556753309455665,0.29858427588483777,0.3106231053125068,0.5297521552880604
-0.18845250310589365,0.06975961595651034,0.028221743122712015,0.16501147198272648,0.19853753238597044,0.250151775073819,0.2758585423566614,0.519371570826243
-0.22725360886007273,0.0664191429895713,-0.0017729143810760462,0.11371732048115533,0.16231884776192423,0.2055931465977218,0.2188482520414989,0.4846764735365398
-0.26274518837820077,0.05728880451798832,-0.04227494034620479,0.0487402690951231,0.08927938356794247,0.12497196990455342,0.1549339390389784,0.48779799934276746
-0.21911066119023898,0.08064234647048737,0.007887368119721877,0.1368019324290332,0.1702335397698672,0.23478772519410213,0.2576337563104986,0.5085009280524777
-0.21718879121515589,0.07375561626804641,0.03418153353040937,0.14964487599964557,0.18712732415782843,0.2563539751194485,0.2869430902220441,0.49262194528480985
-0.22613379561098682,0.06144685653870777,0.013193118732914164,0.13624001042737321,0.16540660865219667,0.25057530670023204,0.273538490389664,0.48660984872839497
-0.26787535133599605,0.05120598845780597,-0.023966911333617773,0.08172264235858079,0.14561450076285373,0.17951068878013976,0.21088823275308274,0.5044522346692591
-0.291226496843526,0.05919097467318066,-0.056106374846517856,0.04341731970485802,0.1117266874687261,0.13840159871576269,0.16082456732382172,0.46762116779760987
-0.25315310794650797,0.07093774763378566,-0.004023225347705314,0.12121358618909849,0.15399514809446088,0.24161732491453197,0.25675824618305987,0.5373726467062141
-0.23606099174272502,0.07732926183960692,0.015508564875015257,0.12964161334311325,0.16817010047169811,0.23997418557031053,0.25726447084840787,0.4949772755526741
-0.23939800619831722,0.06537662520976487,0.00858442855692075,0.12569244621003706,0.14951893627379254,0.2225926556147841,0.234256107013676,0.5036504052535606
-0.1985609641588462,0.05234587975043736,0.04423201448738412,0.1691184848258483,0.13211899190293158,0.17492432156741222,0.21811482946453006,0.3496017637954168
-0.17945980220689436,0.07270393531219493,0.034405195213200644,0.1586613047928709,0.10050922132138018,0.14576636926466252,0.19130023266848173,0.39961798379167957
-0.20188027726384716,0.09581259325438557,0.06370323577898383,0.18535846961574612,0.16863711711452925,0.2568360931086543,0.2948534499141824,0.4222228850231862
-0.26912364777497866,0.09380257164689021,0.03057513112392042,0.1655538429889445,0.16839444856198654,0.27812743023369524,0.2960946817376348,0.5247405549198275
-0.34960397968991686,0.0672961843248879,-0.012574002863975614,0.12326400267275772,0.1577173205467207,0.21587947540595892,0.2585436205855904,0.5626403648552806
-0.4054223017169383,0.0631942564587348,-0.053481838733071836,0.06825524484675147,0.1108035614712754,0.17405100098273177,0.17647687368882853,0.46695855816111154
-0.4495821074394809,0.005594376062009299,-0.10304730612572402,0.033987140171843615,0.06570140412527095,0.11212134433201841,0.11923409479073468,0.4881449271326348
-0.4342292624768309,0.012775188573467405,-0.05163306176782012,0.11929077711234458,0.10860484991687672,0.19890530122981845,0.21696937953235937,0.4296942604673726
-0.4107521330649899,0.034016289297029545,-0.003861628767922176,0.18690340162282532,0.15898292661470545,0.2686608959341895,0.3078306938036487,0.38653684858783594
-0.3456191177827506,0.03557518809753088,0.02090200670991446,0.2649946609856686,0.11317659425333104,0.2660621902853791,0.33400138037358723,0.16930349637598124
-0.4091519378900633,0.019098532563721266,-0.05184873131248499,0.14593537736439785,0.07315872754292979,0.21503227808005249,0.2660113614109092,0.04920931439735375
-0.5009809293311489,-0.0010807777752265824,-0.11261474504813744,0.07493269110979,0.05835548362984955,0.16662261394899752,0.19301242535219743,0.11104203588251979
-0.4513692797266702,-0.014269557590798843,-0.04054353629172942,0.15814665965793626,0.11183020822615886,0.2072298522031926,0.22108302922419587,0.20606201277570446
-0.21313967508989912,0.01230657216916936,0.11431416713011629,0.3403740374506604,0.2082911817085804,0.3358041888133674,0.3612084797427858,0.35724254955107326
-0.07629201903458092,0.06380261007359346,0.1877887147846112,0.3859247307392834,0.23773217894373203,0.35148056831124475,0.3755945005706309,0.4184474200757911
0.002440239353992152,0.044393109921662885,0.19537219347488077,0.3815560385488479,0.23701401224497537,0.3248562635052073,0.3251612491917006,0.45319096872755293
0.004128463051930327,0.044758846580277734,0.16052678869926898,0.3227507067331315,0.22372224063774654,0.301147459006023,0.30647379878487274,0.47599713040721126
-0.0269972065618041,0.051884168072462634,0.14945687105819752,0.33390515524992403,0.248840585964951,0.32698158898139407,0.33217837869307787,0.5529735076367445
-0.05739111570612222,0.0795247207807678,0.15729071899686248,0.3391446484991889,0.2937027776226507,0.37560750483581956,0.40617523433634284,0.5133562404688619
-0.1707555235817382,0.040159119235587584,0.07911378033494403,0.2663580843435857,0.2466218747159088,0.33832323786031876,0.34789833790129004,0.5082757153846897
-0.22013639922644182,0.054373979473154976,0.03395924777799679,0.23061785299830867,0.23484633726965265,0.3284425015510712,0.34218540382706747,0.5482382986288128
-0.256642680266857,0.07158994995680915,-0.006424582816911856,0.17104403823643638,0.2018709895781223,0.2611827247655668,0.26867811826924765,0.4927336117860391
-0.2664989552688174,0.06448429737394876,0.0012021844781198304,0.1772636995009255,0.18830647626036887,0.2311101130081291,0.2507659248503264,0.5150480697344397
-0.20831998949206837,0.09831369696067913,0.07739368816089849,0.28970847243848347,0.28379600345319506,0.3478325190412505,0.3655698469817104,0.576131504745195
-0.19199168873589265,0.0770063477031096,0.07991691301143987,0.27833850371979835,0.2820139475094941,0.3542921899392088,0.36828906133169614,0.5980044273797043
-0.21142767211808094,0.10485142103253078,0.04889199821685203,0.24146101768526315,0.25407798683469324,0.30862213347213646,0.32073263343496167,0.553182240336845
-0.2535510446059599,0.06072341943262563,-0.005912246971579022,0.17965688374116293,0.18882485532916596,0.2454690902702149,0.2476528511923512,0.5269389617797248
-0.2588770693264619,0.08678607724709106,-0.008344563229700827,0.18633889053954958,0.20352069327059363,0.2520971401591384,0.26644147792740197,0.568074225122641
-0.22502717684125792,0.0767863995861609,0.04794137728476158,0.25211930236300506,0.244260536544591,0.33657088767774695,0.3697962935561986,0.5620990025559338
-0.25261219139890534,0.08101696684209034,0.0311168567229039,0.22955476664263386,0.23230444867086655,0.31783030949363655,0.3430531515451668,0.6336095171999538
-0.3089013139204685,0.0771476021058127,-0.009561565220517071,0.17426639369979846,0.18657814502913,0.2616158112790141,0.2814637193677785,0.5025570520782667
-0.37040440382596584,0.06764473406415758,-0.08570380566048227,0.11209530586375599,0.14817833114878157,0.18758694300882614,0.19335100411423867,0.49172531253606444
-0.3553582776105819,0.08560077340411795,-0.03033106197941539,0.15529375468599493,0.18357489898157744,0.2488145264729923,0.28776597401359466,0.570077896496626
-0.3231507641390025,0.05832463489371348,-0.011742669222736105,0.19157599608919246,0.21510218801819864,0.3022298082859725,0.31958413150916337,0.527661307199049
-0.3406304409941041,0.07682857861849388,-0.029890181124721263,0.1681344631269736,0.1835660898419863,0.26868117548022846,0.27888647412585027,0.5176634238246741
-0.38614990547212336,0.08523738802098571,-0.07520789130941274,0.112932221757685,0.12431477791079021,0.1938939407974241,0.20872751660238403,0.5129518366009174
-0.41068100109019934,0.0644308253739597,-0.11859460295219089,0.06520143791821684,0.09690248318124664,0.13593200109019718,0.15272856080875885,0.47324870199805824
-0.36851606442293366,0.05933592871588342,-0.06098546352569846,0.13797450753316784,0.15781941535702673,0.217286820447929,0.2550356227265332,0.5365448437837527
-0.3416366542900179,0.0840805649767832,-0.03799459079672035,0.14852256760789115,0.16739566720410834,0.24376867678126435,0.27683598304161605,0.5693131252789628
-0.3449057613953481,0.0816775040061262,-0.046896581497151014,0.13048744588021344,0.14892736229426512,0.22102704556479608,0.2485123770916699,0.5927512710982445
-0.3719190878679445,0.07241804938979432,-0.07388837027760456,0.09505412247235429,0.10887607148678602,0.159230523075876,0.1745448218037828,0.5037143010734513
-0.40933076121579837,0.0332294467329626,-0.10157193283964328,0.06653949630913591,0.08203984603964978,0.12868023209480015,0.15518017494371145,0.5588205728231828
-0.3687947351888754,0.07232045932236011,-0.0363392494390342,0.15813111602346902,0.15278931090076664,0.22660084252843973,0.25931337717730885,0.532956834673455
-0.3774940790245095,0.06902680461534788,-0.05336577109185736,0.1484567227262641,0.16487277764360572,0.2437771394528233,0.26512696081901893,0.541463883506163
-0.383752897492458,0.06393258473957378,-0.08250939966077128,0.11995625384878719,0.11479101787498708,0.20515230063110965,0.22679506970756805,0.46898454953001467
-0.4286781536145052,0.05842971842522976,-0.11863450719208275,0.07143267409184359,0.0980003773993878,0.14974924268367182,0.1613228427500924,0.5483350638742286
-0.45411984152962664,0.041250000125880926,-0.11459471973207083,0.07597677706340983,0.08769666576637486,0.138221840370165,0.16494676675699704,0.4856897321495934
-0.3955507362206563,0.04087956894509456,-0.038425166716183234,0.19139677138114713,0.18780614643223684,0.282741710289724,0.29871819760642276,0.5319348986318391
-0.37553176311877073,0.062298001852570506,-0.03001727550141639,0.20779246921393518,0.2224201596690878,0.311641813566749,0.33123800550830473,0.5760569132616592
-0.3881035156346442,0.05174621171962776,-0.0357949432802893,0.1802774550640187,0.16808347964488454,0.25215361562862354,0.2868731505898581,0.53086343939098
-0.39164163579420874,0.05702345917638285,-0.07417992037929534,0.1323838252582223,0.13607572259946044,0.18181224401437035,0.20239945292283373,0.5101275340254542
-0.3905815535910253,0.09055993185877956,-0.07885369553878092,0.12168591493876493,0.10989044944605804,0.18333826289157917,0.1973010038826835,0.5376874693737713
-0.34074269108241484,0.0633818568615308,-0.012122346400621459,0.21628819240420766,0.19203060855972254,0.28009589388237427,0.3092936268220055,0.5158592358433288
-0.32561368568375904,0.07670946563402367,-1.6187001303236137E-6,0.20467159323882816,0.16567708820344126,0.25222348549340434,0.29474350246235215,0.5450416267489812
-0.33485961792853225,0.069742773443358,-0.02443212079838894,0.18176213621969511,0.1667450910795758,0.21513312153631697,0.24864806119705024,0.5095270026675928
-0.3695265394328955,0.0806356336294606,-0.05957566751516885,0.13187662130296335,0.10800160849150059,0.15287938448340493,0.17463569085719763,0.5347600259470893
-0.3593712118538077,0.0732883326666958,-0.06415003261814302,0.1303510269881044,0.1077094437363512,0.1660348134373408,0.18620804306193958,0.46774586895930736
-0.30430042058477547,0.08930084688557782,0.011239894637143075,0.21349787199386033,0.19018801856430867,0.2554404765242591,0.27657538243662105,0.48789499598823355
-0.31344851444323624,0.07226583917007953,0.005282074563167288,0.2070512099804304,0.18958932110365406,0.24088957553212692,0.26582368621836827,0.5813266635873894
-0.3069921187724921,0.08767894212966876,-0.025939814869614705,0.17125659984170333,0.14246009270506615,0.19082947474009504,0.20371536562069217,0.4936287127377078
-0.3401938157850867,0.09058453884844272,-0.05334572216619511,0.13039443898938605,0.08657676071553047,0.13335667682038646,0.13967129916404838,0.5656813682184414
-0.33969502574455823,0.075623229179627,-0.04954191284831507,0.15667616577258697,0.11554512583830687,0.15350878418537145,0.16182336979269432,0.53758727681864
-0.29211240691845364,0.07472745216741797,0.011712623371240863,0.22974691732726382,0.1785342971301599,0.24429131137878307,0.26009800804988326,0.5062555627021281
-0.2850044702066313,0.07997953411695446,0.019643298429874653,0.23567524577009627,0.16100263929861278,0.23626111628283927,0.2638962577114992,0.5237740667871276
-0.27899507125152423,0.07133711940114465,0.006526410855049125,0.19791816258501133,0.15080282690788732,0.19532266848600022,0.22372114491934803,0.5539499492299929
-0.2557846521448547,0.09226254590883393,0.016402558386231683,0.20820705897671707,0.11867001364385518,0.16629091538282736,0.17567710527793148,0.5562189042551
-0.27773513887493945,0.09446292108109669,0.022139629694940863,0.20650137696475931,0.11471640922799994,0.1612466696300692,0.1748051350748777,0.4940456234771909
-0.33451746874339044,0.0807484356667568,0.009136936620380745,0.23171188772358123,0.19714613561919284,0.26888513253978436,0.3003810304870463,0.5957983292455287
-0.38374850079162637,0.04743757479515315,-0.009698260232846631,0.21299208018389182,0.16721614940341473,0.26298753800698677,0.28861264138835835,0.5217676042065146
-0.4098576010445241,0.04714342625657597,-0.03019320769604633,0.16691432213737786,0.15518003768480115,0.20912696619782686,0.25182663845721837,0.5169969948870076
-0.4419688407373148,0.02906180620125043,-0.07997018829512816,0.12669558558763003,0.10227659264269105,0.1551394118840226,0.18057105614121174,0.5309929534172777
-0.47137966284355004,0.03723049555500127,-0.12418650972429153,0.06336232072118474,0.06628479781874413,0.10722000197006594,0.13035919782301483,0.5128788808484215
-0.4117210378484497,0.048941115510779204,-0.05704067257699751,0.15484645830869756,0.15581972311385597,0.2158579330309388,0.25315834184085534,0.5205658782434006
-0.3640917815951977,0.0512360878920671,-0.024800898301501784,0.19265125179261972,0.18889930837415658,0.2617059204690192,0.28154401945047663,0.5514753978810609
-0.3484839399249877,0.04791328447930904,-0.045792328373263906,0.1787080212163633,0.18011305385873586,0.25924853790378394,0.2786004642367678,0.6106288746732219
-0.36827665399437237,0.049980442103264244,-0.07402540155649959,0.13918651417788927,0.14070316219466072,0.20184423833229387,0.22970414075818182,0.6285813654890754
-0.3770863071014929,0.05014004105696987,-0.11189901862967935,0.11082130998651261,0.1011226465182059,0.1401676134724386,0.16581274053626,0.5301244508533128
-0.31277043205840005,0.048958462730904706,-0.0465832091132723,0.1850498582922137,0.16845594162930239,0.2524714416262407,0.2897116329945228,0.5128632163920206
-0.29112235905978096,0.06794653874389425,-0.032989214600345616,0.19779630408595172,0.1823956788209301,0.2749650857313171,0.2907101495830678,0.5108116954140473
-0.30812179318117794,0.058871573463966376,-0.040418557027695215,0.18815958662895055,0.14955399571187658,0.24432352322197873,0.28006833770674355,0.5656131659792065
-0.33227867011068835,0.06565912569136378,-0.07856218503085852,0.13683494056927645,0.1090997044998604,0.19292558790960262,0.22277244941794053,0.48105591946437387
-0.35077974121900035,0.030330094868959184,-0.09034170438497412,0.11737579068591725,0.08645238922162445,0.1358019213807981,0.16034087974286237,0.47315687667536444
-0.2773646810014613,0.06594609306544122,-0.02515909056665612,0.18795739560265431,0.16335093960970093,0.2583057443092385,0.28254624946552265,0.6348255344367206
-0.2993248685256479,0.04185765854025306,-0.04052672138762315,0.1806420725778936,0.18101981877377374,0.2620895526011708,0.2841953743947745,0.5957941032556149
-0.37018424512220316,-0.004979243859200955,-0.08581658697923668,0.12786671662789115,0.13351471584481778,0.22094024566315476,0.2551736505422319,0.6003223024018723
-0.41315669423757906,0.025024125793779856,-0.13577249664203975,0.06365280465223895,0.08286799568072686,0.1546385403158657,0.18881676821250815,0.5122725618202607
-0.4285536073793809,0.020584767160583134,-0.16145794444035147,0.02975301628371969,0.05824829164980579,0.12382778846664716,0.1428747556777827,0.5252103138073828
-0.37193136551472944,0.041647854772888376,-0.09227488106537687,0.10962168597973006,0.14694666371265014,0.22903564049567304,0.2587252006151111,0.5719145919490314
-0.36185446399274945,0.057814161752881815,-0.08862617768962144,0.11128550693863253,0.1255698709338559,0.22044809820606734,0.2593353646729488,0.569604514889594
-0.38749223923973775,0.023089672266170258,-0.10628373206276309,0.08556723501698693,0.11275035987358742,0.19280547530635891,0.24258464353119633,0.5439099021238956
-0.4185805880887665,0.03857331335342873,-0.12962908926618444,0.049879099627399275,0.06736289616632299,0.12424599333764808,0.16235939392362608,0.552878685095018
-0.44022747784785654,0.05453399744380871,-0.16884680142744335,0.004992431371965721,0.01530231742853521,0.0663395894765377,0.11379535302520818,0.5157278985218259
-0.37810838699005356,0.04167069217124278,-0.08948297107430385,0.10692118679920437,0.12637594163117602,0.19596479465919314,0.25691958491209776,0.5096369163040763
-0.33378580378400147,0.055823159753079,-0.032093585003876074,0.15957897233345802,0.1587340057075675,0.2590595871644872,0.3093682738487329,0.6004341425377037
-0.33857851557773044,0.054251432912068326,-0.029898652665963726,0.15464660088121016,0.1511781998787298,0.24671262508944847,0.2776897454061804,0.6277936945264555
-0.3355436427048039,0.06037763527769807,-0.049749825169867756,0.1304217038922336,0.12794209248742908,0.18698965053115382,0.21588675706348237,0.5284597452303245
-0.3477424622783597,0.04248445530465278,-0.07564223839707591,0.0878137528163958,0.06867791624053743,0.11844761950865859,0.15621483748803267,0.5111546602826215
-0.3589708702278269,0.04470251560681171,-0.06411318841141853,0.11072702879680335,0.10134064275906812,0.15917160941348876,0.19050438429491295,0.5402561588632738
-0.3130128821893593,0.07420337769001073,-0.0033290272350209593,0.19182348402136787,0.1708690043641318,0.28006448231277087,0.3073897565604538,0.5775846244988827
-0.2975505380272949,0.07762971528516269,0.007067744023078498,0.1954361275423959,0.19988554250612664,0.2736540836337587,0.290297237505126,0.5921840857081394
-0.30189524767774434,0.05935989389323973,-0.018468904783579362,0.16084275998525377,0.1434659913907106,0.22260284336937236,0.24119304372204617,0.5866689118978279
-0.33331970796170785,0.04814808940125234,-0.059552516318761316,0.10973559949949228,0.10939552055410809,0.1562991692780655,0.1776217650686301,0.5490112476840887
-0.36381658088254154,0.03713529291653869,-0.10957314589491045,0.06448974848638199,0.07366365668864813,0.10693010924357149,0.11739445656539096,0.6369531680524132
-0.3186408968273066,0.07833741767864372,-0.019892728690295944,0.16992334560768654,0.16040597564849154,0.23411223747118365,0.2714646996088553,0.6194586341055366
-0.3025401377135975,0.05649280322778316,-0.0019794789850590966,0.18548909463170032,0.16870640583105317,0.2619441078706099,0.283701383445366,0.6169536105372168
-0.3080791072014498,0.05037787448527828,-0.015405636371229006,0.17824482064063743,0.16253088373904925,0.23111292454340335,0.2607319187206423,0.5318585341129093
-0.3269673661284228,0.06722063485167246,-0.04938234654382663,0.1426987112869869,0.13405371667947102,0.16849553261955705,0.2085382518877923,0.5575495644528637
-0.31558737091841094,0.07630850648989482,-0.04920917278306983,0.11045468423220478,0.07680257434262391,0.11338495724301709,0.15634576516754933,0.5362085250533565
-0.3209895218289638,0.08275599796625255,-0.05595578536050298,0.10109626221929507,0.07131004433854271,0.1164695316339929,0.15092458781056206,0.5175348694648216
-0.26504687304553554,0.07576304373298276,0.0025034264557091818,0.18149871527915548,0.17104660765730656,0.24163187483865012,0.2697827833745374,0.6503596941026247
-0.29736385052212994,0.08112138202106159,-0.022402110389946148,0.1686151061282216,0.16387463437833893,0.23490856740759025,0.2711684680949648,0.5849430484369472
-0.37410290258094603,0.022182379124628643,-0.078978542310573,0.10044785536132136,0.14986238750593664,0.18957362925338908,0.21321704052096224,0.6893905649328924
-0.426479318204234,0.03982280164528748,-0.12274495659253812,0.04512624179293831,0.10464020287011994,0.13709709342488738,0.1410276134195011,0.6769301071851841
-0.4544561141210961,0.048261106880810034,-0.15362794025593673,-0.004228417666659448,0.03724577604683101,0.06667577774298064,0.09608015324663624,0.6092294237523038
-0.4063779986810253,0.04071807023238841,-0.1086885032850897,0.06040997915584911,0.10742481559256425,0.14222596043852115,0.1845418206391778,0.6510386513260542
-0.3564711128644218,0.04912385274388034,-0.05818654289584301,0.10559350824207298,0.15363919788819994,0.21452716570148633,0.22777371606380042,0.6130066194360354
-0.3482060617389698,0.07411609626557003,-0.07014329609937844,0.10342148550831598,0.1358915921438472,0.2078290559980373,0.21762995996495513,0.6034021428648084
-0.3700360836447282,0.06427085503003649,-0.10769007662423491,0.058614314958443145,0.07994401406839023,0.1424749897520619,0.138682261731804,0.5648108232684155
-0.3876650654314524,0.06416871141860561,-0.14235852366819385,0.01392402038636708,0.062145614792748716,0.09560974365677001,0.09170775679035409,0.598468454147306
-0.28247402903095964,0.0785835951233804,-0.07805752961558861,0.11212889398577354,0.08123532869474785,0.15887363091315224,0.17362393100162804,0.6442036944898757
-0.0719188960589517,0.0961481813104991,0.028802609039930566,0.21291737304764924,0.16825450042392606,0.21332785816485197,0.247662096064837,0.7117741208143578
-0.03749250099536407,0.10082492670630165,0.048242041250633805,0.20929458796804817,0.15928352223198555,0.20723301522743173,0.2146073476504259,0.6446378096163972
-0.08656603778685105,0.08078079394604437,-0.007063860278714071,0.15414190770513841,0.10872273250961054,0.13006632059020218,0.1553875013445111,0.6480955247596145
-0.17063518256190793,0.08958974722313612,-0.07306231331005876,0.06699997000456165,0.08123111686473439,0.09259896485626247,0.11216089869827067,0.5968174381865907
-0.2119051440457993,0.06902755322193008,-0.10027281020085563,0.05577917135640359,0.0661053484673427,0.10782628449340237,0.1180930609065198,0.5175545127633131
-0.17787422335475606,0.0895834172125951,-0.03452234467392885,0.12474230253036805,0.16497026776506465,0.2169005380112804,0.23927774188105122,0.609704317018201
-0.18659357529906626,0.10845727752365233,-0.03170995778248168,0.12218359412840421,0.15061404130263945,0.1879781050055587,0.22110358278433606,0.6969564599179294
-0.212497298713027,0.10034564685584421,-0.06488177302365386,0.07964018793503003,0.10900362471596213,0.17064799489055796,0.1736376248683834,0.5709697729764548
-0.2602105533590254,0.05342340144327795,-0.10374782207958937,0.026216331158716487,0.09326078502260841,0.10874852283672223,0.13752035385747183,0.688503894351554
-0.28290257269039915,0.06371043615697794,-0.1330507614447922,-0.0022694881480043658,0.02568956937567792,0.05372699304954162,0.06416171524977626,0.5933292995422743
-0.2382984702811229,0.09379712865293835,-0.049960586338842525,0.08718180744827933,0.1246266700287644,0.1724279373743786,0.18941655271494118,0.6395795729960635
-0.21586268816418872,0.08638282363465793,-0.042373064486805764,0.09746094556490507,0.13637192725364983,0.19264725528746945,0.224502154558381,0.655392286822094
-0.23843670166779984,0.06797166771983573,-0.06159633781831159,0.07494346240159594,0.13692237733398593,0.16816827136313314,0.19807085505403169,0.675230287313333
-0.2757183014525165,0.07787451703927051,-0.09248486920053058,0.025153157793047245,0.09427498972393067,0.12619392414101757,0.13576415712972287,0.5851432819056989
-0.31148082082472006,0.07175772664709618,-0.13440958631121397,-0.015453472814531515,0.04632193722609135,0.07038176004609409,0.06845531512845168,0.5960942743838044
-0.2661843395307107,0.0950514955440463,-0.07026368420533488,0.06850490378277595,0.11296083952796639,0.17326222459855078,0.20318549197259356,0.6221754594693732
-0.2423718666485676,0.11187021396629138,-0.045484068251083615,0.08438509215246112,0.13256475301198165,0.19616922010147658,0.20291333844123305,0.5999203879690299
-0.2477217736233679,0.11228933447376999,-0.058680048219861045,0.08135809824483936,0.11930429633973937,0.17142485730397825,0.19314007760461477,0.6672469550168191
-0.2814601642660637,0.08897220728634292,-0.09612226421736918,0.01664737421640666,0.09444218766577354,0.11592590326719374,0.13109780082146613,0.5918198477386486
-0.32953072254705545,0.07679981491570559,-0.1374218750140951,-0.028981240943320368,0.061254545344147336,0.041871989933208925,0.03846171148176374,0.5806920061133553
-0.30570029248760106,0.07494793667526409,-0.09866298499853857,0.02895549778012048,0.08189384182524428,0.11582800980734806,0.13515070803534376,0.5920853314094803
-0.25842934060295464,0.08432051644656299,-0.05027566671446606,0.0887781780906255,0.14963805221246268,0.20009891774272812,0.22373593894184843,0.6022827891641024
-0.26883486633647286,0.07808375943361556,-0.0561943404140883,0.08210656798889544,0.13523290677773303,0.17597925089907668,0.20786885121056503,0.54932666816987
-0.28032712258152376,0.07415589460768343,-0.08272856693204945,0.050256927840680615,0.11141941820589246,0.1291690649483198,0.1529498751618013,0.6116749109388389
-0.3115521494003143,0.08054548312839149,-0.12486060707000116,0.00733838428452948,0.07483769982137983,0.09212542088295449,0.09613493773362804,0.5848572052593042
-0.2910239966159931,0.09223197311330486,-0.10055730878203917,0.015624855312113587,0.05987690235059036,0.0804859167670885,0.11288979418132285,0.6012730038456441
-0.23051010441129574,0.1146523264127447,-0.04141888767614256,0.0958977653707461,0.14983139646739402,0.16903782775479997,0.20567606868374322,0.6020289453489602
-0.22465078964713237,0.09614459986534321,-0.045725374537821474,0.09336053621330245,0.150014225666904,0.17319299166640018,0.19500409358320517,0.6257853987826684
-0.2492109972002744,0.11553424303201623,-0.07460105453792885,0.0549889504796685,0.11815003406808211,0.13446403823624328,0.1518239921607603,0.6545736934677701
-0.27994612060776103,0.09985608012954234,-0.11039311023465444,0.011202154056920734,0.0855904490426406,0.07382385282295614,0.09148034463584732,0.5410839525166541
-0.29540404812248044,0.08531366962704509,-0.12640917767329174,-0.035090441578268496,0.03520730503052935,0.04309524038994411,0.058209394261035975,0.5899868179038056
-0.2514670297038175,0.08356633271379815,-0.06354222918178112,0.06476381123592669,0.14112221709710565,0.16311286082768994,0.16947235638438468,0.683960822828444
-0.23117138027903325,0.11326636524520503,-0.07145425810815303,0.05987456943340083,0.1306135371592438,0.1746337653689294,0.17920144243141875,0.6561430460291955
-0.24690064415854077,0.09469730427717332,-0.08503942746973583,0.037877441666661266,0.11872544194718877,0.13729161618988045,0.14711427116408193,0.6445987055410972
-0.2854953139376107,0.09728213684125361,-0.1338269978718607,-0.013817938923773709,0.07332281896292808,0.09239373985122881,0.10150715642241742,0.6792401469215416
-0.30622715447974513,0.07652859303395237,-0.14628575089499918,-0.04626870367155574,0.05422776364357624,0.053782237486304986,0.06386974054914415,0.6589370595339521
-0.24980368634539118,0.09244266743557616,-0.07528026713816215,0.05612733078779405,0.12164672212396888,0.15360796370946656,0.18973701032063606,0.6516376575325065
-0.237721938427254,0.09708186680500658,-0.07608759326990484,0.0579522462467971,0.11924850432305299,0.1739444071061245,0.18667035903648135,0.677787534822007
-0.25432056107075013,0.09081703034114644,-0.09659410220581974,0.028474967668667243,0.10614081594242615,0.14610647691039463,0.16381770277107377,0.7205858318286824
-0.28788111907548913,0.07059811967297841,-0.13694624605221653,-0.01699046205036516,0.09348057720003654,0.1031095038742002,0.11499538142719574,0.6989875480600607
-0.31587999727963106,0.07428465946503648,-0.1510294720681194,-0.055263507176458296,0.03476851026506504,0.052854741761558896,0.062443718168163784,0.6074812183382677
-0.2766182035972543,0.09539873968442811,-0.11181811203920786,0.02155030143864726,0.11850628726101019,0.1200617710087615,0.16082171298732406,0.6662756966549189
-0.262336586159185,0.07466182524743092,-0.0865285931922673,0.056539966679302396,0.1420177230650839,0.19715674266459063,0.22359181782224044,0.689300595776294
-0.2715105675446639,0.088968933296937,-0.100508697239722,0.04268472910954028,0.1471608618653564,0.18155268384295353,0.2099282843240192,0.7251146329784364
-0.30147627543676125,0.07569087749862913,-0.1213054032387568,0.0010924478098065151,0.09305305659855694,0.12820144944432782,0.14747898175015925,0.7109388301731838
-0.3177036379310717,0.07121027904720106,-0.15003635626175663,-0.03611254533651487,0.08740348112600659,0.08327789294875768,0.10176601460729692,0.693788484112092
-0.31296253138729546,0.07982745472690944,-0.12939816949942345,-0.00658710616091035,0.1100389826780002,0.138794502500695,0.1415105320769962,0.7045568403655381
-0.2734304171143838,0.10560819188507231,-0.07963589632848653,0.04195917019566073,0.1583763984135468,0.20801072884099384,0.23197459850977462,0.7252168448106403
-0.2648190561383069,0.0834857113065263,-0.0886798353868309,0.047036083314733274,0.15541074116460166,0.1981515044415551,0.20247252364756543,0.7590105798968906
-0.2916231126183003,0.06821112148404149,-0.1010871866274059,0.012265646570851486,0.1261739413712549,0.14421170325131336,0.17768526386429823,0.606279814506738
-0.32007698464540935,0.09464464001584341,-0.13418069445216183,-0.019494633540834864,0.07672867744783445,0.10095350801297837,0.11437834420737487,0.6765039814390861
-0.2913207622865814,0.10528503781807405,-0.1179227372056464,0.005163082188343371,0.10019630403570921,0.12166565552840332,0.15517377591377085,0.6397788503346995
-0.28422601312999746,0.10059786765179543,-0.07463007534995046,0.0541194867798448,0.18857888722789504,0.21393834633217856,0.22338014692309224,0.6756768480701973
-0.28151186008121415,0.10528826726882537,-0.08228319530845037,0.04589011534128016,0.1612910367234705,0.1953225532535676,0.21364327320203874,0.7543607685450684
-0.318353032997849,0.08670718805093547,-0.1214300655691467,0.01106481092126165,0.13131210022615056,0.1591465818337206,0.18201889317181116,0.6908197034378272
-0.30934922961647365,0.09604790292028934,-0.14166608464315666,-0.02121780332830941,0.0842984902386111,0.09323744661081022,0.11801617200485628,0.6362398499589996
-0.3443643524829982,0.08148107120531592,-0.15483325716548008,-0.03877214532727758,0.061602935512078134,0.07422593612219022,0.08501093465283756,0.6677456287919163
-0.2860975649196413,0.09389134978558067,-0.08370033877918018,0.03599317611942047,0.16763755898498067,0.2058596385464745,0.22998066421274857,0.6759807144174647
-0.2674317051152364,0.09144645815357016,-0.07357568831203704,0.06882718667838428,0.1801968559677595,0.22672155691891507,0.24997209116242783,0.7197525545553509
-0.19844016038471407,0.09256812988359103,-0.014671071683704455,0.11579777182145316,0.16947223437192038,0.2148760972399445,0.24932634704201526,0.6905768993196952
-0.21099315833910398,0.09227079709527711,-0.0475134727949096,0.06119441947820779,0.1205579968507435,0.1678018831023818,0.20428186720629948,0.749493095514562
-0.33787319840990243,0.0769915708729556,-0.1596100089504715,-0.05398845915634335,0.09216425342573747,0.11039382946873554,0.112351557638165,0.6820083249907397
-0.37043319679301584,0.09668551521549174,-0.1473650701649653,-0.019708548156052004,0.12247052122779507,0.15062342417975885,0.1753618758683565,0.7375087432643924
-0.33032227456547586,0.10360233645014558,-0.09884702824728062,0.03785373291784811,0.17291032971352824,0.23683723043406502,0.2521931332854601,0.7715944747951629
-0.3217861482926721,0.1019606329395236,-0.09479678696508206,0.036866813648616825,0.18201957915781855,0.22443385287659814,0.24285275896916264,0.7371589100414391
-0.3425184367522609,0.08279547329252063,-0.1257908254485627,9.127688821868067E-4,0.14827472340832423,0.1796234159804411,0.20721112236045078,0.7044473584020732
-0.3457632044457797,0.08357775560787234,-0.15961588185756512,-0.031046150085584423,0.10040063140974254,0.11415671804731986,0.12589062169665988,0.7237492689219777
-0.3263027970474196,0.0631936350289358,-0.1333985052711713,-0.006347306724817337,0.08455601374018837,0.13791000651100527,0.15653366994269635,0.7803296928275572
-0.21175092940791612,0.08504614125737142,-0.030832694620711237,0.11807179990322848,0.17065916069947062,0.22988335110634034,0.2579188272583101,0.7415987577385398
-0.18889165523087978,0.06260674790498041,-0.01642189494656219,0.1269830909764513,0.16785056125940676,0.21459045029298623,0.2379527027493234,0.6495396234364841
-0.20794120256593834,0.09213834614572144,-0.02734807685443594,0.1042225996768582,0.14056398947685822,0.171994187897049,0.20593447148271005,0.7117774631917345
-0.2486898938342781,0.08085334901663369,-0.07900300766431347,0.05469161305191564,0.10336929629720668,0.1220926396851738,0.12797922139036721,0.7194137622740354
-0.27931367639547466,0.05889571934578522,-0.09698619466060072,0.02553988309017343,0.10792500528663757,0.12353628059174508,0.14378454624608808,0.6915699011640538
-0.2871593614280774,0.09818351733224748,-0.08098598015472111,0.06601137572753957,0.16851811825038418,0.21468652212129827,0.25708282443977526,0.7837700632419646
-0.289439784614302,0.11083618050278538,-0.07632326652829322,0.06492195315008241,0.16152536668121567,0.20752576136394102,0.2359558405944268,0.7100236700151961
-0.31252752437687764,0.08196737182379824,-0.09976364825228497,0.04241539579528622,0.1418369418372355,0.17561918746402144,0.1927804365887375,0.6735820161355378
-0.33322072300513506,0.08231683537661147,-0.14001115075291562,-0.008457561596681446,0.07636613718499624,0.10950548345607988,0.14286864208216185,0.7204056894224022
-0.347137200875775,0.07200184172569962,-0.14676454159591565,-0.0301430462826801,0.05725755585648337,0.06722381073934754,0.10530386517378346,0.6284042772142211
-0.29643448323896915,0.0795429291981948,-0.08795285320123124,0.06009329913805584,0.1518012422274562,0.2008881130473759,0.24064639836940738,0.7905087234348007
-0.27832111323649633,0.09872792975247882,-0.08489320529012136,0.06699745785898506,0.14836890623398166,0.2088914069408718,0.23147994826053095,0.7976755552737884
-0.306801807644117,0.07587596512189623,-0.09220271222703859,0.04406613809618316,0.13176076551536017,0.19498117868419682,0.21395206853692805,0.7395014462946176
-0.3619876730312337,0.06252606614031067,-0.14187523333754465,-0.009561776656914493,0.10783654504650259,0.1383477982159804,0.1530366457800555,0.7576677276244477
-0.3885040933393833,0.0766187970114193,-0.15622026553644403,-0.025857099498039958,0.08118012514518491,0.09053067021270061,0.10316167776005994,0.6977004326198042
-0.26731215095440425,0.09729855244683847,-0.044271303117424624,0.122318007828453,0.15762561935825778,0.1961025074859047,0.23857688516708903,0.8056491668100172
-0.17857760312987772,0.1133983362150951,0.01655795979217082,0.17656327384696788,0.17239165416043167,0.23356366126057054,0.2592537875541931,0.7050569786754715
-0.17042394854477688,0.09447891581122345,-0.003398069178291503,0.16121493067164638,0.1670243890249624,0.21285375899471962,0.25320686103148726,0.7666223864863815
-0.19592878763819516,0.09650918613995771,-0.027788184218370586,0.09818331338878677,0.11567443394979807,0.14268394137404314,0.17326470581275316,0.7385513065475734
-0.2709388676585294,0.08416494897054522,-0.0970380737665456,0.045304723410067776,0.08710501776424087,0.14824435368941863,0.1606134000724449,0.6909006631488257
-0.2771812978117825,0.09921455523272715,-0.08178336302370687,0.06699939656278422,0.16164015448049587,0.2184550529188129,0.25627949776225856,0.7616208635209678
-0.301732633284987,0.06845297559694119,-0.08941341488053847,0.058621470042184716,0.14444470013640337,0.19609540486931995,0.24867937765442702,0.6562568167033687
-0.339095816748498,0.07778581367835544,-0.13299254306618766,0.0202534960806896,0.13409850893985653,0.1765901619293839,0.19606434822973495,0.7536767556003394
-0.36931669250638455,0.07567759953382386,-0.16588565155404572,-0.04465575283395357,0.0981830016342262,0.09738486540893201,0.1424338004327419,0.6989862412127674
-0.3513766268000562,0.0846722874824648,-0.14395237426672192,-0.002488770481589423,0.12891917236425798,0.15947946036537883,0.2121906470824133,0.7393219360412682
-0.3212701016708193,0.09218230455241061,-0.12052461762305128,0.031848647259024594,0.16237798078218668,0.21040720620087433,0.26000871986521196,0.7372027048593008
-0.32577624864053806,0.09486591012521287,-0.13104667000547943,0.01560276688990177,0.13669149555737597,0.19268234370406043,0.22490926643651382,0.7056062929018923
-0.34336889642319934,0.07503682329817096,-0.1523084219082691,-0.028574106441360766,0.10880463314980172,0.13118959288371668,0.17514636622961943,0.7444921216352969
-0.36366317425724143,0.07255306927264224,-0.18739224723223488,-0.06137275262363101,0.0819207581532336,0.10000463364186607,0.12931290319895755,0.6607309776003103
-0.3126579262530149,0.08571576690177252,-0.12111028020993037,0.013571233880045367,0.15576820984740067,0.1966178034624435,0.24083969092935087,0.719760256637386
-0.29786986066821686,0.10236895140685798,-0.11665119967933496,0.019438298377196933,0.14849145528897292,0.19624886077940312,0.23720703343839905,0.7989912027284111
-0.3107844224255309,0.125569117836213,-0.12691993918472605,-0.0037152597404458577,0.12950864306266321,0.1686039755684201,0.2128507798360085,0.6889108837246287
-0.3291960992632714,0.09565728452901487,-0.1718842218501483,-0.03957691677852837,0.08127587575928732,0.11034524978634254,0.13379811793133287,0.7183909274483024
-0.34407338726801884,0.11218922650470872,-0.1958967987918009,-0.04631921512550707,0.07406145687517307,0.09483479196878568,0.11329642858699775,0.7338380652727885
-0.2987726554969405,0.0978019065054363,-0.10765813422083001,0.023492589969321326,0.16741099530803447,0.2041787065672821,0.25360555344480734,0.7102202573529899
-0.2807720943057668,0.11064666418817051,-0.10191267721995256,0.038455059267864265,0.16674711692614919,0.21669136100686015,0.2565903846389898,0.7641522812741249
-0.2849495404762799,0.1230159980367049,-0.11659836521773724,0.02587638399518951,0.1677481991883067,0.19528459173786733,0.20286982701975242,0.7294760536497698
-0.3125571094682922,0.0944802848156241,-0.1427267421386875,-0.029952668442116255,0.10456689356466159,0.13578866342840068,0.1609397511411992,0.7120943679255236
-0.3272213641079462,0.0985735774546479,-0.1689600500558664,-0.05328822070598642,0.05556153038469313,0.09392609772266547,0.11536757931410505,0.6599702789593709
-0.27328454631204563,0.12147068434750263,-0.09036517128357047,0.04925733150207351,0.17043187525924663,0.20791209964858984,0.2364511730887249,0.777267818259125
-0.25820778547338435,0.1247666378387097,-0.08254137570434994,0.07581580888840048,0.18198949975960815,0.24022271122275277,0.26431559809002947,0.720331496210447
-0.245858157806778,0.09694532848288359,-0.09266079178690642,0.04424019733315821,0.1733160028747811,0.2281222146861756,0.23765293071262944,0.8451798430810552
-0.28440112325592426,0.06586225532451678,-0.1311779073456163,-0.005053384053844554,0.1557507356449169,0.17190816448793966,0.16605297537642966,0.8489174863321035
-0.2955060905354668,0.09235594728279664,-0.1577725635394966,-0.0457036148811591,0.11373171848797972,0.11468251951763166,0.1226629993443184,0.8520800852778301
-0.27883555762959067,0.07748737441771122,-0.11001246555385014,0.024226265368406483,0.19772940526937924,0.20624967409374945,0.2339399476103441,0.8919618021923261
-0.2582852031022735,0.07909561448359786,-0.0906853754170778,0.04167826310373154,0.20420824338886806,0.23925516634981564,0.2446925725510299,0.8859766186933606
-0.2690748953561515,0.07068560963314385,-0.10101827652406337,0.022324161402208414,0.1924504510819412,0.208068238456381,0.2291632151899125,0.9050477108050872
-0.27219403950872467,0.11553342969699895,-0.12051578548859895,-0.019981813750066142,0.1763491098470353,0.17336540139784332,0.1574929636333422,0.8902232979038693
-0.28499973267457224,0.1072087333076949,-0.1446467505396442,-0.04575534514950523,0.13357365114970504,0.11526369625445795,0.10202502402602645,0.9064664333519161
-0.23741265585741975,0.07459266445778165,-0.1078599822133686,9.87518829992512E-4,0.18331766329327936,0.1783586940375925,0.18234373067674609,0.855354567707712
-0.184517544589821,0.11255348782464542,-0.11234199861520684,-0.02503579934973054,0.18045740119598244,0.2131751209507217,0.19809559335032773,0.8921413067834603
-0.10671635335425486,0.11614491313102476,-0.06234011124179089,-0.033303527356034444,0.1564419061610987,0.15092759718763427,0.1548581985503092,0.945107741332008
-0.04955666060365817,0.11294699595748152,-0.04354450139969127,-0.06911076058801985,0.10469395591100758,0.08357148568676244,0.07932057044282487,0.885539426334871
-0.04482515936795663,0.13582286045596462,-0.061699769020307826,-0.11383311390324607,0.07241116065041513,0.026292157487079623,0.025482437965207883,0.8819941237122898
-0.00977657493931727,0.15505827552153534,-0.014346789494515955,-0.04754248300586985,0.15402744395611292,0.14012532914597137,0.12648918995928926,0.9900051009334047
0.010200251455044218,0.1506129381771651,0.00816998017227813,-0.029977687460384053,0.1598114696175569,0.14679973064956045,0.11243160970436794,0.9585639914496695
0.01900210119004641,0.160493547772459,0.0018103680872472508,-0.05110636222677495,0.1131496803312764,0.10695714848788604,0.1050966654942922,0.9452310271054268
-0.024251696238516068,0.1686549151760563,-0.05157990340917397,-0.11597276628778799,0.07592503524109473,0.04650494638231331,0.0287011493486502,0.8975061251577006
-0.09227064498548924,0.16575465968228914,-0.11302414642576303,-0.17159269711728609,0.07103968733978688,0.01872150550353205,0.002074369256040695,0.9370466814358169
-0.04278436279430916,0.1598488254672883,-0.03802886163148435,-0.08718548802242418,0.16259540171119868,0.1438272469284924,0.1265205064837432,0.9241427703753204
-0.021262297612695644,0.16752032916777088,-0.030909354058556597,-0.05476619869328524,0.19306018216253645,0.16952192268419036,0.1799955798469866,0.956627020530413
-0.027153549812906116,0.1678510084488422,-0.028256462595223387,-0.06404319925146651,0.177310239779022,0.15451363292408388,0.15024664090085094,1.013992474940747
-0.06404746599895877,0.16329200810573818,-0.07773069315462679,-0.11194340298700388,0.12586217486119883,0.11013981685610398,0.0942818712997229,0.9688243941576846
-0.09900965119208754,0.14660854496641515,-0.12588418174118166,-0.17535694117092865,0.07975379922047732,0.03412980853830591,0.0178211829201049,0.9782516367648082
-0.06674800323107527,0.16545225276081857,-0.07425676567140053,-0.09240938286528466,0.14621614093494492,0.12583317845657455,0.13485365406956862,0.9430257744072271
-0.052796158496784276,0.14184005166898733,-0.04393871645921705,-0.048670100016842785,0.18887593972870115,0.19682897769925617,0.18846798414313573,1.0015680252990462
-0.04581768098871009,0.1565596418926491,-0.035020038321456,-0.06830118411310535,0.19087466197430025,0.17226373197030334,0.1705514034032114,0.9504030602802107
-0.08639808087159974,0.13939807406463933,-0.09118243739892723,-0.1178563139752592,0.1471892636182783,0.11827011159205285,0.1309730824937125,0.9645627262035035
-0.11164944258502496,0.12340890848752362,-0.13591044991261175,-0.163059580440599,0.1105971055704886,0.07380086458719527,0.0683012081549114,0.94493505254798
-0.12346934189303359,0.1652535805166696,-0.121342143721013,-0.16383915693696516,0.10608910593785256,0.08344573330953234,0.08104883640649166,0.9812350672405759
-0.07575779478693405,0.15781147761754435,-0.07023995222231008,-0.08694343629028217,0.19387484098291344,0.19707112001211338,0.18288698513130452,0.9899765677610409
-0.08351555708624085,0.1494367792980328,-0.08227492040331569,-0.09241000035085163,0.18716014692040361,0.18093388406253838,0.18175157037108702,1.0347955140539238
-0.11022582432564972,0.13155876181338474,-0.12182703747386445,-0.13109194801619461,0.1582942434005085,0.15536039233493487,0.13756143599743512,0.9810767372974687
-0.12150368100605803,0.13986674052130246,-0.12737072187591197,-0.1508194906228026,0.11773133174685613,0.09904883898428316,0.08754556751809627,0.9777774022032698
-0.03815777598974546,0.1780740427045275,-0.06523514656963558,-0.06477750020456643,0.15353010682474433,0.13912136262598443,0.15555525664938114,0.8755025929308792
-0.007497897038573231,0.15390248713539081,-0.018295917153937594,-0.03248258431062588,0.20850980262269647,0.220949566125036,0.22716619300120816,0.9416007939132618
-0.06896529603825405,0.14743762795809767,-0.08141855349233885,-0.08639237619103808,0.2037310865759555,0.20986412527079162,0.20668260798268506,0.9078278614254405
-0.08967061695677826,0.1327357700700538,-0.1220105037374239,-0.12159142294318634,0.1587986506027233,0.15643832215382986,0.17004286497335996,0.9283458412351008
-0.1265758368782309,0.13202901789662394,-0.16726811205067527,-0.17377224015931303,0.12580064815076486,0.10610853288190406,0.10224781997658519,0.9358903218026258
-0.17607124532254168,0.1344614972799867,-0.19629863252891266,-0.21785009847493395,0.09268417574798143,0.05992992017841146,0.049877955682956186,0.9479088767260497
-0.094695302346761,0.14400799821738255,-0.08055184283317365,-0.06378592886908618,0.20932758425804565,0.21854457141799466,0.23869579352444056,0.9967948868606223
-0.0828471224721331,0.14614720485483443,-0.055036184166896915,-0.027533428186291384,0.22031228268353625,0.2590058791623341,0.27630731252288787,0.9639610354586482
-0.14910164956021144,0.14825272849961577,-0.08766092413262949,-0.04922500432583511,0.2090401703373137,0.23484518296936432,0.2707263963813407,0.9493053168366015
-0.1828258650009264,0.12406452023251968,-0.1346753304902436,-0.09337943145862747,0.1850623536919216,0.18774215155788238,0.20010290496472652,0.8358123338877607
-0.18717370992245186,0.14177200210463262,-0.14049876498919697,-0.11862782546447412,0.13220645162220407,0.14472614910184067,0.1523353264547458,0.8916494254455485
-0.13815862481052973,0.14209014850024246,-0.10777451642279379,-0.0931635342543949,0.13738833136223544,0.1317691760281495,0.17117853898864965,0.8772633608927828
-0.08893274678407649,0.1510215397625674,-0.04753228747810858,0.009978010318915095,0.2078425170826962,0.25850568302697924,0.291555869473493,0.9156541918212855
-0.10039205287965788,0.14617263194191016,-0.06573586649840116,-0.010857403673605059,0.23375842331194868,0.24802283460921873,0.2796649639842612,0.944514878163492
-0.15179010367824963,0.1443142602444029,-0.09283033619997921,-0.04495668186291375,0.1910455714885901,0.22122150673637853,0.2542481891202078,0.9401429412118172
-0.16126462201446157,0.14099839675432377,-0.13182733747258413,-0.0753557279076349,0.15092584098950318,0.1813924765961375,0.20850521302269653,0.904148875109311
-0.1872942321253891,0.14179196700816596,-0.1502969342425985,-0.08879442422777285,0.12578558049862415,0.13156393008473302,0.16693641381458896,0.8756976157454004
-0.13167804186239848,0.12867589469543522,-0.07471892325669537,-0.01983364708352152,0.19458845817757414,0.235285093089482,0.25845421157141407,0.9003379305384879
-0.15402973107973236,0.13524582159317147,-0.09028856654546527,-0.013961927727860427,0.20631564080487583,0.22957558805266626,0.2642890567789798,0.9287387848785285
-0.11925591767144383,0.12261655403972224,-0.0713317904742642,0.005591003577270295,0.1891769118487271,0.20430399266107324,0.23817458201086691,0.9291124399495876
-0.07811195670279399,0.12880545001204652,-0.04633540832744138,0.0203523577318446,0.13390002209745164,0.17277541855112394,0.20044663564806692,0.8665558279175332
-0.07216123599732169,0.14436702582459926,-0.04464442381393214,0.005305091390663812,0.11239414425117039,0.12630030784443924,0.17904022142812398,0.8617195785425669
-0.09901563376639526,0.13900211856697076,-0.043523819574979826,0.03982630615085528,0.21872488745312607,0.24859404867845467,0.2947752193699774,0.9802787742711568
-0.1075074047822409,0.16233607204410755,-0.0339987127808065,0.05080111683343724,0.21489153365221472,0.26075517370462736,0.29480585720222524,0.9858043449798313
-0.09784682777157962,0.11354605092438932,-0.058645909648158114,0.018911238393579166,0.1813980548838287,0.21340890366489892,0.2568810007402282,0.9196903033787384
-0.16256106429691303,0.12032301450753738,-0.11649609912267705,-0.055932119812119416,0.15039823589933182,0.15355000433625382,0.18116959722867249,0.943835409219639
-0.19433937702736687,0.12019393734776468,-0.1595141090902732,-0.10470407476856788,0.1040894949400694,0.08303704701758012,0.1237859349803438,0.9041871831687729
-0.15130738430914495,0.12879931515813603,-0.08353846764268356,-0.0033549634178653247,0.17796107927463095,0.20991288066503852,0.22400558758208675,0.9692957474842694
-0.12197290581688987,0.14669622923866818,-0.04120899714575671,0.050377001122610454,0.23721056992495887,0.2803308542187825,0.30783787518755246,0.9523534811771887
-0.134597192141703,0.10678170132681325,-0.05293486457016559,0.052660027942421334,0.20364111755314301,0.25401234950161994,0.29311806201502477,0.9803336526492336
-0.16706396550320227,0.12992432761064654,-0.08444827126038142,0.014079156571001342,0.1654466123679611,0.20473634702418594,0.22970959439519037,0.948613141700255
-0.2069771930996394,0.11548151557913372,-0.11986555277144699,-0.047701483314754115,0.1263415566095451,0.123026731008023,0.17262087884679422,0.9362593887707893
-0.2352690977758457,0.11254997157754665,-0.11876930087566154,-0.04447080236260237,0.09786199833088105,0.12394126557576872,0.14511125589678023,0.9681030744644157
-0.16624793000100427,0.1294047859608331,-0.03431609401789087,0.07021723892822271,0.23189652191094434,0.2592406413487646,0.3056886350159143,1.0181495911335834
-0.15624437173023564,0.15913764082467058,-0.00905926370764805,0.08934033418488749,0.2241119844509123,0.29520557072611225,0.31945963504444425,0.9777370433943388
-0.17044115763423928,0.11203090731525922,-0.03639938449534877,0.06653354255859756,0.21870363412027993,0.2566205393676502,0.28506797456570465,0.9993396205424293
-0.1812547096585138,0.14071495475230517,-0.0741398798618701,0.022471791767570255,0.1614120794796186,0.17765600213745128,0.22441032536411076,0.927890291453815
-0.24206530198681625,0.11949773507444614,-0.1245198109832687,-0.0446866931112973,0.0969930317452497,0.11918023844874881,0.14377166696274743,0.9161524019885394
-0.22285153288869264,0.11591656618544596,-0.09720764648816126,-0.0014529533846371553,0.1373765028664322,0.1595064900912649,0.19011469218409977,0.9751488396493069
-0.18724908826057243,0.11828315980856138,-0.02778740368776767,0.07484488507010814,0.2130589560104693,0.25554448311547756,0.2849736278592006,0.9903538727382104
-0.0032059813119048874,0.15716932112266013,0.07852845435830645,0.21983340534970003,0.22810139509004307,0.2815938974549411,0.31430046714416887,0.980993525292035
-0.04660106795580045,0.14841430597433042,-0.007678486499953091,0.11523791535954851,0.2031316901776281,0.21923929576176232,0.2458508532298302,1.032533811082756
-0.12233378033911274,0.10121701312102258,-0.07488292304093966,0.04424257650612478,0.16519428168571304,0.18149324746053808,0.20921242306738808,0.9064204960437368
-0.16449338928725143,0.1311200629629653,-0.11144547564975353,-0.0067474299539486415,0.11669420684848997,0.10939475368184949,0.1405743186595685,0.95718660664796
-0.10238459753160199,0.16141828194462526,-0.007752058228958608,0.11299944849559529,0.20855211633503212,0.2539853662069977,0.2671734062104164,1.0076087319639762
-0.05779873470222392,0.16779139578647,0.034303721542617016,0.18309612796710473,0.21059311522232368,0.25458449475055867,0.3110139710283286,0.9409891563405286
-0.010395099017177917,0.1448388189045805,0.05869888898087845,0.20907166392274806,0.1989699444329701,0.2600913048081963,0.2749212509710506,1.0177073634472784
-0.03119992242159713,0.1552553240427749,0.027077401634289427,0.14318815242200295,0.16700607549094276,0.20180893008302192,0.23232006751210427,0.9820728135001864
-0.14811863472214887,0.12348670107049434,-0.06016389710276132,0.04002915173087443,0.13220599695464655,0.14360885994395575,0.16770393527188338,1.0250021524315782
-0.12007785662641748,0.12726474273425414,-0.023629660344423764,0.10539359596535708,0.18721040245666423,0.22038216862439608,0.2481436740617392,1.0702084355087085
-0.10588520790525023,0.1437327608363746,0.010720607962932296,0.1483973204344643,0.2194160475000952,0.2648201929316319,0.29890700662066816,1.078039999597122
-0.11371738117234367,0.15131869792784397,-0.004943845219895632,0.1268875830076508,0.2139462731509711,0.24736251200880655,0.2774625181773232,1.1071135276273498
-0.14443839748466328,0.13704520587413155,-0.04262681331692373,0.07724916087475493,0.1324150311528524,0.15669246011867105,0.19120206421382457,0.9935214319923414
-0.0014374167339921556,0.11846554121019237,0.029640404600248686,0.13488454655623106,0.07905914194837502,0.14272454106057192,0.1883757292217106,0.9078344740720271
0.22494946738736257,0.10260515164454156,0.0700893446647339,0.11063514647232434,0.032294756026228395,0.07648980322950383,0.09043562660085151,0.885424881794734
0.2674551166681973,0.13744757219970716,0.11707684311968553,0.1608106227505168,0.11412103039418382,0.14664534470566085,0.15835406179398584,0.9213013632254663
0.2811688863288187,0.1461311018373693,0.11759054123800511,0.15302151381354373,0.10427544592850331,0.14439083340555356,0.14174137323414054,0.9036532289879649
0.21902678846017587,0.12955615914246757,0.04518821661895274,0.07763986874232578,0.0826819252291966,0.09813041654901053,0.11389507756448522,0.8547987253791044
0.1431389008343404,0.10176292088207083,-0.006337417659454066,-0.005041519172598902,0.02644105986090009,0.03159756706365692,0.036773759130911,0.952549887766367
0.08781568339492596,0.12464873562781545,-0.036454760778943204,-0.04178340236613806,7.626084295583526E-4,0.0011272083120540868,0.0049861447411101295,0.929325921432246
0.08737323449584536,0.14760988739841668,0.02261184953587357,0.04761663104700606,0.11652626050285896,0.14824896494883277,0.18634211263187364,0.9683849589338052
0.16708989734964444,0.11974250150695576,0.10834869874207564,0.1555776993229677,0.17379317834522728,0.20222845562126265,0.2256364489538016,0.9946550162101214
0.20608227391022557,0.14069094678902463,0.14600530088896913,0.19344238250454,0.14709759377166493,0.21136395741628894,0.22694137951169394,0.954531039260925
0.22360651452766878,0.13183800909578036,0.1287389383475489,0.16116865013924137,0.11408255584052986,0.1634437679608784,0.16873460110204505,0.9569673481912703
0.15772641166759066,0.1458893914588165,0.06606223474894363,0.08776463453243769,0.08647431925137675,0.09571416117665318,0.14618081323649623,0.9820185706887931
0.13088297224324483,0.16027518558460765,0.09488773536305778,0.15160133416337312,0.16803236154051962,0.21802824774700952,0.24393656095051003,1.062644818530289
0.0879104909235609,0.15159001744583822,0.06556311935037715,0.13822119703871663,0.1693151481662402,0.22310068939858269,0.2620212175384326,1.0985511796031981
0.047162988615595425,0.14385138002591175,0.0393799198796639,0.0955503077930224,0.15814816788058753,0.2061463019909684,0.23102350748072326,1.0501292216756604
0.018525532916207225,0.13872533996181707,-4.890937645593979E-4,0.06883666923573045,0.11192431365757755,0.12151389690935985,0.15766485803917962,1.0620895820185507
-0.02845044939946715,0.1331083959553186,-0.044709795149435114,0.02513664481585437,0.051375282997325605,0.06541688223015803,0.08952444343468757,1.0639338732111567
0.027259912264124588,0.14304804772415614,0.05252990424310397,0.1295729621341569,0.16987775057822746,0.21401610415560104,0.22608493711295302,1.0060799940243337
0.006936065284678064,0.1534633006297728,0.07817314084564574,0.17369251991584972,0.18971951787800762,0.24392106187664178,0.278589734955485,1.0073189858831049
-0.12389053293521277,0.1383590617579727,0.04719138021454965,0.13525781359144196,0.1918916793587896,0.2352771115910698,0.2766118885800452,1.0512822865354123
-0.15335883172985096,0.10933841291577374,0.03175316190407067,0.1466554759815844,0.15139711708768996,0.20429576294251375,0.24617924184934215,1.09627865369594
-0.10448610619127288,0.12128574199257383,0.05025747196005216,0.1489698839759787,0.12883955471070402,0.1678941263110716,0.2026176387472874,1.0737969802162133
-0.1856061261061034,0.09580584671029285,-0.02578176493238596,0.0808991476856815,0.16082425419397453,0.1977193807761728,0.22449923637602717,1.1469154872550962
-0.16518039753946004,0.11261511255447176,0.015577975752341225,0.13619494442913843,0.24941631851702734,0.3157629873990606,0.3364976841231027,1.2155384186895954
-0.19186840485989895,0.1024305621226834,-7.947220146849732E-4,0.13187573452686496,0.2505377719344525,0.28895567367200975,0.33509431511804666,1.1305159353759235
-0.20508873605377687,0.09548630375028314,-0.025559714088644464,0.09554118343857773,0.2310081782802811,0.28375900377762614,0.31631244839859946,1.1077637211364397
-0.21812434446779524,0.10349076510379232,-0.052656039959486645,0.04221281582224232,0.1953685039652696,0.22614249280467674,0.2535333922748369,1.059747693359363
-0.27422480016454487,0.08425873050115784,-0.09644861028279539,-0.02940402339323024,0.13879259437821212,0.14491435125915175,0.16643761958151548,1.0243572527202573
-0.23489642681266237,0.12457951366967651,-0.048450969263195434,0.04632603484926277,0.22143560906273965,0.2433066175617581,0.2466111170755879,1.131145102248755
-0.2100869540702606,0.11579804218633083,-0.01283481469610541,0.08695491661786289,0.22928800352716955,0.2858616911505858,0.31155914594891554,1.1347001575255553
-0.21620010007971313,0.11474223261533589,-0.024711002012444805,0.07248401302834215,0.23233678082575093,0.2677722375456997,0.2790342315120346,1.1232874756709064
-0.228202603325514,0.1077823884141686,-0.047358553076443224,0.037657452041353984,0.1896803604910942,0.21907718705531445,0.22280256323864372,1.1298332072712214
-0.2423453095868417,0.10375884662178494,-0.08206662797355613,-0.01195218802257815,0.1576142914877021,0.16276256080114573,0.1543557099854416,1.1503482136092593
-0.2744137462068385,0.11381452235031228,-0.10846485488984418,-0.0382952544462775,0.11473891574923542,0.10621384369926128,0.11205072305026564,1.1439910857210114
-0.19575335733061228,0.11945150253865378,-0.01975390686129179,0.09559602890145122,0.22133742689677854,0.24516833798592397,0.2594165858634032,1.1728250063334162
-0.15743010390916656,0.12772738096746156,-4.1219126284038066E-4,0.11385910183540594,0.24687324130939114,0.2735239821419881,0.28758980368747555,1.151237684679791
-0.16153967369409325,0.14129418127686139,-0.022284915655455442,0.08913610511398985,0.2344452581352452,0.2428290623299642,0.27939518263955104,1.1868819433967515
-0.20991936055582483,0.13121654413105935,-0.06233045978752901,0.026903581483601988,0.1836787952350899,0.1826711729386034,0.22074216752903442,1.1242893993090466
-0.23974897196466557,0.12047254362586557,-0.11017194481509629,-0.03243347353698406,0.13745789633452435,0.14412937350966887,0.1450701300106546,1.062261828616324
-0.23049497204259378,0.1138406927872618,-0.07536422979318813,0.004860446769829621,0.15398894516076989,0.17486239749037413,0.17575933154179035,1.1224507592418762
-0.1932202326684853,0.10807317851731976,-0.04047965631499875,0.05194100707112419,0.23979849827238803,0.27081442444803505,0.2831204153394607,1.1040420386433716
-0.19610301973101263,0.12106535625798742,-0.03931254530808968,0.04810947682603388,0.2224177340124346,0.23647995951910783,0.2586592332315168,1.0988025673550086
-0.22856112860740052,0.11573013140101382,-0.08558522627575578,-0.00608601017004573,0.1810843341031356,0.1869952196372301,0.21571007258749839,1.084687903340116
-0.26872373979882036,0.08460169892043273,-0.12295113942831895,-0.05343094280398902,0.11027287973990797,0.13533671161150568,0.1466985052660793,1.08205884817985
-0.30034407080686765,0.09945228393215191,-0.1492587699616486,-0.08130310687011688,0.10768237046236435,0.11080013141201567,0.12603468944759227,1.0708833319373128
-0.22576734141013857,0.11074590898756773,-0.06450193911407359,0.01786616593718099,0.2068924708115147,0.24554079122756892,0.28531881316120955,1.046278669014987
-0.22766059508709743,0.11432665027847258,-0.060863894651617054,0.03852347614988219,0.2230151975876309,0.2848437009961095,0.3004404869802968,1.139286489572908
-0.2449469794798444,0.10000487560108381,-0.07193192470071244,0.005167963831927927,0.19796099635353598,0.23737943662814248,0.25871909024112827,1.1519183681393206
-0.2850051331583762,0.08087699735696124,-0.12063611295594387,-0.04732248287634745,0.15337577427464083,0.17860592970181693,0.18870304463810053,1.174698854702285
-0.3310465532151275,0.057341640408283046,-0.17019733227944533,-0.0974106283459079,0.1016711860444505,0.1187388022266552,0.1327485853678296,1.1008576695314534
-0.29963929630829017,0.07770215408253095,-0.12513102207710716,-0.03825878182959851,0.1529176511249614,0.1662533523103485,0.18872476798476612,1.1679136518184694
-0.24360095726536204,0.08483388296463842,-0.058642780647690886,0.03294595921486225,0.22552470123146356,0.26363989430050266,0.3005950477729305,1.1257021040127473
-0.22422885565059006,0.0936503069333468,-0.047997023569372514,0.022411466886339243,0.21960060085720667,0.25830943761432734,0.27903451971294113,1.1524977357726565
-0.26191321001381795,0.1140032221808174,-0.08837565236655676,0.0060361359259781255,0.1979510240691465,0.22483252548929267,0.2284839094102468,1.1558854874696984
-0.2778268159149739,0.10037341901010255,-0.11388205210653475,-0.03323069736612303,0.14938026663635326,0.1273978525901635,0.15172737819499166,1.0945749898718211
-0.29814491913890606,0.07163008972638388,-0.15559030302743976,-0.08530907731720079,0.10677908719034195,0.09356305198935803,0.11048606061210431,1.0785491796422337
-0.24523156772558963,0.09894829971953012,-0.08900521292237515,0.020665179315513704,0.18242852948902713,0.22563497569808993,0.2385561317606281,1.122711595949182
-0.22552852907917853,0.1088946546910888,-0.06282986020540995,0.03875154142638683,0.22780004144185267,0.2492405567893369,0.2745597348695368,1.1094547045199692
-0.2607476669686564,0.10056813056141795,-0.07859512692509127,0.011089103971535716,0.203692879157325,0.23798189515683724,0.2512381633993673,1.1301755115973158
-0.27233865495688775,0.10680749324202174,-0.09362234283939307,-0.016893757030618108,0.16661483304497837,0.18622963774781082,0.1817831973794073,1.1360142830253503
-0.25727362648184626,0.1259569984712977,-0.09231783395670828,-0.016562874826850996,0.1287602701630322,0.1336606396940629,0.13214307506671857,1.0537947065678033
-0.2521668775979306,0.11416093828345988,-0.07807082200712379,-0.008395497272250627,0.11025179189639352,0.09529781444802801,0.13064390821277871,1.1074597624333211
-0.22160126651412093,0.11170908677404046,-0.041631361865263915,0.05610401333278853,0.18535495046784292,0.2290922095289715,0.23398604389229877,1.2038774257448528
-0.2557459117480211,0.12999934852784412,-0.05707083100113738,0.03613529045781778,0.16598793806533052,0.2065266577361137,0.22940063695475316,1.1412864009405768
-0.31191487487038305,0.09594546215861788,-0.07983029235938785,0.013235524818492342,0.14242589712598572,0.1587749777615261,0.19073367685573536,1.1296987780048249
-0.3741323824051052,0.09932635593279249,-0.10442491197436461,-0.002272954982690381,0.11122088409767109,0.14686530813278617,0.14837249360845714,1.1195949433113737
-0.38690436610110795,0.07163598849392541,-0.11830999789161727,-0.0025555736256585703,0.1169579886690689,0.1077964043055301,0.12269348181251993,1.1394718117129246
-0.33394370169809423,0.06075550597026508,-0.06291846030952425,0.06851183170813088,0.18773406259483288,0.19167970071118262,0.18913735538765214,1.2861623333904209
-0.3038962200064704,0.06070732529696904,-0.009885241520906002,0.12694846861473374,0.27506184153478613,0.27468038876314493,0.27924001241074337,1.3489710055448239
-0.28397444898852686,0.07060336691072663,-0.013040906360611546,0.14093027792058221,0.2801512942634305,0.2809222261492201,0.2491115570982443,1.2728245100410591
-0.3101334186929995,0.07695399218730253,-0.05574671647204586,0.08862410123754932,0.23659325883408805,0.20664258157643214,0.19199209416775606,1.1832566854665056
-0.35786815083553086,0.058697597108667704,-0.11192112535452528,0.03683126875546934,0.17861289589124132,0.16947733197109527,0.15238588053055874,1.212381404127097
-0.3649232632221998,0.07067593561735297,-0.13105696119433302,0.0014155193034672449,0.15308546563000847,0.13340269772028315,0.13314688663662466,1.1457315966989199
-0.31613089161022195,0.10015014063225872,-0.062390469113084886,0.08072958351471743,0.23142520506134295,0.24490820120578366,0.22617073901046456,1.2746106264932537
-0.2990895084551711,0.08771963903813701,-0.06474890618997775,0.08909049368438254,0.2335545582457481,0.2361599577337365,0.23230478663817977,1.2508953464830186
-0.3077755893665682,0.0838355581972978,-0.07255305077208363,0.0671889396368968,0.2123089384195771,0.20971838949777688,0.2246436435609962,1.240201366318794
-0.338853862015615,0.08524627999556822,-0.11640329701905897,-9.869754268330387E-4,0.160167192971055,0.14945570845289408,0.1452048245275484,1.1790911626045117
-0.3512353550037605,0.06991924702083036,-0.13515373864417002,-0.012663842366074176,0.127258904409146,0.11763874769629731,0.10215198016617381,1.1889238195408731
-0.30536636530854866,0.07763525540657545,-0.08414033989023442,0.061762240104682654,0.22509718559733827,0.23987448032177722,0.23752396325780467,1.2344125503981653
-0.301897900196251,0.09610183517634188,-0.0882843133550443,0.05188637208894481,0.21996077617619017,0.22739397612381357,0.22426920924184623,1.2279738105199003
-0.31290931103771963,0.08269730918354701,-0.10774194805766836,0.013474846083764709,0.20508641628412044,0.19370427901373952,0.1966543876439148,1.203009756884119
-0.3585210904196056,0.092975424845851,-0.15467570986664084,-0.04765349917371063,0.1397513231785778,0.11362174951903782,0.10962236153953071,1.1990669572580237
-0.4012420459157179,0.08360098276625266,-0.19510012135197718,-0.10112342760385166,0.087896765522436,0.052509641914892526,0.04139709321097383,1.1637366151953912
-0.37446488372804865,0.08169377205263148,-0.15979912355875173,-0.04870539312475798,0.15201861281955642,0.11930086506144022,0.12063412017978148,1.2014002514959983
-0.3179022816538878,0.10115466720978927,-0.09640414837871798,0.043363321594377446,0.2174749684268777,0.24049558629432294,0.23817977952808062,1.2847991674360708
-0.33495334049702363,0.05992581729031196,-0.102301957095275,0.02063663179545678,0.21756306911488835,0.2365281489185973,0.232135980992702,1.2710242205487183
-0.3635152241828013,0.08151741518724903,-0.1281962986343654,0.003062426236159252,0.19610278049017196,0.21719885663172445,0.21774736738446915,1.2461332981184299
-0.3723127436235455,0.08783742556123991,-0.15248686307763365,-0.007633276746327394,0.17338296870100361,0.16287215289689272,0.17144361331208557,1.260437484771427
-0.3576030369241555,0.0912861365542865,-0.16812321655783063,-0.029052085831777947,0.13790988561049788,0.12989119698720134,0.14489842294515656,1.2087337675775844
-0.2903313904522403,0.0990533918057549,-0.08997579854369157,0.08297973578803516,0.24415364831548095,0.2771017326762022,0.2854685455455661,1.1925610907673052
-0.2739000269558115,0.088067838130688,-0.05959832907314336,0.0939187689034104,0.26865709429570533,0.3186285718645145,0.316587029177112,1.152580907703294
-0.27311150855634564,0.09539984525081921,-0.04286106903454966,0.10449627063050965,0.25152099894945107,0.30312341344598037,0.31302343202288097,1.230792756050503
-0.23207774020851132,0.11275876437366084,-0.022884156590120434,0.11583880834174293,0.20071162416053517,0.23702132519067026,0.24801292974640793,1.2441639430266729
-0.2503579978898054,0.10103186566662428,-0.05645830004965445,0.08200612145931549,0.1628922813572882,0.16441867378446456,0.17765584948404375,1.196270274450093
-0.3153346382090306,0.11067775599908494,-0.10371807623050831,0.0350065414353432,0.15701496957266384,0.18349512791878878,0.1950735720373211,1.1573556104973735
-0.3055859875747228,0.12481254397134323,-0.06169723624095938,0.09347126107932584,0.2463120090655775,0.27852379117942366,0.3071162518001538,1.2167305059648972
-0.30364512310837033,0.12737513379633972,-0.05790278991917531,0.09906070271030533,0.24472873693939567,0.29833288158744714,0.30616090406368146,1.2207027230868217
-0.26328575380095465,0.12139202499525859,-0.023103592129807657,0.12155597720445295,0.2318384061142062,0.2570994011870932,0.275154448648118,1.1635175222216034
-0.17137765216774292,0.159688050440548,0.0029333749495978542,0.15543374564591939,0.19854747512511492,0.22669191957139181,0.24007760560551433,1.1198499938390052
-0.12963020305351444,0.1488809449812301,0.020382152959186106,0.15090897399626835,0.17914980166339609,0.2002564715090186,0.2232335780859256,1.17905348148306
-0.07351437920792096,0.15372492263867882,0.07638330935008109,0.21270336634344586,0.2668837625522899,0.31603927161567463,0.3366077302286695,1.2700887027137946
-0.13061334199248517,0.15568788972654243,0.02379797782943431,0.16772155329164234,0.279788861974064,0.3344241511915048,0.36499858032096005,1.2584644570025871
-0.21379924423846014,0.1404895477916972,-0.04448241767525151,0.09084058890184162,0.2380637256493937,0.2910488097541279,0.30243753646616983,1.2390130337875243
-0.31941020718942215,0.10565739327199791,-0.11951527371521586,0.005821194624789583,0.19637776932912132,0.20730723390767197,0.2202754787631807,1.2170436679185908
-0.3817359771361267,0.10687048982321529,-0.17088743479686036,-0.05908328204244333,0.12577423990928108,0.12712429259946548,0.1476528594737852,1.1509333151900814
-0.3688120004749418,0.11947698752521507,-0.130634722917819,-0.005120726935944786,0.16985918969046532,0.1743145485342206,0.20379942696025152,1.2192965283916928
-0.327404756724981,0.12337193876334027,-0.08149294914535556,0.04951724069484354,0.20654913210115564,0.24143213396461632,0.27781776128772057,1.1796699297135986
-0.3277192208735075,0.13660304133472256,-0.09264887507833484,0.04366096708254435,0.19362616304170904,0.2267685640959049,0.24731622497616998,1.16240155781463
-0.3634092084065582,0.09942752422485521,-0.13199965560140597,0.006509911014227262,0.1663327307376209,0.18667392662971857,0.1998648122146202,1.109223055325249
-0.38577376412351755,0.10027008151543582,-0.16253206817398078,-0.030784691419956683,0.1350055267039016,0.15259916586867314,0.1519494398844038,1.190224083459697
-0.39722584779142134,0.1195872066611734,-0.1803512004539512,-0.062355904266022014,0.10601791039965074,0.09861634766981274,0.09673368840303374,1.2265740891872432
-0.3349621593107936,0.12410490586724165,-0.10473305952016664,0.035824479489236456,0.21298170580883247,0.2266448155979371,0.23747367767715416,1.178978342651369
-0.37470439440081504,0.1203271842700904,-0.08743266573571544,0.06739665924663345,0.2417608222619375,0.2857764688657588,0.2995624185191558,1.247385485882203
-0.39364970614257444,0.12834329537170436,-0.03234570050454729,0.17103070568158757,0.2866981293525822,0.39595098054807326,0.409808706095003,1.2931512616723253
-0.37036281153646233,0.15995668995836224,-0.004040104688694132,0.21132514838237512,0.29215706515055356,0.3921279270299263,0.4084973739824317,1.1837545985726048
-0.43770933721963773,0.1584293703540599,-0.06814841157865742,0.12797527392611707,0.22198635600314154,0.26864137098865826,0.26758500058027485,1.1834179922036254
-0.5014048408055896,0.15236058285796483,-0.13196065363246812,0.09216978061277226,0.2132625627553723,0.25158631950389565,0.2763083569803057,1.1849109352967468
-0.38996399473367116,0.14404734787425577,-0.0794923958727764,0.1371439863481932,0.24643291755980165,0.29642808033609297,0.31890685590633727,1.2173453154727363
-0.30198964169656695,0.13910821502383958,-0.06278182575069932,0.14086821838675723,0.2461565764065711,0.28844972551020204,0.3018050504947516,1.2123574521657083
-0.3062765203969672,0.14446905324051112,-0.10416723757799386,0.06573544103945565,0.16977975700931422,0.20129919875479282,0.22098172890896592,1.2099955315220936
-0.3525751153916083,0.15957399386431173,-0.17018574772292427,-0.02406356538770873,0.11372895351982895,0.10948405802257374,0.13519873325311008,1.154411588804847
-0.3629682816915092,0.12770074788982516,-0.18728728722781307,-0.03521561425527048,0.10474846201429787,0.09392329395531998,0.10890489130328217,1.1380091063357893
-0.2824951767704303,0.1348183719187537,-0.11189366982637558,0.05274654407503736,0.19556700892837836,0.22310717743518244,0.250960722015672,1.211974340964015
-0.2925655441171739,0.1564325278794499,-0.10976117492116566,0.04174845487525713,0.18673032744005533,0.22392201184936394,0.25063959240695416,1.2160753802264046
-0.30560267697481963,0.1549534097859456,-0.11983533088412875,0.016597282921814158,0.16885730022173465,0.20576118691658252,0.21499735507248208,1.2309904516358752
-0.3316550354756922,0.13669127559580277,-0.16008887686649517,-0.015759589637572173,0.13183731761070946,0.14864990444159593,0.1407896956218505,1.2625144220474733
-0.31840198241431983,0.12087162538824511,-0.13570518867967787,0.01962229462527459,0.1348381340651791,0.13147299275500945,0.14580553834177254,1.1841145495788388
-0.16969732993366093,0.14222452726180362,-0.006854077843829402,0.17891889123218993,0.20691443872247775,0.2571169127696793,0.2943265638290134,1.2728501147174835
-0.2396264336411563,0.1562725694511673,-0.05924961685706261,0.11369418451670647,0.20730439917453652,0.2539795036250632,0.2846303503828438,1.2867106313069907
-0.29673923166373833,0.14684353068232703,-0.11013205065461351,0.052206462846386095,0.19621730505895646,0.22004157930787774,0.24545476582999298,1.2572849667680668
-0.3084992974914863,0.12288983273182674,-0.13422086092705254,0.0324653187841437,0.15662186795094984,0.17495976777924147,0.19101088747744377,1.204834960019079
-0.309229386009282,0.11040019750553395,-0.17835159182905036,-0.01279977848437586,0.11534985983059562,0.12067649966416799,0.1403256407759946,1.1892749647032863
-0.24727455457130634,0.1358611695536523,-0.08564746381449412,0.1028213063047464,0.22882817704265304,0.26010131809229725,0.28063537485622925,1.2987463780194668
-0.2137816415665873,0.13525467032699184,-0.03197189763288853,0.15108678221212354,0.26361762447906406,0.31329005657671105,0.3295141385698274,1.2545833533234383
-0.13657450985474126,0.15859490390485645,0.030149800199463977,0.2123026365719408,0.2558532468403614,0.324448868598521,0.3626445135494931,1.243517396849785
-0.11580982706873885,0.14024464159297148,0.011452012978199713,0.18784278502005372,0.2220883668456604,0.2659199674208928,0.28736907478355783,1.3523458701475377
-0.18714996524254482,0.13261470349732105,-0.06384868816558943,0.08058859398720403,0.16841127598143987,0.1756517196272073,0.19662107324034117,1.1562968536282627
-0.22027827651834506,0.11614463913377565,-0.06391274883217773,0.10629703133077106,0.17993858579486757,0.2045149535052483,0.23442022609245305,1.1901768835461697
-0.17009991113834527,0.12524451892589186,-0.013914229164730958,0.17286372998670918,0.2754006755453189,0.29530154105240614,0.3469491325144062,1.223544567152098
-0.19569863604373144,0.13373705737949698,-0.020803589675187015,0.16726780100405542,0.2619414281086914,0.29532014335664697,0.33991154947934743,1.2567541824262074
-0.2308277462443658,0.14529758914372964,-0.05620492159968454,0.0973865120829493,0.18280670079478661,0.22800612415866983,0.24500784370465595,1.1468971854853676
-0.2846485124696339,0.13711733849563434,-0.10762720769824345,0.03339186925658466,0.12845580090864703,0.1524911900001949,0.18974524527711728,1.1093854362872038
-0.27082546298200355,0.12560907239073693,-0.0781084486008171,0.08624469059104384,0.17603609931597677,0.2118314796836384,0.22246120518143284,1.1603394601839578
-0.12954252751761244,0.167672046791588,0.05379698964161974,0.22912899139066775,0.23371287598142335,0.2766787932936267,0.2987623358470219,1.15738113506791
-0.10435249961353416,0.16575436901621618,0.0333211403488586,0.21020885496375724,0.2186344656046309,0.2777918589509316,0.3014384526884267,1.1933422257311004
-0.24495233367975672,0.14787606852375115,-0.07800416372892441,0.07204367055241774,0.14507138976753023,0.1939599219065275,0.20924317704050246,1.2354007037982853
-0.30020398478358445,0.1297266157078866,-0.13147925619313144,0.015031844105779901,0.11038868199751849,0.13857532356462704,0.16293246052432148,1.2028060332019903
-0.2723775262922721,0.13488692534162006,-0.08899723860585983,0.07200272531057018,0.1488509001783467,0.1898342979933028,0.20693005474251508,1.1759002450454257
-0.23187397164390225,0.1538417255461071,-0.02197663238389501,0.14045652897363575,0.21887715803921592,0.26362513569262114,0.30171452304627455,1.2019990921742625
-0.21514285572994626,0.14025645874296122,-0.016813345639399208,0.13956856379847268,0.22286745797381172,0.27529549293265976,0.31536385616443685,1.215395584805476
-0.24887802706087445,0.1505134602164631,-0.060911519277641914,0.09320939402831771,0.20187127607695154,0.2452495289725382,0.2589292954596952,1.209868180012707
-0.2928491697494619,0.14573857093718098,-0.10378920426516049,0.039719602944214796,0.1484866046562996,0.1827692045883345,0.20105983973779018,1.2862592434861377
-0.30803220761255135,0.12693854683004052,-0.08184680050814305,0.06150829014743811,0.1356186294319605,0.20052819592604643,0.22399831349733887,1.1603100888548592
-0.22237127795507503,0.15956632701680862,0.012844816062938622,0.17933632212783207,0.23635486260893204,0.3256799178726627,0.35471492837158725,1.1972915793501582
-0.2002520562634199,0.169520986537758,0.038298350554223703,0.20219942122340656,0.26789683391057806,0.33669911519017626,0.3677643867960501,1.2792281587368088
-0.18475416270472989,0.1556411280265109,0.04471759713478343,0.2002375304708912,0.2457852332661649,0.30905747335327927,0.34124395202220476,1.2824507872981439
-0.2018419085338071,0.1628682697291839,0.022887101462011658,0.16955116351912053,0.2190400171114646,0.249864653552767,0.28453833394062694,1.272600719386123
-0.24500698448964142,0.1441307604527568,-0.025470161395767778,0.11711801262142402,0.1654248098038013,0.214901852726708,0.24334937590490568,1.165354249597033
-0.2126345135560107,0.1560784629605637,0.046007998809317815,0.21265219858942724,0.2816986314886104,0.3691826002068252,0.40955190400239005,1.2717159838941037
-0.19001566544307996,0.16370254694540476,0.06706191295161788,0.2491974440228203,0.29347191342827755,0.38960565021147486,0.4279144310144253,1.309262614496588
-0.1960739178597687,0.17322787866065786,0.05921492305648389,0.246118227920943,0.2934191863295814,0.37223514297579646,0.3925111704709984,1.2485335736706014
-0.2401749748429672,0.13968306381613632,0.009257112745549537,0.19379754344015107,0.24010609465341543,0.300735101710596,0.32488000565489006,1.2493748444936448
-0.307568087025503,0.1325450354867134,-0.03549708663387098,0.12962091001381243,0.17760178588072537,0.23819631943573027,0.2585327045003538,1.245907582548721
-0.24974344960911124,0.1290649933705928,0.021209545475434563,0.2018580984976187,0.1836926465484867,0.2310258055516528,0.2597663462907732,1.3140846240473587
-0.15168361575003284,0.14809992191359989,0.11116941655409061,0.31722688080925643,0.292756093755383,0.38039951989301807,0.4263345016908177,1.2355181504732073
-0.2269035086149583,0.17272005785455619,0.10143813725381391,0.2875316231233185,0.33795882564570934,0.3868347174527641,0.44822020668301416,1.3150641590638243
-0.29924768980265076,0.13662626866909275,0.058907193714808584,0.24697173200229666,0.2756304129253156,0.3458870271010638,0.377179970350336,1.2518208055788744
-0.308295885866391,0.15500463225382338,0.03734313854670564,0.21464901124580685,0.2202331511455637,0.2762581444079938,0.3095501280768881,1.1993503662661047
-0.33258903008633345,0.12298892323821647,-0.014596566638289551,0.16992740433878104,0.18823269599344197,0.22402384389424093,0.22709619387899654,1.2342887661634463
-0.27640433870290104,0.14091467012342765,0.03151278316290014,0.22929377985154525,0.18980570437854136,0.2538420973399594,0.27532616398432624,1.2405154550016722
-0.1779836826303819,0.14978433499183963,0.11021411198476878,0.32499565906461897,0.29875152755748974,0.3473506546992217,0.38708840521783006,1.2553229676767534
-0.17737233049437182,0.16902896059741254,0.09601784672301135,0.3082919843479716,0.2743659126995571,0.36272416278083497,0.38073907277054164,1.254943047244154
-0.21804195300329723,0.15590696159221065,0.05548512377997386,0.24710864748641675,0.2403520063490589,0.30384725920001143,0.3304254594561519,1.33151169213713
-0.27243094119889677,0.12798401714947558,-0.0034199425753810575,0.18019933554267709,0.19187103519641055,0.2388861871496981,0.2749749281063029,1.2127129212471017
-0.3167735577804101,0.12420815565981264,-0.06281614500580654,0.12038078649218598,0.13815584740243952,0.16690984489738422,0.19680110206176235,1.2918122936687346
-0.3146044266270805,0.1260682357054723,-0.0527060633615314,0.13614331068860094,0.14580307101638476,0.18781865233984016,0.23106327889969458,1.2250856309606166
-0.2556825323182979,0.1209006996903029,-0.0022854673494596967,0.197096899544191,0.24404423099884204,0.3069105575798866,0.3364775245354051,1.236774045588698
-0.2567855957887768,0.13343054134281238,-0.010533652636292481,0.1871478055857319,0.22668767396609998,0.3095593259273684,0.3285135079033075,1.2801917213774283
-0.2851310895766772,0.1501520257311755,-0.04965228944521688,0.1343415826761572,0.18939856336316863,0.2566636182851126,0.2678468664419283,1.3826010345196835
-0.3237845010465153,0.13098746249393264,-0.08893055816512688,0.07318114974566298,0.16186979855453465,0.19654991944141864,0.21193070773992653,1.2872969399252718
-0.36719391981082894,0.12215875391959896,-0.12369417854676322,0.028084534637480313,0.09578821409268448,0.11627778880148296,0.12477434534876924,1.1303087715297018
-0.34055454190236456,0.1093547732517543,-0.09589167164679566,0.07078857260341684,0.14057562000638296,0.16370798980870127,0.20373392821164088,1.2579604113117948
-0.29838170407772246,0.10893550772787652,-0.05488520216624915,0.13736620917574494,0.2042202732456006,0.2513051075746091,0.2963307973168912,1.3454531870550068
-0.3107205007879959,0.12279255956738422,-0.0608908717861507,0.1202405447776971,0.19373870089482226,0.23261169218474217,0.28821263829098703,1.2627133639105979
-0.33770396010347176,0.1299759731535022,-0.09710974683195359,0.07272107359676461,0.15682255220911692,0.20535393280095912,0.2143733243482309,1.2229359822655188
-0.3865278804959723,0.11869011826488096,-0.13548912133833665,0.011671470876200823,0.09801661527759366,0.13860360471181024,0.1539014320998391,1.1767335325655572
-0.4382134306648353,0.12522645530184234,-0.19266712415504805,-0.04147597399616015,0.05607372686823635,0.09135055753796863,0.1096534701865449,1.1775453595200327
-0.4046712549705873,0.12226698691700144,-0.1226804478454302,0.036795375113064174,0.12668941938357003,0.1832803990843223,0.2341474010987743,1.2133153159044854
-0.40428603302028493,0.12452714085063055,-0.12304405211220126,0.04308767183204597,0.16019590413262513,0.20971203759721918,0.2329778024492443,1.3346112169074558
-0.415346491733895,0.09644357516712876,-0.13963650592835644,0.028893965604593917,0.13257391030631727,0.1813325076901828,0.21484184641889123,1.2826003216701591
-0.44384873029291266,0.09299872844712354,-0.16611028235365144,-0.030657793097856302,0.06478969091046846,0.12036241494988956,0.13342697481847982,1.2589219909052094
-0.48378736802214317,0.11142820529398734,-0.2164165477218597,-0.0838617938751006,0.04477842905806674,0.0757254251454321,0.07551699726993291,1.2423237378402026
-0.46353006907009764,0.11243136386093316,-0.18239631476934182,-0.04307149709195743,0.05364886237736851,0.08695422707989404,0.12113321492739088,1.2239147536276733
-0.3652850230222998,0.14407863007607494,-0.08963050956193377,0.07470812756206187,0.16040166064851505,0.22417869102972712,0.25521086329184217,1.2234998711068612
-0.27849900111228687,0.14632871555529486,-0.019860869934770875,0.1440351117884444,0.16636554238246273,0.20891414517533632,0.24089943393585916,1.2200780823565556
-0.27203782167020407,0.15041775517512404,-0.01681222494561789,0.12098054613230383,0.12164889741631713,0.17273798500184104,0.210074475154063,1.3084982722636411
-0.3135915934611752,0.14108699278214665,-0.0736415472273453,0.06597372763208469,0.09695705838889171,0.11544470031376089,0.142270527748168,1.2097941496892863
-0.3612334008156234,0.11699971569054532,-0.11310153009096435,0.03319457182756839,0.061239417264606695,0.09327684765162692,0.1205619014026761,1.2724653793158398
-0.3296655849203239,0.13806837772666458,-0.03651240720935156,0.12524619393231973,0.17857986939351655,0.22935832328208755,0.2636550390499972,1.3030812890645638
-0.3256061851745969,0.13824829047019196,-0.021940328598052616,0.13962855979850206,0.19714463878219296,0.2194176567561269,0.254313831576611,1.2850201372847303
-0.34006890977034254,0.12829031704984345,-0.046950296907330255,0.11958040531701486,0.17002432706581896,0.19405298001452023,0.21866001237910365,1.2597052214947004
-0.3838416990006398,0.13247586992162685,-0.09519897742621838,0.06301250740562427,0.11700009660126458,0.14764849856307213,0.19009580833199105,1.2235110825974806
-0.3798061956580766,0.13291526011579513,-0.08951701862256847,0.07195479877299855,0.14221866701395725,0.17859865323168106,0.19255845038539648,1.2552738115826265
-0.3291446733497511,0.14114148709450364,-0.027787590210207644,0.1362738985914399,0.22697364521025354,0.2643706700331626,0.28837039049481783,1.302958643023285
-0.3250756604235755,0.1560174245095445,-0.033525973860384375,0.13845182316191892,0.19043762892062072,0.26463509683053354,0.2891928328759619,1.303593876561488
-0.3469828612635392,0.1507309716833256,-0.05608935198359242,0.10897575761152763,0.20572622466951096,0.23804963844031646,0.2505375462761752,1.316841572185253
-0.37403763572155024,0.1308421467420397,-0.090479467568856,0.06907357292576596,0.15243473877227617,0.17569661476411988,0.18671114237602346,1.2510292256570559
-0.32932200580411636,0.1454864627967971,-0.04215055752995667,0.1440799306650487,0.2211668622760682,0.26475139740558484,0.2788849100452037,1.2989372289168069
-0.3132835862886944,0.12905462639357806,-0.021709385688509622,0.16406828883822863,0.2383183997079158,0.28745815930003094,0.2962239772846268,1.291286627426016
-0.3211060944360075,0.13891491007299314,-0.02615269282750174,0.14659559528701835,0.21161246197188655,0.26672232921339945,0.2624482736434037,1.2585802666215176
-0.34811747114609626,0.146832724410293,-0.06230057052813928,0.1040912362094801,0.18699993740123322,0.21198112278091544,0.2051255895415009,1.2630758283390935
-0.37413538742017227,0.13283836421823503,-0.0811017507219034,0.07631816695891311,0.16137019496489002,0.17669963517977794,0.1692216849598697,1.2862321290517074
-0.3435836612269295,0.12900171071173738,-0.035895907528473034,0.15311128469030785,0.2346441818491669,0.2763241095249089,0.2821143228907617,1.3691883905085924
-0.3478611367777921,0.13068512300654095,-0.0496427968066525,0.14018939258611196,0.2438562791370039,0.2672968180919062,0.2470135702578813,1.3380379239492621
-0.3620541790524697,0.12444670083859816,-0.06339572630188077,0.12095487354164379,0.22052706309965983,0.2430979620501319,0.24719885499455918,1.4180136740027798
-0.39375745692909325,0.1283211214102068,-0.09526825455469723,0.07510162529794419,0.17151223666459686,0.19651825375926874,0.1703342377455974,1.2649489756078645
-0.3695156481416926,0.1338192866567744,-0.08493259186305187,0.08158121273424133,0.18498780925042743,0.19159714692671187,0.1977274900342851,1.28577768570644
-0.32946267915446475,0.1321178016293698,-0.03600572905382145,0.15026265401175787,0.24622788514223415,0.26805650977657336,0.28586070079622145,1.3670037452020283
-0.33122403682670637,0.13715144646112803,-0.046673054911336984,0.12058674494778329,0.23193771665560187,0.2687407962809835,0.2530982998341608,1.3350139956317915
-0.36169712661173653,0.14251208049341424,-0.08623867763568088,0.0882259695698599,0.19386403908446823,0.21615813872927694,0.20787315854955618,1.2692055442344263
-0.4022486267858627,0.13907289771974174,-0.12422197668441069,0.03870831182244022,0.14728794028056813,0.16003656889435205,0.1612719835010342,1.1909346675842873
-0.382919108089853,0.15410861608599408,-0.09496464691883999,0.0741144968466555,0.17352389152539813,0.20249961833582739,0.1933292150602305,1.333305428940018
-0.3329361479130213,0.13620503302445042,-0.05285402494752563,0.1293208114542596,0.2447454513920956,0.2632008449894487,0.28265522467593207,1.2494179062929982
-0.3422991347634719,0.14173979571462714,-0.059455959362002306,0.10460112206028285,0.21559567758845372,0.26879539896231996,0.2809071791535479,1.2935433532826495
-0.36746973723083826,0.1406834399776039,-0.0912215891917832,0.0715756729223839,0.1893170107161709,0.21911612437328234,0.2032591941881393,1.271185405929685
-0.39932043054770744,0.12448459092230951,-0.13221682227770998,0.014096874897106787,0.15428695163123424,0.15767627693774344,0.15761585715246987,1.272058728676671
-0.3906634692544454,0.11915233814340831,-0.1093915587961712,0.041419337386426267,0.1661748186450833,0.18527701481320993,0.18879037056625797,1.2816646012168302
-0.34603598561758,0.1386003046158873,-0.060732124983237434,0.10181945844849964,0.20828802483431796,0.2542017840867338,0.2765135636686077,1.3115184294015791
-0.3527761392401242,0.13651043671110336,-0.06830342136013982,0.09249282495122749,0.210549180294601,0.251502595028127,0.25934069323177794,1.2804662465973184
-0.37631707621292115,0.12062495881905066,-0.10337912450851047,0.055729521656566014,0.17353103074880177,0.20642596642143862,0.2209015999948778,1.3068999963992949
-0.41413208087667464,0.12069777786541941,-0.14306153150308767,0.013079511861670098,0.14049548780902502,0.15011271755431418,0.14531738331022903,1.1968452387102269
-0.41431811599952073,0.12391747731861658,-0.13440983015996047,0.017435705812591892,0.14625251264113884,0.1713013147766292,0.1695497158009786,1.3543488762414053
-0.3610573875180617,0.12579011926638495,-0.08006541645073931,0.09066050175005126,0.20460994175301225,0.2676391121514964,0.2846340253212051,1.2696653117935082
-0.3619151787116133,0.12775616671653361,-0.07800437654466164,0.08169412247122523,0.2231128239428716,0.24187378945096488,0.24723065480609197,1.3188672035747693
-0.39247502603100554,0.11196841396758012,-0.11140871709505892,0.0462381198134383,0.19383491270411465,0.19447324876360364,0.22076697366179446,1.3707055946811941
-0.4119854956986827,0.12624794074212053,-0.14569570457221728,7.487991247037626E-4,0.12845902843262727,0.1527529344343943,0.13414451912435235,1.213704793144474
-0.3979376388982542,0.12015679470974605,-0.12199569840973998,0.029474493092262487,0.14741635337966186,0.17621220553101952,0.19076227759488648,1.2544723627551209
-0.3775819442698404,0.1456188648274928,-0.07661067962931764,0.06929563341725037,0.20152590730654454,0.2549430472101002,0.2575963524138102,1.2583878528052248
-0.37541240839501666,0.1379560136976155,-0.09285887046722388,0.06746063443028157,0.1979496730992509,0.23221858255170325,0.23610902716472107,1.2609902445567314
-0.39036496742575993,0.14716302547262144,-0.12656100766108264,0.02975053382849309,0.15633268785680357,0.1927386198054758,0.18226082547731928,1.322131675753013
-0.4249704250443559,0.13336950148575216,-0.14987375713292753,-0.015317972710292747,0.1065403537325329,0.15418741799651373,0.14019977714138962,1.3085305691145057
-0.4172604300236862,0.14115897897581398,-0.12685349473738675,0.007387361388970046,0.11792846797572143,0.15483110983321005,0.1799872977186324,1.3312291186401763
-0.36896810362595167,0.12434799778665123,-0.06914447385753841,0.08665631392595396,0.20630803226592467,0.2599615072070527,0.28428139129043317,1.2679922738592357
-0.3601239996090536,0.13678580880931068,-0.07080603706723221,0.08415540927878695,0.20760448375949722,0.2703958070658937,0.2752524482674715,1.29677171672645
-0.37278594096444917,0.14566324512008083,-0.10385249912310082,0.059899421429567834,0.19266849004042494,0.21988323048674685,0.23345430999217703,1.3097478015868402
-0.3990338265080007,0.1330629860104523,-0.13657316110625806,0.01814635218885191,0.1330561323597777,0.16888585546621301,0.17081508796910397,1.2635743190373725
-0.3946985058697083,0.11793586476002771,-0.12525023534093108,0.03221268319102768,0.1466299986606889,0.1770093193909822,0.18328045313864627,1.2581680818595413
-0.34690845973280693,0.13870401706814117,-0.07433085078222602,0.11152226583822081,0.22676692840546944,0.2777445024305844,0.29361281201413914,1.3169069584968822
-0.3450758514587444,0.16360268311367987,-0.06194623410421435,0.10829456029551483,0.22483128479088085,0.2735622296050087,0.291571345226344,1.3921415835352782
-0.3660799784677633,0.14331354074503072,-0.0909904146229442,0.07691647035403186,0.18085065506451625,0.2471233257604414,0.26724917976256907,1.3504443673122046
-0.3916320791508513,0.14089052148017256,-0.12020571304754152,0.03547088770128759,0.16566111565006814,0.17776398997307727,0.19559503123849853,1.283713360028181
-0.3895629812551174,0.14356290497220386,-0.11149584194713687,0.05079061511603242,0.16764602781816637,0.20453453448039585,0.20314785023490106,1.3206118615980564
-0.32777107675855865,0.14142236460670815,-0.047189682998017374,0.13733455155395322,0.23961445086066674,0.31108546976843887,0.3195350979170335,1.199129198582179
-0.3332651235121954,0.14713297473559295,-0.04343713805080171,0.1403004990888241,0.25670682352339996,0.3049793922150567,0.327297234896371,1.3663439260205346
-0.34516076632703274,0.1431126319338092,-0.05932307993840999,0.10814338376737484,0.22027192173609683,0.2664381782055448,0.2928811033328376,1.2509834834073859
-0.3755199150840104,0.13145472052027807,-0.09512120662948156,0.06242163785803785,0.15994787472859415,0.20482623164412875,0.22718004750475038,1.2524968458600136
-0.3994097435069052,0.13070720005705944,-0.12427904778550436,0.027524641780681244,0.1590480959749211,0.19291102205038604,0.19237987287660877,1.3345369328208956
-0.34492837797557163,0.14870102660905743,-0.04698377151533696,0.13637792922151298,0.2280139662018864,0.28917157503215496,0.3198016261677007,1.4008902830062664
-0.32524116612168147,0.13524394715500115,-0.026050425752286985,0.1425845734113635,0.25737913801278883,0.2969067788362176,0.328259520653442,1.330110368921246
-0.3322925338503754,0.13730674504276374,-0.05483052554782325,0.12372344876619766,0.22481267049093795,0.26938301156221606,0.2870502467399131,1.4395889559316095
-0.3660447402510253,0.13339683454315143,-0.07918501892739543,0.06702487402630962,0.1848956883521778,0.2227524579678826,0.21899146678105266,1.3818855680820405
-0.3956466604029831,0.11019611848529032,-0.1102445591931654,0.04994869298649439,0.13912379915790474,0.17106909480729873,0.1914801598324533,1.2821624985736213
-0.34663313725110245,0.14111288913921882,-0.04073165756911418,0.13225807623137387,0.23734762287661595,0.2976609861931619,0.30529690338595655,1.3124217205679467
-0.32728336343554887,0.14709037115792822,-0.03421027311960288,0.13326145206452022,0.24727670186272036,0.30571324425600577,0.3039653480352469,1.2473057500119968
-0.3456486467658912,0.13688681546294473,-0.06228105719902868,0.1029242892169817,0.20079003724593042,0.2685504287789023,0.2785292335675681,1.2792584258698865
-0.373842540887478,0.1179785270220518,-0.09545598438527055,0.05401944205032512,0.18276734468611983,0.2179536153435995,0.20618782296003724,1.3648970711005546
-0.4313893466595538,0.11371078594186768,-0.15220068933731495,0.004128890179381922,0.14536714884579882,0.1570547687068306,0.14677050001667435,1.2907066996282064
-0.3856910895035375,0.12345968102781063,-0.09499712273574966,0.09273179162330025,0.2093649188354039,0.25101602575303317,0.2651154051765869,1.3142998706118867
-0.34956206138650725,0.14178578620574772,-0.06287187576936272,0.12429237895416892,0.24919188598665282,0.31358583321837835,0.32258445006666403,1.3371257402462604
-0.37627524117425737,0.11639568371919795,-0.06576971026388266,0.09711176509630971,0.20859912656378182,0.29527485763244893,0.2912337284617634,1.3322270498428046
-0.3910995030182054,0.12117429537605362,-0.10722042732746806,0.048621901501399986,0.19834472547299328,0.24051606194100172,0.2477622309295293,1.258812873057582
-0.42817531609612447,0.12991559991588375,-0.1503951500517406,0.0022225529632921848,0.15342257288534777,0.18494872824376904,0.1910720116787504,1.2522719722144648
-0.4198296085129002,0.1238486830189392,-0.14032617473479347,0.028800033705497774,0.1555273150974339,0.2082483130072476,0.2128940282795617,1.2704260487683057
-0.3773167973419643,0.12391553771639668,-0.07886199041139107,0.09781488952042562,0.22832298248259014,0.29010030178855756,0.32229033676087065,1.2431196180445325
-0.3808811604264377,0.14797987661551154,-0.08879031879773289,0.09191740643744224,0.22807892237472652,0.29669463493171105,0.3081512424010216,1.3663336656453442
-0.3953157606325661,0.1297976061984062,-0.10724861797793475,0.06098949574666386,0.19037525497894736,0.2518779713038207,0.27950403524144274,1.3261013249405151
-0.4307903463345997,0.12707434770308607,-0.13478677148907833,0.005473462011901076,0.17571428282804877,0.21917582200999816,0.22133914520778827,1.3423838219688724
-0.40104322374725027,0.13630418922192944,-0.11737029043107804,0.045644574750507164,0.18942382481074455,0.25500559972011105,0.270338902806793,1.329886727538995
-0.36546832857577843,0.14559318338176241,-0.06685597206843003,0.10468644850093206,0.2475149448489637,0.3193984733620789,0.33735939736499304,1.282110036693854
-0.3574949499440568,0.1572884761785291,-0.07447184143440334,0.08746550782304531,0.22491547464714973,0.29437271948675553,0.3230670559590717,1.2435214423028549
-0.3879747027688727,0.13470441832603147,-0.1063699019476323,0.05102671354543027,0.2127020103030364,0.2508968186903179,0.2752435838331066,1.216589432437229
-0.4192177555636502,0.14532140809670607,-0.14024980078136223,0.015761099525812172,0.17471125452685332,0.19758013043064956,0.20728458747956188,1.2901210098856561
-0.3979904963175884,0.1417943581685862,-0.1118816450959513,0.050579177752313464,0.17793971296997954,0.2359949110735545,0.25793646784964563,1.2943704783448908
-0.35918573038160134,0.14527483170305328,-0.06456974383267335,0.12551731754078807,0.2375831785031744,0.3205821879853205,0.3556498495349619,1.3867127080490678
-0.38078056894842677,0.14694570568690885,-0.0663524439460269,0.10484760548579426,0.25807286657270145,0.3088777103895658,0.3496120031400107,1.3924803309166733
-0.4189240230273508,0.10879300703777911,-0.08962076885693569,0.05002402558868886,0.21629905995786514,0.25751278569426506,0.30751411727318323,1.3963182950611142
-0.48842075144229746,0.1211940784970244,-0.1430964686557412,0.008989303867544651,0.16867142037080685,0.21429640881487388,0.24844556433211534,1.2641074766218803
-0.46077743760460765,0.1413855025017266,-0.11896310550496078,0.06126434679867418,0.19028391482767346,0.26368437785100374,0.29715757807994436,1.268981435121064
-0.41095300601622275,0.15034438029248104,-0.053214685387049085,0.12407535886775573,0.2671591923809659,0.34592212973059133,0.38219571252965456,1.2771349443525304
-0.41512137487914735,0.15396318461197206,-0.06890351415701111,0.1275181829188714,0.2766227427777084,0.35577666430903887,0.3764447089846176,1.2219753603413688
-0.4262214679535847,0.13746535582836844,-0.08425475392517633,0.08286198315357299,0.25123309880938266,0.29697497481554125,0.33531640680643476,1.2706199366362896
-0.44760877545503763,0.14600973901458147,-0.1170005138441538,0.04904012215524707,0.17311930111535817,0.2327415222009805,0.2715936478041227,1.2524574536864683
-0.4184483856664063,0.15257764805385932,-0.08058757507635067,0.08752813191507802,0.2119762247365649,0.29482459208195655,0.3342751573505832,1.4187745961412896
-0.3672849017931292,0.1423449319461712,-0.028299930219826602,0.16304876534311818,0.2773953889139423,0.3697584511411845,0.41703806708169316,1.3944073232439553
-0.3641684918046849,0.1366523359728249,-0.04006778761617304,0.15489999179132347,0.27395260083026945,0.3717321476898651,0.39958622314764536,1.3906830847354987
-0.39731944205476816,0.159635606051732,-0.06344671617213832,0.11053623386192434,0.2168220674841947,0.3137244938148347,0.33753495633744207,1.236371658981687
-0.42987576149974255,0.1418405514828553,-0.10736940931518371,0.06968498090365781,0.19245357682125672,0.26135913004067113,0.2827051269912404,1.3353670377076272
-0.4369864760985154,0.14114965644487487,-0.10147831333017902,0.060584564519796505,0.17988185807986712,0.24309766050000392,0.27009859613480774,1.2615969614624751
-0.43081766477409367,0.13786486574233303,-0.06001617116945401,0.13947430659414473,0.2744323943462953,0.3835335798800844,0.38944643534433054,1.2701604557271913
-0.4245797894383451,0.14903498684999117,-0.04246517251977011,0.14696438850991136,0.258730810375711,0.3688054516144884,0.3917843190175444,1.318538458963363
-0.44088494040385473,0.1461926643870637,-0.07177551547886457,0.11480431130514432,0.22623735431800537,0.32100374039713675,0.34908047135700215,1.398697299625627
-0.4790433957965797,0.14459695896395713,-0.10738253154959965,0.0782425603118708,0.19629482200855625,0.26203410522459214,0.29080816451151476,1.3512682939268932
-0.491133435716433,0.13047051071467303,-0.12315107824753933,0.0490023312576376,0.1778857420095578,0.22841993131886162,0.2474979661755493,1.3518602734024536
-0.4395579491425909,0.15396816939520525,-0.06645659236234576,0.1364702910322202,0.2796493107587176,0.3306519715118246,0.3608312063411711,1.3053615775951144
-0.4327353008331477,0.1575970949386084,-0.050879930186472605,0.13037459527050924,0.2793122139298123,0.33988980850597617,0.3705490079989004,1.3346722164168132
-0.43673706425989994,0.14777592175659732,-0.059576507760880776,0.1117336877401934,0.23815911195292114,0.31642099002420876,0.3429178633309757,1.346025886054319
-0.4687303846969548,0.14182217870770147,-0.10283226353337634,0.07118850151708961,0.18830156636042855,0.24399601948944094,0.27876173973196516,1.2438351500550289
-0.48603995310378245,0.13968229872282578,-0.12020301265474274,0.04561198260481736,0.15914358408084706,0.2019028345711452,0.22986308268586075,1.2913835035036128
-0.4255433956263257,0.1360456699313835,-0.05369422061811546,0.140902284615591,0.22377250201664212,0.32006167191187646,0.3483834052971083,1.2968462288322096
-0.41792175248812147,0.1635370650610058,-0.05041481493434882,0.14721197071834935,0.2618489491139157,0.3372698811548632,0.37047674170905875,1.3831260042753644
-0.431049641960406,0.13586778407854022,-0.05715776529892079,0.12247778092242548,0.2427702585498067,0.3243786958658777,0.35561536800546123,1.3647071813215796
-0.4450281467152116,0.15161581449665484,-0.08311194138531904,0.09115164866635816,0.21671416784428332,0.2630710584946781,0.2969612995570621,1.3508302546995434
-0.4625715496501741,0.1267720421247378,-0.11537696855054101,0.05214535001481596,0.17054584441102774,0.22345141353078607,0.23937803604485744,1.2975151853138667
-0.44477877565541196,0.13399204580551122,-0.08410165086530802,0.11101488298626318,0.21472217559944168,0.2660521108973801,0.3019574848873704,1.376579905494612
-0.38044999824335707,0.1559589191075777,-0.021928740795537305,0.17238880704483273,0.2789811156824491,0.36833139033915563,0.4053220366013708,1.3969937003870214
-0.3948780244531639,0.14481169782867637,-0.03860822499153202,0.15080440346079863,0.2725836286252908,0.33721771141678375,0.38001689425615565,1.3846523648186109
-0.4261912846369452,0.14150073236212335,-0.08085873345539422,0.10688043752725701,0.23163344671473543,0.289265135228879,0.33116128440981124,1.3218465455318533
-0.44951234508239485,0.16152074877110317,-0.11323604845250537,0.0616010708102252,0.1982618452126263,0.2505551536465996,0.2705564563324768,1.350531325737491
-0.4443929647476061,0.12810618551140435,-0.1095997290551018,0.08133963677214098,0.2022812840981449,0.24365320185675515,0.2885146013783687,1.3858750400368287
-0.40747169639491254,0.1307058645888589,-0.04529385579697062,0.14303002647409113,0.26281851952933666,0.346071979642086,0.3870825537405024,1.4577370102820708
-0.43210826203164043,0.1224549300632885,-0.0722193345932099,0.12336692582460215,0.24441806071857525,0.33694515621090854,0.36517533166009897,1.3221312515092105
-0.45323210807290115,0.10878283743734274,-0.09228773698256097,0.08637735694999277,0.20965914309541112,0.28697356540853297,0.3143978514663641,1.4125827338669592
-0.4952751072566841,0.11230730721604987,-0.13954802293870425,0.037299561362888284,0.1627107339757019,0.22851146268862524,0.2431073204997154,1.32936502868011
-0.4772709273051622,0.126190170582818,-0.11381714238416467,0.0843517362532396,0.19628334807017989,0.26969638877393975,0.2971399379080634,1.3845389647532922
-0.4389052744255598,0.1612460762168303,-0.06381744899919135,0.1310225508346109,0.2415333582982918,0.33014081780380466,0.3874211573645603,1.4078468010925573
-0.4308182829700435,0.1324584964853171,-0.08519952689952037,0.11343345651245546,0.25972424039246406,0.3222815104993727,0.35682579416498933,1.3686614684105316
-0.44577861901382254,0.13694153658454106,-0.10458678731034035,0.08437213574228247,0.2280916134718883,0.27681870536844017,0.3100814261787244,1.389124830724266
-0.4688437827032323,0.13453939665186698,-0.1482324862471793,0.034705933099597214,0.1675666656434528,0.2215594314364287,0.25902849883885304,1.429903710834173
-0.44297963552152514,0.1318098639704472,-0.11115605977075366,0.06387006531073437,0.18511605646395207,0.25472318144121453,0.27872881150961504,1.3816463286173206
-0.41604355366267065,0.14241334495335212,-0.07423783410182558,0.12784770760989753,0.2557727039168906,0.323547865267574,0.3652075336711732,1.3526119397341816
-0.41865417420793194,0.1418457187946563,-0.08054417731642322,0.12227047411817435,0.25578524204610836,0.3225671621957139,0.35826221082727083,1.3155178217387948
-0.44652853742472853,0.13695189678663844,-0.10765267161653867,0.07929064028396787,0.2179309025638488,0.2785380954365695,0.29161079178338234,1.3632971366811106
-0.4657444871690565,0.12972352764146505,-0.1420446363586912,0.027529044217325244,0.19439902125909286,0.21393260308582712,0.24419344995860082,1.3361170309153483
-0.4760821510992893,0.11191795728870019,-0.14321797476586726,0.03411203192572333,0.17922230537553852,0.21106994761830442,0.25037709674447317,1.337256194967612
-0.43612731276216543,0.13303849047275546,-0.0883118710240285,0.09974042624243691,0.2570723505150989,0.31765860892140524,0.3581752273398875,1.3116848077070802
-0.46250681614090566,0.10951676822558226,-0.12228037176798243,0.089918116274733,0.24668971066327494,0.29499492172699326,0.3460528193302398,1.3899488738585561
-0.4795600091663257,0.09820519954326035,-0.13452417424875182,0.05213609951368944,0.21436292784062558,0.26389210410271946,0.29117825031410793,1.5367467121654244
-0.5203483596237598,0.09982439884268923,-0.19115417413200675,7.688475579311072E-4,0.17502231955139008,0.20606138077203268,0.24528021869674538,1.4226822654229394
-0.5110403743438577,0.11302916472911129,-0.15520044117448883,0.035544789277190264,0.19287468624475362,0.24045338834469188,0.26612731846764975,1.4358800925287136
-0.47296007118074546,0.11009150156581249,-0.11454921620790808,0.07889865114244177,0.23234218886429348,0.29502908331688915,0.32776158542822154,1.3752082067738904
-0.47916924514095416,0.12340789878299363,-0.12613558219903434,0.059811568558452766,0.22578368971641574,0.27173758766386835,0.31113000154592435,1.3937388359432226
-0.5011005160230302,0.13042540385135715,-0.1489596118315258,0.019214427584593352,0.19864989225569923,0.240277308623098,0.2474437671206117,1.3614231357399702
-0.5322576843090565,0.10740098794229774,-0.18220511293009278,-0.027953861012817355,0.14357653010269944,0.1638273922205402,0.15961275773278089,1.349896276086449
-0.5339723196002898,0.08708490772573685,-0.18536285407160183,-0.016916536174307842,0.12732389295197374,0.15487433752953814,0.18649402437710821,1.3803237635704637
-0.48418600021186126,0.12671499128659341,-0.11599747481867916,0.06859941940456586,0.22756749242312135,0.2614039542931966,0.29226243994665896,1.481622496585683
-0.509673452353571,0.10276168335123975,-0.1300769779495004,0.049960851880695434,0.21880067312583545,0.2497841051927563,0.29312315129738653,1.4494643621577288
-0.5441122941112874,0.1050168357220993,-0.15784839600011705,0.011100480561396217,0.1632124345001879,0.21575732071245649,0.25851869450568005,1.3213919801763268
-0.5579491141290421,0.10032682310535707,-0.18166400153734075,-0.020640851762935744,0.13612750257622117,0.15825892566588035,0.17963162450607226,1.3361425634609316
-0.5730013550475348,0.10335274310381326,-0.203164651682276,-0.049518883935221004,0.10672211964720842,0.1330303400466876,0.14567554900046473,1.3474255002175057
-0.47288456010225044,0.15975848611263954,-0.11011389587964152,0.06500637776448923,0.23347167571683194,0.26829709659507484,0.30274110349071265,1.3994385347126335
-0.40861586982677256,0.1573014789488007,-0.06370167035872822,0.1241618016541177,0.24764105046504067,0.31487192478368775,0.3146750459345983,1.3560806141780277
-0.39317243392437884,0.16183572794461776,-0.09045642265121076,0.09171482039877125,0.2410578573695407,0.2663203114942515,0.2988299059907463,1.3660036299532292
-0.4176265405378249,0.14052970081989208,-0.12420687209957393,0.0497142490255372,0.20010041816314011,0.22396966791004289,0.23248821099924888,1.4121153538738573
-0.420070106477469,0.15641806067236363,-0.12353338379125053,0.03433441331795471,0.18123463422055294,0.18399347299975577,0.18958669177343956,1.4208980302884218
-0.39055995122812487,0.10970297454656763,-0.0784872405697852,0.09008214383591583,0.22041433268008281,0.26002471446133063,0.27361200655104406,1.3676261266539564
-0.4913540120684862,0.12290768327160057,-0.13019437872982,0.05297547542277942,0.18120157843091086,0.2265097983319066,0.2591972283921811,1.4416192464653879
-0.5070664937112459,0.11840622743514362,-0.1348245680950268,0.028780490203066306,0.15263482482066804,0.1882517901328308,0.22603436296926985,1.341907227123153
-0.5428401761507586,0.1027338771351089,-0.16169280142260298,-0.009894094857023153,0.09543044065138608,0.130022387091917,0.13468446702551018,1.3345907456403294
-0.5784327883202609,0.08230553396499873,-0.21151754688635505,-0.03829968962678259,0.056292335096929505,0.06947269241983682,0.09215739371827214,1.3274710506880263
-0.5403374991105959,0.09494104286592281,-0.12790260823726762,0.0435976355645306,0.1402464729261528,0.17959115005088128,0.18684492238664013,1.320870175617821
-0.5108151083648922,0.11205520486815346,-0.10879543976738704,0.0926256897843945,0.17898152175593024,0.2213657072640156,0.2508172518196717,1.3886110365644269
-0.524265826748736,0.12281625841218585,-0.11302351331607527,0.07098863658795483,0.166118367165976,0.2101540283701781,0.21549763064723504,1.3696570811896507
-0.5415455530419521,0.12464827949414264,-0.14459043117060827,0.030346929219732227,0.11962030352030886,0.15374110099068294,0.16236739710758996,1.3927017461925688
-0.570967455104423,0.09639463593129183,-0.17748997271901737,-0.004981735957367131,0.09992945597772782,0.10613307334435942,0.11010536444339032,1.3824689330438709
-0.5830155261859739,0.10603007355230526,-0.17349504804521967,3.479698783074997E-4,0.09326636223394437,0.11781172966912204,0.12900786642096806,1.4013921692036595
-0.5219946290984372,0.11267245982474372,-0.10169590642228182,0.09772692693704976,0.16949588062021784,0.2096819953082279,0.20177146912692998,1.4458779153090515
-0.5057008341503971,0.11473634694279661,-0.0984838817030941,0.10631466057325085,0.1894338007795452,0.2076729158944968,0.22641663980066423,1.3299644459766071
-0.527320285316816,0.11745974781964769,-0.12863944328336355,0.06564660075638572,0.14374501954207894,0.17098716082803195,0.1725056205394231,1.3274154180675872
-0.5704244663142235,0.09012724254506926,-0.16792548094356569,0.018700320449610064,0.09460698490331756,0.09214372751959932,0.09024765668567926,1.345696306854753
-0.5843400022376743,0.06774817269899708,-0.18561741040181168,0.0030117409784779503,0.08875328230833326,0.07398870789792455,0.0864551398723096,1.4225045174681474
-0.5393506197198258,0.07391002176963002,-0.12172632003061482,0.08164531784285184,0.18245628902725064,0.19409471126808542,0.20324718592799557,1.4256909771987434
