0.003270226511925959,0.15897883348535674,0.08946651058338179,0.07412980470559476,-0.1149794943790252,-0.1532016522303205,-0.08758983564842679,0.5413469123768808
-0.030381228135316102,0.17834764567115655,0.06092405195910512,0.01910409274248084,-0.2006806839095335,-0.2174485793577985,-0.1859092805043111,0.477784953722283
0.07818488788517962,0.16634379425731988,0.15487492619912646,0.11944606031045575,0.12005767835546338,0.10265974789308442,0.10048106835287617,0.346379365111466
0.04034039347806753,0.15700142118070415,0.12651223448934393,0.09454479300802011,-0.011586631358281337,-0.05825121328282816,-0.022703515643036017,0.225394863608381
0.011387239584614224,0.17590765118914972,0.10059585213947238,0.07057417020220748,-0.1235834249589544,-0.1349599551571615,-0.11505357573455045,0.13330141222811248
-0.01527440288686736,0.1302800677085496,0.016219955094027252,-0.007332277147301221,-0.23665146275419668,-0.2494144562328321,-0.23229964643223072,0.07900907231510096
0.033615999500417305,0.1430818502823199,0.14140578377961308,0.11266800070973118,0.03542744303994359,0.0367167715351127,0.06685609147139444,0.251198131569657
0.04722407234190812,0.1637877486266966,0.12331635387519017,0.0772378175839711,-0.014354163556857915,-0.01745828801364851,0.013832427701720041,0.5018752133688956
0.019182892340730087,0.1700643674102129,0.09271655128891496,0.07448908238259548,-0.04287206325774528,-0.07673479182657504,-0.08602919086460009,0.5386560376164482
0.006894310820187128,0.19632303730595427,0.05418966831487502,0.046738013984501406,-0.1725769777457834,-0.19598645441699486,-0.17243312379093573,0.40704317959360137
0.04467605321220659,0.1641868107421596,0.11965044949767262,0.1176450858407395,0.04298351394555067,0.01746338359031031,0.001134411391814919,0.46490224393075247
0.07094714408821814,0.2532960224760392,0.1323351636126103,0.12117494753899624,0.042744576419747354,0.026459531393337912,0.0016761358975541276,0.5123698265329824
0.012116520326456557,0.1518429801108632,0.11045325363425983,0.07803691674353296,-0.01744595579252578,-0.06988076515600633,-0.04443256159400954,0.3430198769764913
0.0016973309704157715,0.1322038688451639,0.05704973590080031,0.020019725766639452,-0.1504470626302683,-0.18947306278993023,-0.23186999494856517,0.1729066485369679
0.020022803149534002,0.14633891079469602,0.12090571786294277,0.08942379102651685,-0.039651455651503534,-0.07092403718534286,-0.05314829774970641,0.2208811248339559
0.06157912883746245,0.11620297543921342,0.16902187324761642,0.12304580660999076,0.0915668986431434,0.04401871666305645,0.04516665307943126,0.2917687839945582
0.03107666013476849,0.1750166477644543,0.11924824363996465,0.08704078220554358,-0.006625843982408041,-0.043783226887367466,-0.08306662967122436,0.3874374165738819
0.016771003290329357,0.17140552103946385,0.09883824963357123,0.05363347879622293,-0.10551363855969081,-0.15087250197624025,-0.13989467351888554,0.5213587536446598
-0.01672818411315466,0.12345688177250079,0.08012740673443336,0.04770714753838566,-0.10718699822629581,-0.1410310017990265,-0.17013043963953425,0.568279827268551
0.08246786633387243,0.17111895062757781,0.14855731997583788,0.1720735361333336,0.08161984878890825,0.0902235713790679,0.09842963517466129,0.5635687163543546
0.04192121547210676,0.19154944067707375,0.1251554573001614,0.0864696618640905,0.0050108602226738965,-0.03550321876029401,-0.03434295330413096,0.5781549397284184
0.021494008609704504,0.18055498561818775,0.10574587220143786,0.07269107983061875,-0.07980992947921661,-0.1261042776856486,-0.1227657021031525,0.4143680431325527
-0.018501503338136837,0.10830261590474542,0.037450353252396616,-0.007674151024364011,-0.2366576170395576,-0.26694364391518716,-0.26187137778734215,0.2785214129772145
0.07787087186732924,0.11248811945419389,0.13735506256565974,0.11977391156557134,0.07111808809886022,0.025634679846315064,0.0172390387283883,0.16154093036080974
0.049664379635981394,0.16957029765337697,0.11892212107790794,0.0741672437839029,-0.033255166686418605,-0.09224084135362523,-0.0514227856676384,0.07214999278267184
0.0227856694929054,0.1846610568714009,0.09346010969597883,0.05565423133789864,-0.049848492016934795,-0.11423074782119877,-0.09640532657051434,0.25494321665889136
-0.016213211813673294,0.22868653197815875,0.05954377211913577,0.02887747828976426,-0.20905589318146395,-0.27128906711388245,-0.28660367051573427,0.31211579960348196
0.04552277493870158,0.18912997248414493,0.1256450823954268,0.04235785116106194,-0.058501451420676115,-0.08734570045823656,-0.08859756994550683,0.5657453444424587
0.05387614404701573,0.17152029752282894,0.14213254830414088,0.09843331822542156,-0.008958110977567893,-0.05367774222482991,-0.10804557483499362,0.4950647104595282
0.007070469130219839,0.20336108211985462,0.115483736186267,0.04702837145764124,-0.07501206600184376,-0.14088629963101673,-0.12688618211161512,0.43848360335809294
-0.013434640896348887,0.17966456935936173,0.07869331163170686,-0.004438269425680118,-0.2084000765409887,-0.2703638519126101,-0.23860169558871455,0.4274250112448433
0.008819444759314236,0.2001249408485263,0.0696330688845713,0.05243763497197096,-0.10978677607005795,-0.15224543824408446,-0.14992916763028868,0.42966362738080555
0.04916527185393189,0.1275853904176945,0.1413370763438358,0.10012672098265656,0.0469691535073031,-0.0344170456187081,-0.054247531323147295,0.30243208554063694
0.02669097484703367,0.13142595535114188,0.08780118412381258,0.058271315363539314,-0.1036950256629211,-0.13023223378140292,-0.1323252064210246,0.04891420216013137
-0.0014246813796626534,0.16613945342127034,0.060690999964468084,0.017605576628616035,-0.14453637579004952,-0.23071103707958435,-0.2395504225566415,0.16976992098341534
-0.022439146125876497,0.12993756007034932,0.05578234230263662,0.020972680627624873,-0.14333785366598317,-0.24808022126076143,-0.24332876822459332,0.2598100220554214
0.07168756178045915,0.21361291168980087,0.1671514934229348,0.12237194076372447,0.09550058918071265,0.060079485403044176,0.04010478711086962,0.5260755154022754
0.03275179328733568,0.19326366129785633,0.11871353145547549,0.07122964192995544,-0.006083743430940365,-0.052494254128573496,-0.04406248734013879,0.5067513482204837
0.018170982557193543,0.1914892064331653,0.08767707843347027,0.03782511767566358,-0.07435733550748296,-0.10373402583876558,-0.15101470781247703,0.5699064665129991
-0.03336492714910019,0.1824154311568771,0.04393792997713039,0.004303206080354215,-0.18524271960193853,-0.22244298121088818,-0.24273708080928946,0.2576834711904367
0.08177126754000061,0.13968552823062022,0.1458860199147808,0.14016275426798197,0.14482502585488588,0.11518537186000614,0.14526273324497144,0.5533007574576816
0.06040753223762652,0.21910694807812983,0.12273645174883485,0.10891939712636634,0.03803162050680881,0.02822418445701074,-0.004596184002833701,0.29040690783953094
0.020896372144842548,0.1012333330154526,0.08020310490952318,0.09245553975003969,-0.03372168482651205,-0.08490446821059668,-0.0667419918969387,0.12038899870682716
-0.011155145372461615,0.10087368239359051,0.047827914173543276,0.003919947497287168,-0.19149358979406958,-0.1849854702324491,-0.18737994336641606,0.12811891577848283
0.05768270037107842,0.12168931073601713,0.12125683049674565,0.11444253696344349,0.09337455213446959,0.03402825404506249,0.08024842709633516,0.3080673202934365
0.06036710659373207,0.2219758628343692,0.1386576256882977,0.11883046273379681,0.09282435983507077,0.03644047545910522,0.07171251052190834,0.4538529763823837
0.03751132395533019,0.23079712543275327,0.10761210624751377,0.10167337821784293,0.03767483696356878,0.0034063276658629453,0.03090102018801512,0.45341687080688525
-0.0016432413696048993,0.25007769285790116,0.0686317353884995,0.018848694998825175,-0.12549290482726883,-0.12906847553915352,-0.10424909554921301,0.4483525715952461
0.03277631667415398,0.20884054108584668,0.12152340064267565,0.07235523912662625,0.0685422539262275,0.028964447781841242,0.05421988568563502,0.47264316500143094
0.04156391812223405,0.2155635474746273,0.12525700924238545,0.08878146529251825,0.11112757359911327,0.0502589927687894,0.0787966567186503,0.5311790086303395
0.03441356034274843,0.16291844205367897,0.07655521408495651,0.08499769819591689,0.0582857547075208,0.022554059551071478,0.03480665876068739,0.34925470800082936
-0.0018207211790760814,0.1308542811225971,0.0874331648693789,0.03294385230757238,-0.03477391817626179,-0.09309587917040563,-0.043999191523788304,0.07836089561598068
0.06182175514988764,0.1462152438515566,0.09594810609861451,0.12037631301767783,0.13501903310273083,0.09034366943512809,0.12562382366997965,0.07372421790718836
0.07529646670022914,0.15666686540760183,0.15052916450672482,0.1482642389812878,0.14324156830588342,0.1239630114846131,0.1693925316683991,0.19655848804127773
0.05389596285450252,0.13560467485985364,0.13070191869014453,0.121965301765336,0.09532381858922391,0.08230757416875094,0.09385246861627672,0.3411736589909714
0.03328918768227897,0.19837705336567227,0.08974523953649387,0.06535259735554608,-0.01332101388739515,-0.038142741604349634,-0.01493281133280852,0.4685639152884152
0.0544076148127466,0.2224609721372773,0.1455835147635664,0.1357405269904974,0.1881968686989441,0.16974995380439012,0.22172985867098383,0.58613142725463
0.07677767740420201,0.2033864970060604,0.14694505093201707,0.12710339974160523,0.22726125046747092,0.20462941688429112,0.23765674943619874,0.6410226296433077
0.057649096330636494,0.23510798037745484,0.12426754940930809,0.12683686318434537,0.1659672980728263,0.13386691498891443,0.16311329974044994,0.644136232835851
0.029668410132204597,0.19879083176487067,0.10009072719720111,0.05058876204576391,3.15008483513628E-5,0.020799072372473613,0.02154566576367315,0.5318858040872958
0.06726714251528791,0.17571674738793988,0.11630950735627024,0.12975268671884188,0.16890057874091816,0.12120278141503847,0.14198483902720127,0.31215237137314905
0.09282445234451837,0.18009897943881562,0.13825686745413976,0.1284195995596207,0.22184722795983192,0.16384808385490238,0.17254338201535507,0.37860506409376465
0.05639539641754972,0.200074954304416,0.09781225163846109,0.10104866657419513,0.10421415073918248,0.04884881967825825,0.08817966837570732,0.08682439639451683
0.018877370506198168,0.20650516519923198,0.0803139699366714,0.0568576815831431,-0.034074491962609664,-0.03343814551009563,-0.04225290752988675,0.45574530683378944
0.027118621803687182,0.24040153525471186,0.06234267109326225,0.07804105571145545,0.06723894878469591,0.02714217320535424,0.07930298663058426,0.40356810958459777
0.08021790285758508,0.21292374481978898,0.15254674579876185,0.1466737629629309,0.20566383567838492,0.19058686724323465,0.1955290418653378,0.45045007271865795
0.05427419424007443,0.24109876293057453,0.12400565570414061,0.0820782147689716,0.10025852548266118,0.10196800830161909,0.09663697174785812,0.4417481953769959
0.028805170881940862,0.19444090644376796,0.10166708114500696,0.06862610001279629,-0.01887374158981561,-0.010947681472913322,-0.02393528154037528,0.43230184790764137
0.04275201440177302,0.25361942911924,0.12118811450489192,0.06747979843530823,0.05964174296385332,0.0448078346261362,0.08561911093033081,0.49484546580357325
0.10166111314523546,0.21195326105958118,0.16879862676274443,0.11355085990065243,0.2099594873538184,0.19750293020641613,0.26004911590037183,0.45199797988451756
0.06632706582249855,0.1644730703740883,0.11696994663530702,0.10443975082314767,0.1201242122031146,0.0984906117249693,0.13777974081400501,0.252047592019821
0.03570391002014151,0.17132234883814318,0.10400911935740259,0.07338535040839358,0.021050945257962583,-9.927266493417537E-4,-0.0151197431693321,0.056978183569190315
0.020771084006828724,0.1647456874485627,0.09457734166898989,0.04889382905790176,0.07203440479408517,0.05897461241982992,0.10212895361132207,0.2860135145694229
0.07833282870940625,0.2239032337002767,0.13560454570664895,0.11015216314104107,0.23538706662927678,0.2337150625641997,0.2720089680735279,0.41374993869615545
0.04388224177884722,0.2387894168682986,0.13170966097359105,0.09552110305983785,0.1657136538809441,0.1119030779334699,0.1800507793946563,0.4607897757305404
0.044609699512696575,0.22531323031353784,0.11186085378913149,0.07086304655878392,0.10259818250393957,0.06801709252333207,0.08481433415425489,0.4344973635218224
0.04525397293188071,0.23358334157493568,0.08563299204864507,0.05929646532985578,0.08484268694022641,0.06514104203322164,0.06333456378626483,0.5231005419780246
0.10959202444564836,0.264728536513871,0.1505059371107659,0.1482304126504588,0.3109079624208531,0.2517792541563462,0.29885996320950303,0.5465388235478255
0.07568561068768552,0.2372223597923327,0.11842652719636836,0.11756431023180099,0.16209260089318814,0.2066917424362096,0.23080043636666975,0.44096047838644453
0.0562234307129379,0.2077253636898741,0.09075471254805242,0.08543422281252527,0.10166738011743018,0.08468217563735907,0.12762102301284364,0.20424602811965922
0.029316505907303756,0.1550937174238064,0.06533046554611557,0.06469404746162337,0.025033640573053698,0.01767375010599556,0.030124523479982557,0.18314668548358523
0.10259990351442343,0.17848209887704208,0.16136157728610287,0.130601986464818,0.2813512216142811,0.26991467835839533,0.2868378469177621,0.1514385219060603
0.06872911281963806,0.22261618129172903,0.11772966661828196,0.1097429767912921,0.1526921473639166,0.1498685507825911,0.168184048891127,0.3791431508746996
0.0541634001857242,0.25318621327100277,0.11508528938462714,0.054730476540666116,0.09459870798164748,0.09553569761559681,0.07524403604683653,0.4838379533360678
0.008278161697781094,0.26443997617694853,0.07465790892089524,0.035555977550890565,0.016644971028586784,0.0351255242914627,0.024509860160896686,0.4852798340738569
0.09756945011315814,0.25620012999198416,0.1686001252619646,0.1298449398473454,0.27477111251423797,0.30345992356194534,0.2771935726220977,0.6060719095967619
0.07834250909199113,0.1979583189305616,0.11778387114963113,0.09080617971326337,0.14767009326668404,0.16202045447511895,0.18175902325897622,0.6169560878026582
0.03470974667280595,0.23094587121257507,0.11291919141516484,0.07715379992464755,0.11062969479766571,0.11059008244893806,0.12690656182990412,0.5988312244380025
0.01559374367407158,0.27627147383079514,0.056142938026796214,-0.028372123272925157,-0.08774690622929213,-0.12107731766280122,-0.11220503109514494,0.35173546621979146
0.07207017327571683,0.2322673725928091,0.10931995020207076,0.07053331882116054,0.13802829997392338,0.19406975178243668,0.21963503846848034,0.2344643174580147
0.07941579028238777,0.1825484109140153,0.09432748660826158,0.04551453706309109,0.08188184454071452,0.09905411331455334,0.06961993951676047,0.24898422095891393
0.031878504010640726,0.1870134963378646,0.08161609688400472,0.011158576674837134,-0.006674453578370445,0.026561102010599538,-0.0010328262270277015,0.22200775584756935
0.006673322345753195,0.24910127512934443,0.0502329432612091,-0.00909413164744778,-0.09083230616697092,-0.09343527697040785,-0.04121949083663436,0.3779728776873695
0.070474078886269,0.23420977835801374,0.1279090834377081,0.08212645205717199,0.11033535389312267,0.14625419874886295,0.1577584524250485,0.5410668314762338
0.059536991945959315,0.2521113338612038,0.07941798840330817,0.06243686044900439,0.043606203984198955,0.05354576864615804,0.08771298825982876,0.5507794045776715
0.019482358394825535,0.24447976400952476,0.07658109837828318,0.03429260074403485,0.0170451446177936,-0.04788886465896926,0.012806109969114684,0.5518532240887837
0.014517835124568213,0.25356394865819665,0.0388720544492275,-0.026216800093316773,-0.10771591196842822,-0.12063981117205468,-0.07589221010649834,0.491720251226013
0.07470493744820608,0.2262355405055188,0.14812686648074883,0.08030130659458917,0.16650833510341606,0.1595154399865956,0.18866405820628343,0.48653625064470973
0.06316696787726964,0.19878670053674236,0.10165006708502378,0.07243889793063082,0.03321398010696755,0.05957570343574839,0.10481222759363427,0.2809674684786207
0.05392532232982794,0.16649940978043537,0.10438575327205311,0.04908813636287199,-8.260337406883065E-4,-0.009042889439407098,0.04145092945776496,0.2125097441778679
0.03993190948590995,0.10965711840180047,0.05110856655837395,0.02887358267336353,-0.06402825005742951,-0.08618705100862999,-0.06422753180064147,0.3215824350024556
0.10595248480853725,0.14389604215745955,0.16541995479057642,0.12735460021974188,0.22119021848541492,0.214284208734769,0.2722819925038025,0.45243124429164605
0.10944343342811375,0.13850315007095518,0.1658581680230962,0.1156728281210024,0.14567359668730792,0.1415908281943056,0.18876859356998008,0.4670697600134889
0.09309966051913067,0.19974693719460002,0.11581498989168838,0.07428889716445886,0.0674711484277588,0.07593959015046373,0.08622058656127667,0.6619811406378404
0.06833200173946166,0.17623745010612862,0.11673052136977534,0.0725060141772002,0.016127258746545425,0.023491149360737266,0.07013519946656553,0.6420794755830209
0.15403814973953178,0.13117254873515538,0.19725033812573092,0.16259564900628543,0.2803982125152632,0.3108041383082391,0.3392779462616569,0.6497825993338527
0.1210131369028317,0.16369733755501284,0.16082793909174162,0.15768870564960485,0.1335601684891325,0.17096860766777672,0.18091171573085324,0.5565217121515434
0.11220820300426386,0.13555983295939056,0.14455489287631978,0.12429491957155324,0.05004714623646323,0.06849094517480696,0.1405627400424399,0.48838597615406365
0.11428907863308264,0.14254896860333952,0.13941725204574368,0.1212644857863519,0.0777603265410161,0.038624611582112535,0.1017182998391319,0.21414936312712252
0.1634933545609932,0.08771608029364893,0.25702595936972117,0.19555003367493606,0.2512718925499682,0.23185210932663414,0.2594755715447059,0.07474932388821566
0.10674320509977811,0.12877340554031136,0.18784926550219394,0.14353194478776202,0.07270958221746188,0.10374954167594663,0.11579711227366259,0.37192996985519455
0.06611745436263722,0.1021696622590443,0.08140755503630152,0.08812218448714104,-0.033742107411494394,0.007418971307366235,0.009186474238665907,0.5499828360588099
0.08742103602686122,0.1137893245421231,0.1201787230108566,0.09220222163441401,0.05551922947836618,0.08250448301458438,0.12158847123824053,0.5616991644379089
0.10877537110910077,0.14340814155479306,0.16762679812749431,0.14225159924665445,0.17103765548021338,0.16755480983856763,0.13506249362543954,0.6163971893501762
0.08259831629742616,0.1661476737306804,0.10918157564757457,0.09419957691267801,0.05613437979565129,0.0513079750376537,0.08616689899517116,0.45716783574478187
0.04903934148642779,0.16206205468714027,0.09190259833698215,0.04944008539388721,-0.033993871712929315,-0.06865187702487355,0.021108123063597748,0.545839406905828
0.12226828129324702,0.16401648285988232,0.14996298066942854,0.12821061905129205,0.16020296302096523,0.18201985580122557,0.18249495611926506,0.568060490784214
0.08940025245252992,0.12660305076707845,0.13543339476076274,0.08300376982336956,0.057077975334416185,0.0790754598444984,0.07897069071678248,0.34238478502133846
0.05808861785025382,0.15274158399977056,0.10193338950228738,0.03277927452501357,-0.04845866370267803,-0.031513568624422394,0.0028626702325189783,0.2597278753875464
0.042024530743069895,0.17415045336689744,0.062214779779807404,0.026468084157769897,-0.11156682252082196,-0.1020982617993635,-0.04252675491360636,0.10507999388902316
0.10996080139718513,0.17453111361705204,0.16486473605546184,0.14657858469896567,0.1917514467322797,0.21736949326265628,0.2469815215044214,0.40852605072345505
0.10402233868083671,0.18122911063765945,0.11620615559169405,0.06781671715160462,0.04283483274244968,0.057487890486204576,0.09678204742032126,0.5285411368887648
0.08130960368879007,0.20734106609981326,0.11525079344467111,0.02742108278114878,0.02936689412408376,0.012399091326978947,0.0469573867454013,0.5841557351521655
0.06925438264458476,0.15341957064261963,0.12090472757877173,0.10095045845681114,0.13040421341064104,0.10309797292310151,0.13397525982234626,0.47418564328597596
0.11479233119802412,0.17513103733638338,0.16679701433488534,0.13125652769958487,0.2241474459186566,0.26524066244857036,0.28292225392594883,0.5517107187333353
0.09920675105449793,0.19512171599239575,0.13229351815403542,0.08940486913636655,0.1677164370654693,0.17240645011892117,0.1400515398158683,0.7006639212747015
0.08205755125421903,0.1620251417887149,0.09904110869084502,0.0450031783590369,0.03451384390967683,0.02068472691359594,0.05924389132368849,0.34967705732976095
0.14253757737678682,0.10703122900920121,0.17343564227666444,0.15823038601821468,0.26237697691451933,0.29097434721972715,0.2963523320139842,0.39342663378674164
0.11512995060435088,0.13094121852561494,0.17508457892807863,0.15156527837781855,0.2261066533072038,0.261033152370094,0.2952878866988217,0.13585993346155087
0.08753512866111825,0.14862059889398432,0.12252621056918082,0.12640360617987487,0.15874251718035584,0.1851925345842709,0.20344989853521142,0.3423048061905212
0.07340238743979258,0.1336316553316717,0.12812402051134086,0.07892959233067061,0.1183977458361626,0.10804644826943358,0.15633932886138172,0.5222056416878389
0.15901348931100898,0.17639032789641504,0.20710294729786247,0.1931240749120405,0.3749285942202826,0.39129224783333194,0.4336035254271899,0.6004865515758335
0.11058618979125531,0.19735991520970533,0.1618292423234786,0.1760168420166022,0.2424123441774883,0.2767049584520802,0.29021502133351484,0.5150022627097683
0.10213621073983148,0.168189956626597,0.14315925981712113,0.1189161234898381,0.16244190433796363,0.181369819428299,0.19118381742011237,0.5634400655026803
0.10875511125451146,0.1346903969496412,0.1428787827843444,0.12736132039886247,0.19930182889853082,0.22384830780555234,0.26715220814289176,0.5897230212943632
0.1525786904321789,0.1514154944042528,0.1790854240792716,0.17008392195202163,0.33452842749338363,0.33942115613747353,0.35628501153533665,0.5073133634624305
0.10636148787212367,0.1204741522749896,0.13158825966293064,0.13376708639964016,0.17642817964459015,0.19609010553044096,0.23219563240836172,0.3308186206794865
0.07943434521118614,0.1061830019206195,0.09665739071141043,0.09690675712455256,0.0801786513362478,0.08736426058410222,0.10041594825264945,0.12692669500886383
0.10360711765127971,0.10060969705123542,0.11104498123605483,0.13941667566485122,0.22967509243826228,0.24712421246150945,0.3159993021206748,0.23798795568075742
0.1052401450510682,0.14789649173477262,0.15176521442916255,0.10467945104462681,0.24481197747294392,0.22796634154574674,0.30087495155190846,0.5107465010777088
0.09827708353895073,0.18811571490462303,0.09294699284579416,0.06934203379220108,0.11877470239600685,0.1368467058474271,0.1451932370395479,0.4633002369570338
0.03568620746098685,0.17737021305039238,0.045412237311381956,8.450396400777212E-4,-0.0013607616415937077,-5.166567094940201E-4,0.04629159635422073,0.4870776787148426
0.09612685599569933,0.19061280655264692,0.11781176745293659,0.10140500846501307,0.29675584129123345,0.27824570055649944,0.30079765447665485,0.5704294455422639
0.06880044677679165,0.2203479059526384,0.07754504605690953,0.044052906005319435,0.151070186165106,0.09974314723063683,0.1532782214093245,0.37679248661110015
0.03757432338762494,0.16847575497760295,0.026996984976648025,-0.005353434941894964,0.04068875631322804,0.059259463062983984,0.05932748175608119,0.5367368370508964
0.018717151031484056,0.1385306292856775,0.015699066648896125,-0.024953441929660515,0.01644813507500612,0.02750986868500801,0.07325916399503446,0.4096485138672278
0.0815747173606816,0.12306717279001678,0.05523383269367737,0.025073611413881536,0.1796374563047838,0.17640772123604825,0.21112506534679498,0.2491535904511625
0.02449917830375531,0.12758944007696055,0.003916706716022016,-0.04325264135202671,0.03248612674884674,0.014757377011031261,0.029440135319493195,0.21684376024326485
0.0016367079015231086,0.13048024475462855,-0.0302287804974692,-0.054256929520257985,-0.06686571910288798,-0.05057192745215423,-0.04608333371742869,0.2199466355558914
0.05700846482467036,0.11132435380037572,0.05257326231602726,0.0186361970032689,0.1822725307762188,0.1632863909621488,0.22161222499679117,0.4454599942689661
0.0906881852240995,0.15297543511651507,0.07312939137863536,0.04751094280678877,0.1665160991302162,0.1366456108648705,0.14783873006380172,0.48130648268316856
0.03934023568291637,0.18223619142537753,0.046162143986166325,0.012085555872689176,0.06034421790048242,0.021220942660572728,0.09184549253597812,0.610206732741058
0.04221709604346853,0.1418616159296695,0.03619643726002656,0.0027123147091180338,0.03181439282105862,-0.009475697406424758,0.03695096308974427,0.5459313707362321
0.12969909687618686,0.10582888500195443,0.12716467381183064,0.10501129855956863,0.25920563671683655,0.30043085432229355,0.2915931645423678,0.5360891490981751
0.08204596332643126,0.12349622354908434,0.09128461841739915,0.06391311840445822,0.14199310948475918,0.11480682208194405,0.14968229159007362,0.47558949717513876
0.04484583044791153,0.11071903250480175,0.04727304515084183,0.02606838652443261,0.061035033793900295,0.04903571049028749,0.06989958194067766,0.3366914774409128
0.09470416565817616,0.07939732197541537,0.12317205330391029,0.07645081269267388,0.2270134340740715,0.23781099010216247,0.31013339276451285,0.2521735029426643
0.11318223296354825,0.10282267381137943,0.11540042565363501,0.10654717866826237,0.25716103054692374,0.2716593228079657,0.266463762243181,0.3465860053928481
0.07889201196181596,0.12312140687520103,0.12493970689804729,0.08959111152037322,0.1910433739380019,0.1696046024371118,0.18947050878656035,0.40535974781281836
0.048161021021233895,0.08726882783596827,0.08803083524475858,0.06735334650091129,0.08181642670399639,0.058590668912162636,0.12108771539794842,0.4690275477429666
0.13301430826913696,0.13153944977663942,0.1420823703524458,0.15235562249182039,0.3916679275334372,0.3664314203998846,0.399731656077786,0.6189598603262796
0.10158941774083435,0.17175808265853704,0.10679605544462561,0.09264275424141132,0.25385832440559924,0.23924900993988293,0.25470797124773714,0.5843830134691347
0.06510725518779392,0.14403666844487478,0.05864233555669822,0.053243592321950105,0.14608905638257327,0.11937475476502091,0.1174117778656114,0.6154491911588892
0.07918746662043667,0.15220788175058805,0.07259082145275379,0.05892292097216989,0.20092496376378557,0.1802772319331647,0.19161421798852896,0.5790079593405573
0.12357764552859903,0.17427063482901028,0.10237997110852767,0.12313410757209722,0.32924815224755444,0.32115576403359725,0.33158128174583473,0.4833186508141218
0.0735520882710953,0.10543641255262921,0.0700120181662921,0.042275000403050655,0.18039467069485496,0.14571318978634185,0.17935818511723947,0.27368286069802017
0.05465522146159838,0.0933437133071338,0.0709669684085981,0.0452092851011748,0.07980334016158237,0.06557055688615562,0.0795313121239128,0.2972641057340165
0.12403722182990558,0.12186350604597135,0.15130751907401932,0.14753353098849548,0.30374816274771604,0.330810210039062,0.2984243347881136,0.37037977730044963
0.11634278735627591,0.1825725850300668,0.1350095776453412,0.13647065157153687,0.25997438039012616,0.25280153948978457,0.26169404769215787,0.5143906508809606
0.0687953062374638,0.20695687860375114,0.0798107107698366,0.10648150673180055,0.1491446996745008,0.1403333665962849,0.16864745666953412,0.6502590309354003
0.03486153003696988,0.15169694255620608,0.07850014404889025,0.04170243256281576,0.04300107228448906,0.04901293795369565,0.030738059605658116,0.5544370735407245
0.14664583810883555,0.18288012902852938,0.18474398485321714,0.16120818621468772,0.3603512169243626,0.35637743807566385,0.36102773621804196,0.622590753094623
0.10671185686814627,0.17300967661784766,0.1280858548184621,0.08250476019383932,0.17815302864265833,0.20401594834370504,0.20860714551876242,0.6386699192992317
0.0786936810128581,0.1160085494782125,0.06310790121631116,0.07488323611569045,0.10599762705714101,0.09661828813061682,0.09942800130602422,0.47716303394958626
0.07157967799761375,0.07950462342102463,0.10425018342750307,0.06852945808788122,0.1152183993208707,0.11548426503095856,0.1346883228311047,0.3699322399685685
0.15453465752450915,0.14071908505950148,0.18363624551203742,0.1760318055140578,0.33805615715391585,0.3520153770299426,0.3301800525274395,0.3713349497374043
0.10273750193498729,0.12286721285942569,0.14388467962532692,0.0759326287782225,0.12330679371036518,0.1381411566342581,0.1521084024430551,0.3210311370685486
0.0527352526798603,0.16174440302877394,0.0938450083540188,0.02911760194343688,-0.016697961918943394,-0.03393667341959082,-0.04958846651117341,0.3322776400683406
0.11760248360465196,0.144238439229405,0.1508010077144857,0.15276082049932238,0.19782068732739463,0.18119144583829738,0.21175782745072946,0.47907498178425534
0.14984025391116512,0.16834963682036483,0.19745826300386426,0.17724385487917924,0.24499728023686598,0.2160251948389114,0.24323005974254233,0.7085409086858006
0.11804119132100993,0.1347066858705748,0.14922974954646961,0.14807513913080306,0.05486886505106458,0.09272701658961997,0.07686593292167339,0.6232953645990412
0.06442312142211792,0.1551397912305724,0.11208192083213973,0.10284415464626416,-0.061702076897160264,-0.09907491105814172,-0.07648969216700334,0.565465733651149
0.17352808172994788,0.1305008391148952,0.23517449857711237,0.23272154432049602,0.3063376107920963,0.2816981188296577,0.27399772016169743,0.6349753441036791
0.17002271560500323,0.16549077909343185,0.2120611894539368,0.1890304259876151,0.13274857405310958,0.11735108762069774,0.14453236048342966,0.47810731011525626
0.11192717749041296,0.07935251076280389,0.18104029715551265,0.14106492922706557,0.016505892136026712,-0.014686923691389724,-0.016206009574151307,0.4103377325793774
0.08175028993081974,0.11130629657965622,0.14752144546060678,0.11191955417762607,-0.0677498741263198,-0.08157932044062827,-0.11384177497157673,0.17444306352946645
0.19857967019597766,0.08749166291104699,0.3003288805355423,0.26664980402605004,0.283943194491376,0.2850466273306394,0.2585823681425187,0.43767471670199953
0.13747798902092437,0.13169641479190453,0.16707388639549345,0.16069925398415463,0.05141618508653412,0.03570580928772688,0.032503711776793724,0.42994342131103186
0.0919959546257033,0.12911318947710654,0.1559689409759137,0.12416609182077419,-0.05619744499654059,-0.08450122718509995,-0.1029795216007673,0.5601341864869596
0.11603507712695157,0.14106169168960378,0.16342333396797756,0.16294007192369184,-0.010177301870664237,-0.025646299549695304,-0.034515762722574284,0.555466672242688
0.20421360204648265,0.15382979506585615,0.2580276436031243,0.2502586796754446,0.20374262473939989,0.2124606606114705,0.19874463847086973,0.564754707421281
0.14885148691048466,0.16147091385405304,0.19811915852238557,0.1825810196164347,-0.008729999758963321,-0.056623763221976736,-0.02317346544388385,0.5286477878492584
0.10358732391844698,0.14599659914328172,0.20495127002895389,0.12932281344024907,-0.16148261021440846,-0.1694200520485015,-0.20016397455730847,0.5199187396212619
0.17990560957487015,0.1334735315568143,0.2648397190145105,0.23449435650923778,0.04968335356438628,0.07842806083763626,0.05952325933073289,0.4283751596509614
0.22113332208254596,0.08847813404785201,0.2836804949524483,0.24620465059003235,0.1324288490106049,0.12061834158804692,0.05507553425194738,0.31704762677747694
0.1265326568011981,0.056541527317434254,0.18431246140081847,0.1480241762741896,-0.10082549061467962,-0.11648406905163254,-0.14653151109830176,0.29576952606764806
0.057198559218597296,0.0674706545895805,0.14116904595329813,0.08817777119685777,-0.24953755595000768,-0.2905023299741387,-0.2955072655185521,0.39137119438558726
0.2136270068808421,0.08407835719599441,0.2551998444136922,0.2648971284420332,0.10939797473274128,0.14468724054851234,0.13783891902660633,0.6707370886054802
0.1717827256175684,0.1250798948524362,0.2263304582567662,0.22142857763141308,0.015126804773298301,0.0028947950781818043,-9.586516164870552E-4,0.775490476037289
0.1049838365640002,0.08741373812417731,0.15859850352693375,0.1312229156389795,-0.15930035894891253,-0.17735315906243895,-0.18105280137484278,0.6205846203005045
0.04201221462542891,0.12070394748913879,0.10858793641695738,0.06619119638845189,-0.2766932808698856,-0.29861018735990674,-0.25707480396107424,0.5921089679462015
0.2083451450453906,0.12460032239781015,0.3231523987542932,0.25851603194698003,0.142931866959199,0.15569280759642626,0.08009629671696453,0.6682446653458096
0.12609823111537186,0.08368655506120279,0.1766984448224679,0.13019684816804014,-0.08226832953256023,-0.10704040096907995,-0.16791457663917553,0.5476030176678649
0.05440956400504783,0.1018211229464818,0.11325264570546376,0.06880598544514778,-0.25317520354014206,-0.2641436696456383,-0.283517656692744,0.37500204570956697
0.07888010586559588,0.045672939153821604,0.11715886858059697,0.0974226539048985,-0.1502329166339407,-0.1713030803842795,-0.189199024689079,0.23025314992433119
0.17772535059035507,0.07347356020818305,0.24114418782137573,0.22240335981813172,0.0970017970123673,0.05715057961338648,0.0399162710074677,0.3305679832240233
0.09460333726081717,0.06182337428354295,0.11834736064143363,0.12347059307518325,-0.18526517481730734,-0.19850636630623075,-0.21385045722596002,0.42659306567056154
0.03002815422228392,0.10299547843363488,0.06598995128014014,0.03499432572943372,-0.3168312293659099,-0.32742496898265316,-0.3311368918209439,0.5368265351437194
0.15517390043803045,0.12059066928996759,0.22232772291690583,0.17718262653974173,0.024352444768142918,0.06933240175153134,-0.002822544934150114,0.43281270286584356
0.1457670182011278,0.12796094351082887,0.192808177418304,0.18309392311035957,-7.006465064658785E-5,-0.056695862243197795,-0.07796041430264523,0.5658683072742606
0.05894448349979978,0.137409822738293,0.10233867395349099,0.07716153537260595,-0.21278744184267012,-0.2712308493709921,-0.2810047083760443,0.4938125444074443
0.01094157754120262,0.10728319158166072,0.037053011430189305,-0.02611656540778199,-0.34506365646726517,-0.3865703428972093,-0.40907477564651723,0.403388284053748
0.178089572895605,0.07893767085857707,0.22598961967850628,0.1922453127823748,0.11755840866891563,0.0919329990853255,0.07957984937358108,0.40905397024256274
0.06897843175755679,0.02906114950745863,0.09877227528248368,0.08118475180629742,-0.17377937656525227,-0.17905248898756945,-0.19475898747630174,0.22848834769914148
-0.005595073946174712,0.038234927112677224,0.027374156420248697,-0.028927237704272562,-0.30975114751966526,-0.3390735188193768,-0.34659370816384283,0.0486487957087186
-0.02317993153508482,0.029331178928918348,-0.004539412155544808,-0.028390113580122965,-0.35497685301759596,-0.3865112288166992,-0.38760315787465655,0.30228791495278123
0.15059962821899886,0.0691451612064853,0.16170079160538725,0.1534395144662077,0.06866762963050797,0.016410505512321837,0.013929200165602819,0.49597907625432786
-0.006613372815268724,0.10880774191652884,0.02983733886367262,-0.031367630260234466,-0.29308252486569325,-0.3103967050565959,-0.3312809635057956,0.5337849903272601
-0.019917537499263404,0.07759558248643283,-0.019159871094586535,-0.08248064449279192,-0.4309931474231707,-0.41674084195250244,-0.4318349362963432,0.42350802929450054
0.014449272828760245,0.060992141300807136,0.0536399443261325,-0.0028176229793493075,-0.2418222410367805,-0.23421379500557804,-0.24909061016282644,0.485487594441239
0.05977788270987515,0.10349143070389075,0.07350801644455546,0.028574866564076377,-0.1309821309357552,-0.14592605953216906,-0.16956845082553143,0.5663063536044214
-0.04902257888273447,0.04367204997215791,-0.01879383383734689,-0.09070848670785593,-0.3944207315102861,-0.41463635046631303,-0.4236750398785634,0.2877036553925208
-0.09332971985556344,0.002982715265190917,-0.10781845090986349,-0.16027580587954637,-0.522853930513542,-0.5719763382855251,-0.5333205682489065,0.29664135939115743
0.07891708204447624,0.010947842251411719,0.10445309803320747,0.045802983132483266,-0.05581834465498502,-0.08548877134683201,-0.14260663212219496,0.31306212023441005
-0.030340879434818835,0.023372130780595735,-0.02156360547554189,-0.05383967816324896,-0.3297718540121344,-0.3330874544268698,-0.4010140718552633,0.19625491442155876
-0.06592469878479926,0.044866530759587256,-0.06741646729865153,-0.13768154481446856,-0.4727025316221405,-0.533772735151659,-0.5093375611623371,0.35291706789980776
-0.09736820103480735,0.06799806413114377,-0.10614606508818036,-0.12732288574171932,-0.4830473781430736,-0.5410163942748721,-0.5272687057789665,0.43116501149512587
0.13360316646798628,0.0860662292106803,0.14259649540243247,0.06900784918644952,-0.006333160809665702,-0.04196065012634001,-0.04297288827461632,0.624182209185532
-0.036466592320406194,0.03024561396822967,-0.002393487366322515,-0.07384120625612339,-0.3982638917681714,-0.3901571510589405,-0.41320552759149026,0.5839943119361515
-0.05657227571973798,0.06328670039845594,-0.054978344932465735,-0.09157753398291038,-0.4953886162107284,-0.5296259286502366,-0.5491334001239598,0.3071602217454581
0.019161942575756295,0.043851546647446595,0.017941695306120747,-0.035745684439314265,-0.31678042263485223,-0.34570341238418256,-0.31546372487754737,0.38838680364521594
0.1023899072884705,0.034639468059342635,0.14308881945930677,0.06055086777221981,-0.08195403523080456,-0.13094871786325604,-0.12131243723034231,0.2786073659019857
-0.0245105869316129,0.018144546602429097,-0.037493830427602126,-0.10818358222741617,-0.443652942053772,-0.47290963406480696,-0.47323920032645395,0.13356547919037493
-0.10735308798160503,-0.011846115931839707,-0.07505674235729519,-0.16871193719967442,-0.5534365800988891,-0.6066448992549871,-0.5836540846065368,0.17155673480155229
0.05938319379868746,0.03977886259328284,0.04879123230486968,0.007226342405188559,-0.16677558596039394,-0.20765211073637224,-0.2011524098119716,0.3715087961924313
0.032491293178797426,0.0732497847031178,0.05504026945590186,0.004970332824137556,-0.20457840073104208,-0.24400430562341005,-0.2702484965013606,0.43187447204620266
-0.054376146740270956,0.017655999978073916,-0.06731165454585802,-0.12391012695651375,-0.46559059536482494,-0.49790704218620474,-0.4947897389424807,0.4786720980269849
-0.1150739363571943,0.012310136701729379,-0.10948959979053074,-0.17760934007700077,-0.5600418853392519,-0.6643212433422224,-0.6210009903011293,0.38789941531461586
0.08908660073286358,0.10570080965708858,0.10493518000295605,0.08408658461127842,-0.14101827994645827,-0.140057146533977,-0.13001009995203008,0.44000090111460227
-0.0417156126730911,0.15418290041503002,-0.010395878767569857,-0.11048659435602234,-0.39358978882547113,-0.47242208047978734,-0.4347486472386844,0.3887683151194268
-0.1279359450722272,0.18647716054427252,-0.11662438723056573,-0.2133572372202186,-0.650742570999378,-0.6626736712310141,-0.6851290561873652,0.18058214929421715
-0.1964539357481201,0.110838517784174,-0.22658655392866606,-0.31721419513992277,-0.7457044055616063,-0.7378608350729334,-0.7544111419870673,-0.04802272519249404
0.022878569290351505,0.12538233353181927,0.02952251289700736,-0.05875481002149239,-0.26803733170809463,-0.2925459322468928,-0.27735289905189825,-0.05729628561120859
-0.1767766848118344,0.1667761905331615,-0.1826191936551468,-0.2670793751971178,-0.6558409041216624,-0.6767853070337436,-0.66056543622972,-0.009424892653174128
-0.22928865618388405,0.15518059395533862,-0.2298307225887277,-0.32983639263715203,-0.8157607326470127,-0.8652186728926501,-0.8258968503615095,0.12720160773161363
-0.17506293546500765,0.12669484605087958,-0.20742182572705636,-0.2781548372159074,-0.6998598011286251,-0.7333796594514163,-0.6970096765959957,0.23097647237129723
-0.0029852061903245866,0.15260498036538783,-0.009097376181882272,-0.07814359844721712,-0.3141713954258047,-0.33405687787162386,-0.33401322100720393,0.5706346280053084
-0.24004600192854478,0.1252680557903344,-0.2570049800502941,-0.31675835694596044,-0.7159186113189164,-0.7376230555913306,-0.7329332044129486,0.4848547757909708
-0.28841033125970067,0.10778319976104181,-0.3146557801123438,-0.3927828292668792,-0.8476361767393188,-0.928028974781829,-0.8967795264441141,0.46369263021641793
-0.10189902078499727,0.06973279919629097,-0.0826236035266556,-0.15283589571510459,-0.45933542698239316,-0.510649306472734,-0.501459044493345,0.5064395235355492
-0.07737393902800786,0.09436943580197718,-0.07388527469391497,-0.1251182764034113,-0.4136276496900819,-0.47005856426801995,-0.47061890474477863,0.28002679822871995
-0.24069987393160433,0.05516120737001025,-0.2910267954546222,-0.3339196420332287,-0.7528215709743574,-0.7786071459862984,-0.7990738063474409,0.036243366145028655
-0.45723991638129813,0.13881706377319372,-0.537026228173052,-0.6313667490923784,-0.8464635405499539,-0.8946884435282226,-0.8745802307274155,0.029918506154328433
-0.19579834165076948,0.3150383124048439,-0.28753293000031566,-0.2677467994368098,-0.27776580824708086,-0.24959546078323727,-0.16392857139810757,0.13811741768523825
-0.3942575319168826,0.36897647331568423,-0.49638805249159496,-0.52736819982281,-0.44684023776575976,-0.4558333371719345,-0.37321284674804,0.5381029405239618
-0.47969536701142695,0.3853357479242997,-0.6304563586919979,-0.6600032422275516,-0.5951049621691294,-0.6190408425488932,-0.5158440362110532,0.6130061182082636
-0.4762699454664485,0.42067338478226196,-0.641249554319954,-0.6769492245164761,-0.4763780314575911,-0.4934246208788037,-0.35507852566480036,0.6370998446829449
-0.20050262011789693,0.48427518829256877,-0.3333806453398233,-0.325396313450163,0.07003909049610689,0.13499456041219235,0.21008329050164953,0.7366682984579833
-0.47476317121597567,0.45367369952857,-0.6535515399170004,-0.6754700015475832,-0.04012392693297581,0.016568672385786184,0.1246553219272674,0.750538705720468
-0.5623845100025867,0.43835818774455065,-0.7474297938669572,-0.7654817919309889,0.006829278507692923,0.06452503390374746,0.1445996216000947,0.5432034957087184
-0.4332769788788544,0.4514170034755698,-0.6296227857026588,-0.6504002352470922,0.11095905953393505,0.2074338429854983,0.27527986172839536,0.3913504906271147
-0.3505529818869491,0.4768073700505116,-0.5133561421499652,-0.5212431828644932,0.1351612558664633,0.1774011098231812,0.23880560313927204,0.45667179780273265
-0.5710974002857551,0.4689000907703433,-0.76782911573809,-0.8232983460520223,-0.4710982055041679,-0.47170549335227885,-0.37946331440640146,0.45655819662342645
-0.6073253837499812,0.41622833239935275,-0.7820482267857667,-0.8662814141077377,-0.3563479758489853,-0.3570352791012261,-0.2896231336981345,0.5798942541796864
-0.3455670475441917,0.5053010125917876,-0.47453788626976146,-0.5095942578775774,0.23899431828076298,0.19624178496335526,0.2602008022958229,0.4864370391574452
-0.44054292779148074,0.455147932777887,-0.5885227350392956,-0.6899914193228125,-0.22138514189455083,-0.2270353308070596,-0.11946605756504268,0.6082518114454863
-0.5550783978613498,0.44693021085770246,-0.6714599526221178,-0.7696581627503539,-0.15086621309964546,-0.14501746428730067,-0.07928222078993256,0.5815813420715947
-0.49139553462156726,0.43376416700842557,-0.6377915730156769,-0.7239652530817459,0.13392450421773017,0.14607973345990855,0.12872671500494154,0.421916366350983
-0.1770924176378394,0.3823476101036869,-0.2386095489180872,-0.3205573576105612,0.157834440867293,0.1476030529640651,0.15425354634946298,0.5957452064363533
-0.28301549655914626,0.2680920264977074,-0.3455925191462841,-0.4199919421340177,-0.44882600039430753,-0.480697561894486,-0.43723881034199547,0.3903434146887043
-0.30491099450639536,0.1955548337460394,-0.3780855470383952,-0.4433938792395206,-0.7494428592229464,-0.7864507643731456,-0.8033067716191882,0.16937495726590354
-0.17288396635263534,0.13266086789330872,-0.23026722606548355,-0.32404269510242134,-0.5992485639322923,-0.5903813711825292,-0.5721521263516416,0.20024179845960274
-0.03347897813269019,0.14895271281563627,-0.0944601810677127,-0.13025090807031872,-0.2056419632686084,-0.258583096316771,-0.2575737069221485,0.45542879337365694
-0.21875284659891028,0.17608554223335404,-0.23460799413535127,-0.3121548930146253,-0.6036801659540711,-0.5982000635773881,-0.5999496078017279,0.38402015240243415
-0.23455185278135796,0.17960764879728744,-0.25780113438579894,-0.34451447326370516,-0.7230492447955501,-0.7430148673615684,-0.7366187537405308,0.6115922691382513
-0.02782269519386505,0.17556489331792435,-0.028489210542743143,-0.11273390957675407,-0.21004491827528526,-0.22314595375987648,-0.24516919381901023,0.6875822322999225
-0.10741639677036359,0.15726946309375303,-0.0980775443269243,-0.15455578310185128,-0.3630842405238081,-0.36628019541182877,-0.33033566755768545,0.5887152220645574
-0.2020283432984535,0.14014393104730927,-0.18686256760557363,-0.2681262308384766,-0.5863455228245017,-0.5986838052767829,-0.5396133732394405,0.5414747620025333
-0.21573463176181742,0.13889347945973013,-0.21060367140712694,-0.2746487912702924,-0.626403870544771,-0.6286661533208256,-0.61947184592747,0.5057902728430498
0.0023336172745337964,0.15304127289819688,0.03032536566662206,-0.025650232756377827,-0.05962105732882248,-0.10138062697964016,-0.04483163069702477,0.4570277389663444
-0.16034265928269892,0.13353424863912558,-0.12947274457717564,-0.2376124693128995,-0.47763996243982076,-0.46633094218129023,-0.4578505372689364,0.17141279384818883
-0.20843315969874995,0.16668897118931195,-0.1857597406919183,-0.24950857705619733,-0.6062939993182898,-0.6049279233059913,-0.6044545070777917,0.23226085041775607
-0.13757122058980778,0.13855196006156198,-0.10969036859628847,-0.18046586486961919,-0.47004394290995544,-0.4332936664110556,-0.4066737046650959,0.4471473807612572
-0.02950574876768231,0.19586927460668455,8.803855697742842E-4,-0.042463403111504816,-0.12238377394299342,-0.16767155516678592,-0.11035007763245104,0.7036702240192138
-0.19167975921618183,0.17767679990377822,-0.15905101693901974,-0.22395863563190213,-0.485511533479908,-0.4953688775409673,-0.4805863561393073,0.6699223022338892
-0.21675724312606606,0.15851212408381582,-0.18414468106999912,-0.25459901931052864,-0.5554054241580026,-0.5759964355700931,-0.5545709524792247,0.6130052600698664
-0.05141280511803281,0.19240270897286468,-0.008417156770111518,-0.09485311658337502,-0.18605693770147386,-0.15599909029296374,-0.11199461597008557,0.674749537689917
-0.08567927251217089,0.2059589260905981,-0.06038566970156415,-0.1542585214965522,-0.2736582200372125,-0.2185882181286456,-0.17623633445033537,0.6444712607370187
-0.19256085036126205,0.17150036087227616,-0.1754570311827639,-0.24027113636796266,-0.45697741920778007,-0.4324752579597693,-0.40744932697885555,0.5368118747856728
-0.19582379545809317,0.09703530935418066,-0.18970171798864535,-0.2597991141475943,-0.5098475510060209,-0.48650839477402547,-0.42017644410283084,0.2654604322599339
0.03927943728392188,0.0877250573598711,0.07644248646019564,0.026310877733283958,0.0058639177429323525,0.021710407330720126,0.08783249217047405,0.39050614152540547
-0.12162961560068901,0.17789584977772566,-0.07834539380919352,-0.11183409453408155,-0.2800759076156182,-0.23441806454672104,-0.2048426072203431,0.4639024591221491
-0.14113823860268881,0.15502672136045906,-0.11649274376831684,-0.18605965177626815,-0.3679319328808955,-0.35795571367058865,-0.3074572024275563,0.6109741875381173
-0.10952729155169998,0.1706283241210887,-0.0768813291605609,-0.09421222572438102,-0.27317695189250096,-0.23539927028878413,-0.17918881998306813,0.6661926341591163
0.018077528692087792,0.20021055636998464,0.06869413937922918,0.04395352170097518,0.021980544486747484,0.05118665800560045,0.10111192219408387,0.7971441939625832
-0.09808613618048564,0.13970560741341828,-0.059729176717139496,-0.09834743418731566,-0.26812730155587683,-0.22730141615937424,-0.2022477548381365,0.7675464681283882
-0.13572342792861394,0.1722452027308391,-0.10490993493734482,-0.14378827503930075,-0.37350413698996393,-0.34717619887433865,-0.3066917613597667,0.7037191753011308
-0.028035841840341177,0.11492943664590169,0.020382203002620357,-0.023055255216564284,-0.11512307852135993,-0.030849518157444245,-0.029006824637175316,0.5608283013632972
-0.005025434951142717,0.16763731446809235,0.022118007479333623,-0.019403363961221165,-0.09094646712862518,-0.014477611972049963,-0.028980259816175524,0.4439299354448896
-0.07744865040875304,0.12165744213727157,-0.06664962431148669,-0.10265491612826544,-0.2792694766348422,-0.25719325481175476,-0.1758930293580334,0.28398611195444384
-0.11493889937990305,0.1268719114227619,-0.10119028113026826,-0.1414168812779955,-0.3671847226630241,-0.3480166156488086,-0.3103736517959386,0.3621014251263169
0.05753731372963309,0.16169168687924337,0.10466875068871942,0.11047449787841292,0.10623372098640872,0.1023005048612104,0.16239386229561456,0.48433246050952833
-0.023668115275100588,0.2275042851278668,0.02261146731763294,0.011816538978348617,-0.0767785329528864,-0.07365555773033193,-0.023768095093817432,0.6808301306250183
-0.04509066781116988,0.20885041883221964,-0.011182096607031356,-0.03642412662266618,-0.1841773938181449,-0.18156767597644077,-0.14848712327230423,0.7047748557381587
-0.05200932150874681,0.22778380620662186,-0.01595141720861339,-0.05243415499934265,-0.24295703199412688,-0.2379532797339149,-0.18405747997999988,0.5335241227294198
0.11531836717543988,0.24709208723622808,0.15210888944812914,0.1539400467574533,0.19868605007425597,0.1868738996414875,0.22138045617546853,0.6426823110450444
0.0028465475520352748,0.19522337905466677,0.03771815680483005,0.04826095200231183,-0.06036110335033076,-0.08855732380162552,-0.05234648450071153,0.6927579555964379
-0.027243127570416085,0.14142435341485318,0.01753613329089773,-0.03296198648318932,-0.1865916618923699,-0.1987626311714306,-0.15959984450933473,0.45133453470381385
-0.002978032869129148,0.14581827605174327,0.03696028151311141,0.030126628982855206,-0.10332648705999012,-0.06187015039238442,-0.045924940849984226,0.4496814681244921
0.0957631735571664,0.13677602520861523,0.15445473368190507,0.1552607457948383,0.12642138466768943,0.16490863731040803,0.16240408323737712,0.3121582729452991
0.005927635804706073,0.1595940699361782,0.0552458299162503,0.04958825915724349,-0.07259430452785172,-0.05354136062767828,-0.05007576565840712,0.38780002275115
-0.029414979182776385,0.1671615381587965,0.04253830085779645,0.018468845019648177,-0.16412474680667744,-0.13312863383131088,-0.10632290806012103,0.5208646728214844
0.07377289415316467,0.187586465108262,0.13911226145803776,0.13365381224072234,0.07150332900111159,0.1287690237994365,0.1319573104281189,0.7106467749122664
0.06790569760388292,0.21120854265736339,0.1650553008289551,0.13866310907340315,0.1341761643298686,0.12739818731828928,0.19986514174870315,0.6926967317645061
0.029177524891311347,0.21410651017847201,0.09828183508102495,0.08210533928320699,-0.03437596459814564,-0.02512048123096689,0.04035201924600311,0.7437401819889786
-0.032208431080676454,0.24641185845161087,0.03674254569863667,0.004617837741021102,-0.16087811987926007,-0.129607824707883,-0.11529442196166573,0.6206253625564728
0.0784602616196617,0.17492229815815133,0.15281673772821572,0.14806409088975162,0.17030331217581426,0.17681007106392432,0.2203804826897899,0.6418067944412685
0.0703925165404852,0.19032152622981446,0.15737588396697164,0.11202133670350849,0.04990674342594396,0.09036852359510589,0.07747852940057105,0.45160736083042474
0.020242617990888716,0.16311702155318958,0.09255281301092101,0.0731068079614154,-0.013419310732277999,-0.056955923788568605,-0.002574804589053761,0.21815684477513592
-0.012676720947928807,0.14089867601681075,0.05010326678526247,0.03277684527144133,-0.1572439491313293,-0.14695377501810988,-0.07022128602229316,0.3545885272991238
0.13235738608952102,0.20507481656395213,0.20098442013772758,0.18923173621207315,0.24735000522836978,0.25830435717924805,0.31063293944881787,0.5655805445297564
0.0557836086113216,0.17262784132823428,0.09824077738530897,0.11868625016847281,0.06432170479160451,0.05612965551406053,0.10539087594975556,0.6824508807793767
0.012294000039873673,0.22322448794639294,0.09354613044088364,0.05774317342711445,-0.019154810370066465,0.044335846206254276,0.024218124704022324,0.6618202297443261
-0.017540317931931667,0.26048704393709593,0.05658487693397684,0.04149176900774675,-0.0625492213849706,-0.04054930396725615,0.010330429652655461,0.5973577015259521
0.11689325496735578,0.23838261208964986,0.18199712760037545,0.1959343645854232,0.31459463597709775,0.32758717391650766,0.3599490209851995,0.8469950025853219
0.035084435752204365,0.22790051681681603,0.10742371098654249,0.11477335206556817,0.10675025154000879,0.0927907885191948,0.13557921205113838,0.6510504744633984
0.03478276148259693,0.18846495408106806,0.0466286397411835,0.04411592930766987,-0.008759716529774883,0.025268016253295274,0.0569598514140825,0.5991222637369278
0.005866853224680376,0.21291648580737063,0.04231746532146842,0.027054458928765686,-0.028892989764595967,0.01365752441968727,0.027119658772080408,0.31833089562930594
0.12349918994938422,0.16471975786081253,0.16463552320914793,0.17340688155159298,0.2853761957131401,0.321401593301175,0.32593013155114303,0.3579803052303807
0.024191661299779534,0.20757455803704503,0.09062734661629258,0.05720744822062498,0.06944346871453494,0.10143127344500437,0.14557246001389568,0.45060356358164527
0.008045655666499682,0.23643340616160385,0.04437974605439074,0.03422190511739987,-0.02062739021877894,-0.0018504123553525907,0.07965805554219157,0.5451403662616963
-0.005317889227312656,0.24472911993476779,0.01837006509126209,0.007345601539789388,-0.03848701134122549,-0.004077835391190838,0.061939436067797775,0.7397321676972564
0.08998402440244455,0.24162604257022052,0.13955715636305868,0.11363189629346285,0.2902901484798882,0.33229432953754173,0.34087200731874046,0.7629189483145786
0.033980146479381766,0.22437097635395528,0.05273088704419963,0.04000452563578186,0.08491822329869966,0.0960924509442667,0.15645331461387532,0.6618052299692969
-0.008694563356944412,0.25827210876801915,0.031565162963621114,0.03263049466729628,0.0022837650886931636,0.00431447796638858,0.05873312586911184,0.7765503975719426
-3.346906519937065E-4,0.20811541045713058,-0.002834719589473198,-0.057820394732186635,-0.03711513530044211,-0.02969889798494065,0.023587246848729385,0.5252181786183837
0.08471462774118867,0.2006953336166726,0.12138427807125428,0.0674864122444736,0.23262577816567834,0.24274555107821041,0.33513159734167863,0.5038194233111063
0.01011646308654428,0.2178808361388377,0.07469032119765334,0.01487501899623808,0.03771499578907393,0.06445149330807098,0.08759875378221159,0.2119678144982772
0.004577346998869814,0.21859874151244257,0.0247269801642996,-0.03463441905683128,-0.0033372329056178987,0.0014018050179036197,0.07222487122095476,0.24773900698901885
-0.015588139873780575,0.21990929342112492,-0.005844548118892199,-0.025843936070617277,-0.024722004216633172,0.00780545933756412,0.07132239865269903,0.4640218215548799
0.07380237042309297,0.2208885510832958,0.09741097582199532,0.08291124550399671,0.2390255343390818,0.2532373163512215,0.3078184281665344,0.6850989948382584
0.01081749731238263,0.2248508608738619,0.05978182683529897,3.995749427331512E-4,0.06608219863721641,0.10713987000098217,0.11178829984611445,0.6311787273182687
-0.05420812740423554,0.26049253236678344,-0.007359819367421025,-0.033819076225763654,-0.025705833871081944,-0.02656811734750617,0.055331211701319105,0.7028732521897698
-0.028550962723027623,0.3156107230608368,0.009418655251939913,-0.031202014436462613,-0.02746238526624528,-0.01337177820677662,0.02605399735749905,0.5819217275075609
0.06585183623388915,0.25018462957740567,0.11034657770181946,0.0523317316469579,0.2895604304888959,0.3076802764407837,0.29398074935447477,0.6933711004760177
0.015107295177133112,0.2270221425547923,0.06556396267068813,-0.004366193331622981,0.07015824230765352,0.08309309760550454,0.1404011617643621,0.5295376501719857
-0.021036060751330098,0.20529038763550658,0.007985862168434455,-0.032586377934998266,-0.038811779063649174,-0.01020329881401204,0.017756967860033755,0.3316508901354919
-0.026827704691727756,0.17151892211646752,0.0031033823885970456,-0.04894491801103587,-0.03754448571246127,-0.05420785040934051,0.029907189876316076,0.34929941558099314
0.07250691928767627,0.24625639846885686,0.1276738671539058,0.09939655414174114,0.23675710493206675,0.3055506719053731,0.3353341961221192,0.4033772974795803
0.027674049160486963,0.24819027429865737,0.03984619926028478,0.022185681768606823,0.06658747189729962,0.09527302710430201,0.1425862118917981,0.5857989555522287
-0.023549843751221412,0.2274759158105544,0.022622139337589182,-0.022908561917599744,0.01663970469684801,0.014553890243031307,0.043385780430480476,0.681158480181521
-0.03620019825539045,0.249306653216825,-0.02630972926657388,-0.057420719445383336,-0.060043713877398514,-0.025872663370907725,-0.01865195614314415,0.6814219048371124
0.08332885059004666,0.2701337205165226,0.14247425094211397,0.06605062085010063,0.26900127295601517,0.30000712507263716,0.30667275763529794,0.6836989487907448
0.010108809528733848,0.2922161589737411,0.05922319405153617,0.006419296808229752,0.07168741311708443,0.07244761546188533,0.09505303403255753,0.7110485214467874
0.0036068748420940273,0.23958584958997492,0.031945788285233666,-0.025432536248865767,-0.0134452645497683,0.014732223837882476,0.01642068950698717,0.7127502866705249
-0.04246922191703276,0.14733873390434385,-0.01340918795702657,-0.07995151429343679,-0.07248338287978533,-0.08794732576441737,-0.04239031404371496,0.40193988954368076
0.09168030194244374,0.1695510578927436,0.11286327582517577,0.07257299842644,0.2269837571760956,0.2721176704956411,0.24230690606274335,0.29944381048265495
0.020962919219156946,0.17518404977296276,0.0467226270835233,0.029867462332761205,0.050669711389584635,0.06162591411493545,0.08546866860965943,0.2969406500211741
-0.025268269354736004,0.2235926324406447,0.016979778087808546,-0.043768524015889036,-0.013415358140068844,-9.629587828894944E-4,-0.01067619105015213,0.5123622436694193
-0.03666673561676836,0.25605992422386126,-0.013825056454196405,-0.0670535908490364,-0.04607183917279012,-0.024230707648688357,-0.02337988395812305,0.692280051710154
0.09630627604575691,0.23495807742152833,0.11661943971190583,0.10975691525811963,0.23508519751982898,0.2882766676981423,0.2687066497017306,0.6961383455663948
0.02439640943381313,0.21740108100530034,0.029356077687669686,0.012554056470494436,0.06282917431947573,0.06773316123752038,0.09321103378486989,0.6549891198140286
-0.013358972926574036,0.2499481359003208,0.006959669198202211,-0.02768223485004525,-0.023496982241386924,0.027600479894070353,0.023725652747813554,0.7427046761842735
-0.04728732695546727,0.2819958073398624,-0.028765194263706877,-0.04765751806043101,-0.09798940854612061,-0.06207228394694684,-0.07982476146506287,0.6936748303081135
0.08549266077488955,0.22950304778234504,0.10488488095804854,0.10997556927576382,0.2447693495002399,0.31121252692729395,0.33996599971690966,0.6376873080116084
0.007727739107643306,0.18677583129148076,0.021949603511268533,-3.8103232645111685E-4,0.07331117884679202,0.07546691452681399,0.07463481726482074,0.3838323637937885
-0.022857300948953573,0.1585100816835541,-0.002759208613601464,-0.04284724102670425,-0.025627264304068822,-0.01579627878530657,-0.0026746658336714107,0.25295859253959
-0.052413871132312204,0.17502600177560493,-0.05668592856470062,-0.11930660963164948,-0.13225491565436565,-0.12767720481864536,-0.08655354836733095,0.4675890406593296
0.07042793793454025,0.24762371804905728,0.11198816643538362,0.07724959857623524,0.25744106735474015,0.26419107504563144,0.31508886859391766,0.516102563717748
0.007956798234698121,0.27148464313167575,0.05981030524080976,-0.011251009692586727,0.06958297196208084,0.08196517134856658,0.11590442821101386,0.6639095226533462
-8.621330378262997E-4,0.23402094466831352,-0.011585846279203867,-0.04635407120109906,-0.0053841369583985865,-0.017922922610376656,0.036590794163849104,0.7021906041632827
-0.06398813326428082,0.20071198066552923,-0.0873301551171445,-0.1264381206087384,-0.1989203600225975,-0.20022254179387453,-0.16417179763450757,0.6539324807510889
0.062344504847817034,0.23848562517143812,0.06746011684616737,0.04385814268151852,0.210408872284159,0.21383636296826286,0.2468065730951061,0.8207687315603452
0.03134287025989438,0.25905025987822966,0.04181245463042205,-0.030586039150389936,0.08120431701536618,0.09551084954456292,0.09878274968903972,0.5902735632957999
-0.026076386305432166,0.15618044482614604,-0.01422464186243281,-0.0776124339856414,-0.039003927452672,-0.02544930151749138,-0.011785173058138292,0.4371165356158005
-0.07364140034573984,0.18591010304595157,-0.07483008891042595,-0.15443322508998134,-0.22462898451877697,-0.23860993688698742,-0.2175747374407624,0.2994494319149191
0.009798351299588995,0.15585937333507352,0.011921619371581028,-0.0272611787169822,0.047302762661719996,0.05988687501901219,0.1101310056487478,0.25620135792980153
0.03125069689240697,0.20765519715620614,0.027731614492901475,-0.010967653285713258,0.034626705161461734,0.04893959861712788,0.06058830935566851,0.5910982632052026
-0.029903532170179273,0.23300727196698753,-0.021017080675493495,-0.07833152884567442,-0.05783028386161356,-0.030062740058979607,0.028934848019529228,0.5043225463756779
-0.08163573567992584,0.2196136789575457,-0.09501762404121465,-0.12713382780622187,-0.17444854057093884,-0.14832762801368585,-0.18243856515915272,0.6863862872282114
0.022130644216363654,0.21970901327508147,0.03251763877840552,-0.043402348399317635,0.04584013616726799,0.0973002522702588,0.15958073367382689,0.5282980580551848
0.031411503722211596,0.31079558488099285,0.04223208983662606,0.0028051777469071935,0.08587856102221171,0.1062724428874037,0.12089470567498503,0.7685176962704745
-0.03016674573860195,0.29116213610908737,-0.012877430643339289,-0.08695453711338275,-0.04904051941971164,-0.04655337529198142,-0.008833013684448103,0.5654010861486383
-0.07815225226796693,0.20986820581789217,-0.060147389629219776,-0.16220765985300722,-0.2136393478121451,-0.19149682255828768,-0.10027240428465646,0.46183845712835264
-0.014039855368712875,0.22033741153263686,0.015158883294172167,-0.031801028850418356,0.01351746898179398,0.04363762739918964,0.05415099931204789,0.318377159785614
0.04992678786935541,0.20372943319219816,0.06246734038628675,-0.016777980572063936,0.09650138062462263,0.13063425759173314,0.13673154964649037,0.2826403774970924
-0.0069398356672167195,0.20963994181335774,-0.007574183834499888,-0.09205602866466646,-0.08790570192214472,-0.04796868956576542,-0.0183385930211504,0.38917584782672343
-0.05560270005407225,0.26820642221539465,-0.05379457092550404,-0.1384354627877895,-0.20970584880524917,-0.1469190518996262,-0.13191159187520063,0.5158323464213346
2.9015423669101915E-4,0.2199183363053187,0.009582799360311917,-0.05869582162280849,-0.03950340541233926,-0.018233512434140387,0.0352591269867622,0.687099793991452
0.049136523571373554,0.24605422795514348,0.08326678734845101,0.025477613938659723,0.14554123683202844,0.13642945135877205,0.18957795906242084,0.7507925284754907
-0.025677818879478016,0.2825210882738094,-0.014577737746569744,-0.05609496914879981,-0.06294790356599302,-0.03758718931690732,-0.029979055758380568,0.761387694895602
-0.05811335512363263,0.2786082272367347,-0.05807274713355608,-0.10436210070057611,-0.1813395102206774,-0.13046399662659866,-0.1514396360513183,0.6445764712285801
-0.033842013515689814,0.2065766179592133,-0.04364937484565759,-0.09928406182112888,-0.1079356588850545,-0.07161866091164434,-0.025188032514934084,0.550197129577999
0.04532581417246373,0.2649196577046478,0.046821016212356195,-0.016676759156887808,0.05815596440733768,0.1732155039687557,0.17525538191935383,0.3813347019427129
-0.02320413215505952,0.16950962811667397,-0.02903490399091196,-0.1284194516418054,-0.10063547165106813,-0.06925734407652546,-0.04263926685323488,0.1545725857424915
-0.06012985012330271,0.2508069070217659,-0.08498232407186981,-0.16805349208752365,-0.16180814063489085,-0.16690826546759638,-0.11702333361360852,0.3057072110675812
-0.05942749727582184,0.19439592149171467,-0.08261116333523824,-0.12500311913706907,-0.12861465803850589,-0.07570896022612175,-0.06724315841881519,0.3632815121908574
0.05754420893842131,0.2828357992193316,0.07920736250863573,-0.002443023178901103,0.11073278818051902,0.19421452768143982,0.23171895286103292,0.7022270574849324
-0.019140945364886315,0.30283899583968404,-0.008584583054111685,-0.09573606026009432,-0.09175094607497469,-0.038245441170789214,0.01955926804339686,0.6919480324746559
-0.051982855189621355,0.2719531803348457,-0.05279505824680044,-0.12258061070438653,-0.15772196022861606,-0.12186936364678061,-0.11906276851407785,0.5562687423599003
-0.018433488872648666,0.2550705740622483,-0.03917168967697563,-0.12802398405729026,-0.10040739085048157,-0.04097565971535909,-0.04837655930640849,0.6341078442489446
0.06784072106879457,0.2792521759886439,0.13076673651353887,0.020607478621635488,0.14548026588609203,0.1973376403320057,0.22936086819392307,0.6765282428412099
-0.002655466460204716,0.2805792432851254,-0.02099350588103058,-0.06119137822606998,-0.05223955881239978,-0.04284194570932724,0.019480484846680877,0.39611429231389955
-0.042809379829852695,0.1742288916674864,-0.031170627244386687,-0.10720019443763669,-0.1345895074469542,-0.10944737708228856,-0.06535157158691861,0.28050904177766156
-0.022797898748084095,0.20092435328083205,-0.025763097257189064,-0.0609881141907583,-0.07604272009216786,-0.012782657067027015,-0.025302384806664528,0.18837431174295508
0.08798335802986802,0.23000183907477917,0.07834366245382926,0.04576024307010826,0.15525691260299676,0.23816375270092466,0.2958878821420322,0.35847171941832023
0.028982515428097662,0.25982502963119,0.013299077250311767,-0.02855814314890795,0.030357234351948304,0.05521497191371128,0.07707627901128222,0.6246773634683801
-0.00669501978979575,0.26011592319294097,-0.013734819643764131,-0.07701603670127614,-0.06822972742017032,-0.025757236487999196,0.025668165345985375,0.557040179059923
-0.009738169827187044,0.30688154960518765,-0.007004110034660746,-0.07363326196550352,-0.02007394393495684,0.0059756517755730825,0.04292394437556483,0.6051113771647655
0.09956367893224256,0.261679488949286,0.13621083759365657,0.06977650589489542,0.22633092084021805,0.2562502759707802,0.30002165072988796,0.6217233017813615
0.04323097309055622,0.21302483660083793,0.02895138480313634,-0.007938587178216659,0.018048223422414966,0.06178492241292186,0.0910644156810225,0.5826807400855993
0.008750347894660813,0.24956014318980024,0.00823185868849928,-0.05279413720245701,-0.06000401732361718,-0.025143127540171055,0.036863417804465684,0.4890279065619814
-0.011881658066089594,0.21073550954594453,-0.008119572355703604,-0.04921763479013306,-0.08867181313673785,-0.039953370029332705,0.0067459371642088145,0.45477586408900333
0.11235549862371376,0.20137338514460493,0.12904812781172786,0.09752669343681679,0.18070289073833698,0.21778726224617656,0.24719878866862352,0.31203835729595153
0.02323463259482398,0.22394415907521098,0.04283749357437571,0.01348666153334557,-0.033474984366918814,0.046795594880443186,0.06737134110051599,0.3014308218055797
0.003351267150656576,0.23041839325469818,0.0028203862296316056,-0.028542047964258802,-0.05650364101060295,-0.011596529646871181,0.015561290274306075,0.29025207326116187
-0.002839271125514401,0.3022967588772465,0.029557331890155022,-0.04248840710808721,-0.035199594463201984,0.004446063591209832,0.10527835427124807,0.5092335524029292
0.10487135852142936,0.23638569854086053,0.13682136971081227,0.09023366273589986,0.2150659627753902,0.2739534761820556,0.30887768141140964,0.6341063124513671
0.03824419895966342,0.25506901327806364,0.07647274644592794,-0.001534023009476928,0.019347562964229525,0.04123618794722128,0.13886542928979412,0.704334868300779
0.00969718027979784,0.275731060396059,0.032886595660745754,0.008004583342169752,-0.034691681184611994,-0.019300080553313875,0.002985542794195984,0.7874897665529128
0.02391558347067325,0.2953037960485167,0.03748837640781136,0.011656038337550073,0.029224061634964795,0.03586752923349391,0.12238818231844151,0.6042092239418129
0.12660923117249034,0.2642929603907067,0.16765665009213432,0.11993378198349353,0.23045975943541863,0.31765402809301096,0.33265233713598263,0.6487140675108845
0.06442483282124863,0.25801035611180995,0.08125112225617916,0.05321337189287465,0.02207513589398335,0.08334977057372231,0.1533074969970527,0.23047760174229617
0.03870832789612234,0.199697829326131,0.07249440311259839,-0.003161383603345211,-0.029703080068040785,0.026801261819889784,0.035787717169917764,0.23501427945263736
0.035937127916794424,0.18732826192904656,0.05813683111424081,0.020922257017175434,-0.009633046379280827,0.10028012912600168,0.09277574317223855,0.30416896761644324
0.13066944781816453,0.23988624343186749,0.1684997496118772,0.13667389468883415,0.2836613693782995,0.3443082449286382,0.34676749717712646,0.5380337087410638
0.07981567293802463,0.2198958164847946,0.10785753097679335,0.08938882178356537,0.09659562565204195,0.13202850042974196,0.19384774147816453,0.6136832816552479
0.04400323061133734,0.29420276841785487,0.08850921983431634,0.04738805584996725,0.00741564964380568,0.07278242322545604,0.11029782441550227,0.6900773561333541
0.008295797070434692,0.29650756133417977,0.0484821684390506,0.03054797236634716,-0.022861506308893196,0.0209824668779113,0.05652575469438083,0.6415013052518577
0.13152807201716477,0.26826964952983434,0.17762088761928277,0.18425989806295182,0.28688820249192143,0.3432430757041295,0.36540193319478115,0.6814046372413084
0.08496939925499625,0.2643207591260481,0.11626907843015358,0.08228564013161954,0.0805928265913319,0.12227319480563845,0.1864316579986284,0.5428162222088138
0.03521928382218203,0.20492835033193557,0.08989540155133387,0.050143017899454814,-0.023982168689786486,0.06669303451110684,0.07464092590418256,0.4900358128841621
0.0032768584424813533,0.19216301713106373,0.03565734735668479,0.0045332030203146054,-0.11480872648195135,-0.04549321557876348,-0.021675141651141993,0.17927339872200582
0.1452356398913713,0.17390730150120529,0.1652484173089064,0.16660957894728115,0.22937438695165072,0.3068347603356863,0.2907354178681964,0.23472930415079588
0.06952858399256392,0.21614815559310968,0.08559317325553642,0.07507598737624392,0.022493934109567258,0.0738115080759388,0.11580876996522241,0.5125013249488425
0.03419833546577532,0.23429134887406855,0.06918900348763733,0.05903118131008532,-0.003131845257032722,0.05423869380858774,0.0326986652706029,0.5831947701765057
0.01953165169912851,0.2557131852735451,0.05697348917016926,-0.01181996192574576,-0.08532415849583959,-0.01807350948435911,0.011241113255527324,0.614802250117232
0.12970596232892656,0.2540602135242262,0.18220679651295166,0.14801679284755562,0.26651794631308057,0.32381859379555894,0.3248831072961379,0.7555367981166962
0.05723796839689783,0.26271042740597994,0.09366541031610187,0.08444717366962204,0.08761629726588668,0.1272536935107457,0.10246616389742895,0.5967351627339089
0.046705568498546325,0.2409790017801757,0.0606225069299444,0.02198275018818406,0.006475028628567725,0.03094770746100325,0.03739749205766345,0.6341915302510993
0.00198113256178615,0.20875671778948882,0.03421537840333571,-0.016498325239451925,-0.1258000383907076,-0.08142036495831996,-0.08804833127611744,0.4374614141543403
0.12085149238890537,0.2062379936765407,0.1504969906620478,0.1354580633608823,0.2646825512596319,0.32600861723371066,0.32361061591919277,0.3249876500600734
0.07689830635131133,0.23822072400717184,0.09046735333289178,0.0559432411432677,0.04788184450184735,0.07151012057697975,0.12208090726928138,0.20160021862328126
0.056574680526850815,0.1905278510110515,0.05393963135900236,0.0282404976348463,-0.02923963304521369,0.037562370328223724,0.05960381282369829,0.34253000421289864
-0.009573644826318931,0.2135314690549257,-8.030829159719345E-4,-0.03300867388897685,-0.15141938102009728,-0.08362557115863599,-0.04357294742066403,0.3467305086059845
0.13461810471839525,0.2422270561084612,0.16589393447707956,0.16033466120670925,0.2558894369782722,0.31485314784235535,0.3327652904149522,0.7370262120803458
0.0672561519031377,0.2546920709632403,0.10455389453040015,0.08636435150483555,0.07797082555223298,0.11998341379761995,0.11657000789698017,0.7391021740274409
0.03854144484093208,0.26613500920175637,0.07058718316917884,0.0535834769107259,0.0162007025113023,0.03969892809850726,0.05319074649184015,0.542791671265725
-0.026192982430169088,0.2376151433475239,-0.032744654946782546,-0.03843921769685785,-0.17955236573038433,-0.14499452363600382,-0.12826809670478193,0.5950315186598776
0.12041124544072579,0.2445576858679079,0.13502009084938438,0.13483367120335718,0.20337283937889108,0.26833776619512123,0.275471885356857,0.6652715409168868
0.06115360366335543,0.17785060866907848,0.08901644227283782,0.08099354430348338,0.09715292771214655,0.13365344745328778,0.13212852721369445,0.39591107619975363
0.023547476935345178,0.18965389600402482,0.017179117472854433,-0.010483934486509949,0.02077080877531019,-0.024999993937777562,0.03211912438184897,0.2445281952654247
-0.017092138136168843,0.18483874816182919,-0.03918311936251697,-0.054441442824426284,-0.15582908113194963,-0.16299906374612683,-0.13637235062607478,0.29601260108699157
0.07785633802752516,0.16302923174093223,0.0797456916703883,0.059049046529881515,0.15985463902725525,0.17199325987453787,0.20336597596838588,0.4204910265349424
0.07088135089396451,0.20833557219859425,0.09447845808708533,0.047605275363890115,0.07071991869791053,0.07601806788024669,0.12720405996904083,0.6156974583950834
0.013418192012282913,0.21157614861617563,0.0355758195230919,0.012659640218733885,0.007730779420231041,0.017689009387101124,0.044575925783294994,0.6337256268002034
-0.01622146245361269,0.18287705894305706,-0.020782727788516902,-0.04234830008631993,-0.12227432065375292,-0.09963319734098727,-0.10825953802812963,0.6214844529534226
0.08957189197338263,0.1795683876725408,0.1122162514373138,0.10097105000132332,0.21024127764998451,0.2275336977616085,0.2544722906162595,0.7292581035922003
0.060727305907212606,0.17978133260505832,0.08264902633637518,0.04746423316058596,0.1075034701533493,0.11670957846178451,0.17058261190713422,0.7339797079537044
0.014864162601367794,0.1490642017296297,0.027396393763442512,0.003445479386938763,0.03386526041061473,0.027709863449874708,0.04899829475041943,0.6032536283509131
-0.023547058667258737,0.12351324240308804,-0.044043464099859,-0.12153359176470287,-0.12217515520225171,-0.11209190516196987,-0.12605008266675807,0.42926124226146806
0.10233072582679766,0.14243672240461822,0.09737796199139664,0.06505084326347696,0.2048010783597392,0.21340761136487862,0.21839273745679594,0.3381202838751664
0.08173208383244875,0.11659648586777303,0.08820327843938128,0.06787259979851422,0.10401491115839592,0.12067094887896516,0.092281815429879,0.3685223089041035
0.031280070899341005,0.1747104707928386,0.04520140373059108,-0.024679582786153623,0.03485806312942825,0.04249192556157498,0.10852525598103285,0.5177810930779618
-0.0065107068076878175,0.17673472889925973,0.009850677199553109,-0.03791559460404312,-0.1289156985636212,-0.11078094718173151,-0.10209348077656706,0.6416768179782256
0.0990479228737728,0.11942153677334329,0.12503196974885003,0.07700352817534062,0.203328669423434,0.22697876069001816,0.24219059069640478,0.7285293329039069
0.08763535647209855,0.22483847351832312,0.08065200187501378,0.04457535840253447,0.09048213494274723,0.137816247726475,0.12045617065780051,0.5687989140213869
0.020992677745115883,0.2246815820256732,0.05955683763546225,0.007258643988556035,0.04940338079015318,0.04407002113460062,0.08050250514390256,0.6429281799260738
-0.006351196011823,0.19306108968848093,0.019089004360759245,-0.034653646294982604,-0.11118701502186955,-0.0669499250103568,-0.06174173840140235,0.5707815470840094
0.09817985058974701,0.19161298864821188,0.13309141197878305,0.11256131076802633,0.2400429749581288,0.2806829662230101,0.3036010520107225,0.5431256798714583
0.08453516585059793,0.19097307521768317,0.08024751175914072,0.06649050386251326,0.11165028273559273,0.1534002809182546,0.1404037405724916,0.28305001777403827
0.05247516509935573,0.1696362995357824,0.06588085513592483,0.02542839970850695,0.03846598344046278,0.09374886916484744,0.0783594473108594,0.27899876151190195
0.05404716488042478,0.15647218880901653,0.045633893655913416,0.012550099088100874,0.009967638377559939,0.06812236520367027,0.06408145804269202,0.43196700353290346
0.13805601249942365,0.23894422172914748,0.20646755971747974,0.16005580898360575,0.3461603342897484,0.3782199005122599,0.40852635797999465,0.6622783278110393
0.11327530788714951,0.19672892652584015,0.1317653194126859,0.10331919985276097,0.17735396856827107,0.21509888696261442,0.2486089098393863,0.5617986834791496
0.07219076476285947,0.20124698978912928,0.09843191340816816,0.049087861010743694,0.15480624178504676,0.17651628215890278,0.18275968945005647,0.659624675993387
0.08582993285112617,0.19778591930601383,0.15110382771634426,0.08462693631638536,0.21705035118121443,0.22031246823596645,0.24938736736930225,0.7716176484524168
0.16158991444158857,0.1940782220262459,0.1954230972779188,0.19011190272611062,0.40992729451890386,0.4430381898802027,0.44278362435952107,0.8048424461226696
0.12183596990684538,0.20778081220985378,0.16342656156186558,0.1168522566699461,0.25840084594564083,0.3088991981122427,0.34548323147556786,0.6406345926129905
0.08924905091729578,0.18163336258788051,0.11084734576396021,0.10294141706932605,0.2390542296706654,0.2172748739979741,0.24587531092231513,0.4261687278636146
0.12184940058191855,0.13027806757443727,0.1460424841401885,0.15428308218437034,0.3160794173299801,0.3751875042551405,0.4262781318744135,0.48822137722956144
0.16501284823364665,0.18540990176828667,0.20566474650092748,0.1777763337519956,0.4138059750234231,0.45840037373668713,0.5129701906078366,0.4035448968164133
0.11668881283111075,0.22055906366097544,0.13753799982119239,0.13474107150613923,0.36069710377246217,0.3717578291629937,0.43550543854262574,0.5078685601956545
0.0980390756560635,0.17620834876602928,0.08686954522987168,0.09569243690864682,0.2471636726107511,0.2460828997516793,0.27606176315642267,0.7866865745206278
0.1647043865759481,0.18824144641599003,0.2008637741485095,0.1615547475916404,0.42602362220026513,0.492275950311316,0.5001717073691615,0.7779027239338341
0.16360303394868114,0.20451523180236456,0.18737639360498512,0.17766991431349094,0.4431504779418713,0.46507775495670783,0.48826413340790964,0.7413155778375112
0.1331184300082674,0.19270389052392703,0.1740024077876994,0.12354157216236333,0.3215619945192815,0.37382221996292236,0.36161479331667473,0.7974328931941489
0.10476731141926775,0.17498805937626247,0.09957887389561752,0.09855861354845818,0.23111514620639204,0.23083285582972085,0.23762273412665008,0.6520647758963932
0.15743667333162775,0.157691765109553,0.1945733199505531,0.16590634546437297,0.457229373373657,0.44383829004130415,0.4698839351514654,0.6832100868768177
0.15147711799605332,0.15752373922049734,0.175457437156002,0.16859487492693714,0.3627883938241957,0.39171138345287604,0.43977137477306816,0.399328790298903
0.13510093299475778,0.09601973426446835,0.1185668190813444,0.1275170502379381,0.3186785667632363,0.32626625766390926,0.32625631929994325,0.3167691319014113
0.08840737700480125,0.15801562871824007,0.11166143052145659,0.07526063210295117,0.1626188789096263,0.20948120387151534,0.2249559514452995,0.49965946773013364
0.16051284435210195,0.1891317969793451,0.18367695201222362,0.20205712883560478,0.4963565753393905,0.46889422439588174,0.5108534516617389,0.6592738033370535
0.1548782379647959,0.21239550547103578,0.16942372606011522,0.16366239718734155,0.38632395637124456,0.4413338453846404,0.45399048478584636,0.6890154833032726
0.14757622501376427,0.17943002908208153,0.16735875810428677,0.14994837921307372,0.3351744226938962,0.3545272327068942,0.38118371350211133,0.8077468448593426
0.09264432701399264,0.22087638656560252,0.09242969556952947,0.07655795932073786,0.17894996188256773,0.2127121334188616,0.253548826345492,0.7753739168810649
0.16108117295154908,0.19433304198557294,0.2015644934924941,0.1847023681672349,0.4731134907469785,0.5029982315875726,0.5406028524652458,0.7162482678183959
0.16512911258504337,0.2192129733923551,0.20044578684338377,0.1791865693596895,0.4350279067956392,0.4749792935964908,0.4391798156026883,0.7481847834709922
0.13768194769728423,0.15264986269275252,0.16149511863365124,0.14881403836334575,0.35403109815565015,0.3771791576880233,0.386106382856222,0.597548664039237
0.10129853481046606,0.11647759668015503,0.10314841752369042,0.08444189109784728,0.1959920404701696,0.20252529810679087,0.2624304481383973,0.47833283447264374
0.1624411244222486,0.125456943177203,0.15664616340051327,0.1508697269646118,0.4366609850030897,0.4578004753998374,0.44719126580192714,0.45294239953944593
0.16650847027710783,0.19930056311970815,0.19286673935700568,0.1774633972587895,0.4603850206677187,0.4625787137747001,0.43861729302820324,0.5728170056330989
0.14458550485567961,0.16286341166899673,0.16186434147741613,0.1650896065303335,0.3672466156902141,0.3989078379766522,0.3770929103871712,0.7161194449426077
0.10398884110935866,0.21659581429037275,0.09411260818266726,0.10380264521439844,0.23634543382746717,0.2035056681922462,0.23193583335418413,0.7374733447595506
0.12166928528256322,0.19168980520925713,0.16857427921430654,0.14554029003860808,0.3036572187179762,0.3175032811979589,0.3159825997092129,0.8245753649500793
0.197546827854394,0.20503560244479446,0.20872200534296334,0.1959181624431429,0.49648648030461523,0.4639298858881312,0.48810104171192953,0.8149143396446937
0.13902932108851088,0.21525735129146897,0.18433615441054566,0.16205310909676546,0.34257651080392204,0.36411410242096454,0.41772601135937465,0.767574050978799
0.1257437549169446,0.21237903957195498,0.13627073194351944,0.08757065453362023,0.23818905503726046,0.23409559826452345,0.2129103139464696,0.6685008954977587
0.058391324260833787,0.1405115466194634,0.0709377582786548,0.04212786711821303,0.13038594035341775,0.13115063496151116,0.1277066898821212,0.45328027109706515
0.17113487240846353,0.09403195535388549,0.19753346946647665,0.18837178179899122,0.4298986706832452,0.4517565979040101,0.4347789025658887,0.4727096489656609
0.14771309540559224,0.12507469080314496,0.1600595366500947,0.11200238014678071,0.29920353416485784,0.3407537527065554,0.27085098627099385,0.5042920061465186
0.10413255198771364,0.21128449343508998,0.156269732648894,0.10951863887009897,0.26917677558268965,0.27723236719067396,0.23423750516113973,0.6880457633862651
0.055897548171125,0.19515283314524742,0.07541349258749022,0.033681566317808394,0.09951401354821965,0.14857266735004884,0.10125988439636016,0.6627773154963521
0.16270744523874714,0.17714738108303926,0.17830458781058908,0.16551412400681098,0.38928012012062346,0.4253796049459467,0.4753465612566543,0.762365237336503
0.13305196209217093,0.22495651745900053,0.1784318116103948,0.13779697634806842,0.3279119500443594,0.3583010798595758,0.37634869199023824,0.7562416864522252
0.09780368248770137,0.19173786078978464,0.1309571207071771,0.13018573074633796,0.23481869688890153,0.28443967180253316,0.2986259113995941,0.7265850404811859
0.05551692108741125,0.18998156274453057,0.06911950576165592,0.05650205073365967,0.11400516181773036,0.13144609134444601,0.14861584538236336,0.7098754277941681
0.09524397923743613,0.16695906815473965,0.1679808893993713,0.12317224033356357,0.31962346242869444,0.3487557666783437,0.362975739734919,0.5138156761773349
0.1595320527588401,0.18800964180932117,0.15763388146447962,0.16178006417377255,0.364511930380881,0.38020203736177627,0.35756009209039696,0.34358164474576697
0.11017748290926921,0.12621153447206998,0.14005190554846253,0.10240914056762178,0.2607169454902001,0.26986805206936204,0.29302710697127987,0.4088108868757529
0.06328732722548243,0.1840887905251676,0.11454219139977516,0.04255241375868769,0.1422330248186347,0.15072736878395082,0.15211956035487656,0.5926376574007998
0.07479878797185656,0.18871303173975607,0.09498672596931734,0.09840721833476258,0.21014163034401684,0.23942637343256185,0.23886378092487218,0.6020880614280416
0.1481958143874706,0.2228760337710143,0.19216132129785665,0.16043396871849758,0.4217918992257302,0.4248866091039155,0.4274977742727064,0.7651288777123209
0.11536590356564147,0.2314474815216984,0.107165762010585,0.13535167933293404,0.23240168402868325,0.24383419671486203,0.24780340968543002,0.7156991464524327
0.07110945637176769,0.2384493524228458,0.11485228251605778,0.051919155291671744,0.16989084296889523,0.1815830246169785,0.20840494971646395,0.7471607780359302
0.036908740711288204,0.17559270124065773,0.04048769993780394,0.015150113462929781,0.06394284379448646,0.0907174852634429,0.12190744800408468,0.6845103486968136
0.15150558127486577,0.15610033018036823,0.16934238593946396,0.15283463699949612,0.41045955767042847,0.4323622689266755,0.42352156475222574,0.5419499494877689
0.09166746969398624,0.15720433223472716,0.09369778412915618,0.05692953841333234,0.201983781943199,0.16871248909429548,0.1807477647223761,0.3788025671768199
0.05596561680465056,0.13944909394083102,0.07206484337997929,0.021261133360431908,0.13617351173526168,0.12524456726755565,0.11153292762657697,0.33779160090896615
-0.0038309652049882716,0.12605147684908477,0.010476713175968386,-0.045565761490667905,-0.03477589454792127,-0.01827235003580062,-0.036950700526708506,0.3999920628119601
0.1227660096205403,0.12314416873562767,0.11909366166558093,0.11062691148402516,0.3058984511655456,0.3258939672860005,0.2959906205669017,0.6371848635842162
0.08129146277398468,0.18910491300424506,0.08817041775779097,0.04114153503303594,0.13071946993516417,0.14271481171694003,0.18381764121849334,0.7564183831736448
0.03681156262958802,0.19031026498087752,0.0609095734755627,0.02740025891493609,0.08584254666053556,0.0967305970053333,0.08083384956833078,0.7545547624147122
0.001619329369565023,0.20210013777742636,-0.0033939631630771705,-0.05473821553297878,-0.02407376881279824,-0.06775015558299902,-0.0382116300314746,0.6670962157295957
0.1054809287033122,0.1416349216789833,0.06966020630597967,0.05813455062322009,0.24778099118498803,0.2684796671727879,0.2518534333634489,0.7190252940141856
0.07860477365025395,0.1761158307789854,0.06390505429152778,0.0177904230195187,0.16001843780549874,0.1287030158505496,0.10171306478721183,0.5841630384544338
0.030981295761616377,0.16326891793775714,0.017473231104220836,0.009170238335934246,0.08218648739489237,0.07041362973883257,0.04810068478287228,0.560716405746189
0.003086600597108833,0.11515621379733917,-0.02521346402113842,-0.06772657001395159,-0.05777756497955229,-0.08849931142450831,-0.09590031697973622,0.32876104811336754
0.11497869805305024,0.10472083596137757,0.10920437173130261,0.07168040119211778,0.25314816053614936,0.24470959832443306,0.2940230243619655,0.3401620274735541
0.07663378601058826,0.17325898541898851,0.07792141253417029,0.03580978691176085,0.1461660539691068,0.1505133139419711,0.12626428989699637,0.5105131302163527
0.054395785527809944,0.1739909597046749,0.05363289279148539,-0.006201892232372699,0.07159542906798173,0.08738221999733026,0.07092033588063688,0.587103536870654
-0.0088520305382421,0.18168998601845668,-0.02153009196847449,-0.06131409106919984,-0.02819405252753013,-0.02912670191992332,-0.007385594578117226,0.6292447382176563
0.11487312669325732,0.17517661668982987,0.14006219683040882,0.12088778443961419,0.3161723075953796,0.3115061200258644,0.31715117172320517,0.7640915660192449
0.09705490558016991,0.2008873650377226,0.07668205434049515,0.054382429013995544,0.19671563014294266,0.17542589792523566,0.19089012860039573,0.7101975419601783
0.05133460276628456,0.1766719245963616,0.06827451372704745,0.03509665225009879,0.09517760250372628,0.09784413511334282,0.06866233424011355,0.7425465121126431
0.020201110863143638,0.2018195219966449,0.03700803667486095,-0.021802890038644294,-0.020901378113465457,-0.0076874698274414545,-0.0019810467765197597,0.5805582911073475
0.1437034130247811,0.14258501564868717,0.15696911187405985,0.1155396844335581,0.3235778508053917,0.36855333333433327,0.28730664393878913,0.5101306315922584
0.08522364296079468,0.1261139964445496,0.1121111420564182,0.058053633175026806,0.19372212664924832,0.20634998944931132,0.18863123538887755,0.29180570216005536
0.087616628925691,0.14862014612042726,0.08172847637108252,0.03414890125727595,0.09490828990506907,0.11448703068646357,0.08028392758857412,0.34944821997494896
0.037210925828123013,0.12909612599540507,0.03147054686642193,-0.002507661730213228,0.01858982840568898,0.04231171207258298,0.028441640167307807,0.5595424812926377
0.16694883037676775,0.19039690644521864,0.16624336349070645,0.15001236446853633,0.371653470717141,0.33863507786686714,0.35965486497664945,0.6273155354531035
0.10731848775140342,0.2147863278909076,0.12257454383293415,0.0798244802040508,0.19931093388704346,0.21628471684108544,0.23147150194473987,0.6669423755263157
0.07944296566443498,0.1955478895208656,0.08168612306376015,0.08936182243838676,0.16967348617351113,0.1551497261882645,0.1737960611501633,0.7659882393412281
0.06099796957818444,0.15103982162088977,0.03506139168125992,0.029485339982664668,0.07076632996394669,0.04056555895269507,0.06205450464235551,0.6112316342371623
0.16013742475637102,0.2024839816308046,0.15137354361415223,0.1639480047436524,0.4004238737636135,0.36950159005572447,0.37787321866325335,0.7698103188165879
0.11138739713834078,0.13239774028317458,0.12066560383209042,0.08172551128872324,0.21692776310086023,0.22634225205766453,0.19839541680013068,0.5429767271742895
0.0901130007314442,0.14368719692569826,0.0884448230293578,0.06937982487757256,0.15769222426788673,0.12995651606999978,0.14090080788662798,0.3461865137670986
0.07075102331725566,0.13378551048062434,0.06580613326209556,0.03055297673154848,0.0682796831060524,0.07689081818752032,0.0588874060852655,0.3311362673148846
0.17162607824028825,0.1606551818771139,0.20854401180084206,0.160791649274016,0.3621445914623416,0.3773863428020671,0.3669920679585934,0.4534920635744424
0.1070680051845193,0.18186840696112874,0.10402755437346772,0.0992984049612741,0.19810291643260122,0.21785763400253752,0.15802200226658947,0.5138050939485461
0.09432115169549793,0.20302496870158088,0.10223974467291791,0.09080782820704364,0.18169328701381202,0.11311778004012409,0.13102702590537804,0.6986931330992481
0.07162321828354701,0.19334212208007678,0.07173756373011794,0.06357755204896132,0.11749297159618775,0.09797282005003603,0.0632336834447873,0.7077472919207954
0.18733761003138322,0.13808646663848334,0.1884329792769714,0.17896525014889028,0.3689964858081444,0.3958161452818083,0.3528842996332624,0.7983658112864838
0.15668260190151323,0.19501884237824504,0.16928432719621267,0.15924944714590084,0.23001660276119448,0.2402424690605227,0.20356989057961225,0.6852598676057363
0.12945096801539488,0.1290884080939626,0.1402246918177447,0.11176100352178649,0.16038502136713084,0.16224316340220138,0.13177248638045566,0.5676867779298117
0.1047314560317069,0.08431123203189853,0.13062550508093002,0.12456956375252913,0.1250831672549458,0.14282210848998705,0.13072308355703538,0.37510112633894394
0.21801228586653476,0.16483993860996646,0.21873121838355353,0.2231301037653828,0.37032190312391877,0.3949136771229004,0.40547605523837427,0.4579325156724459
0.1652263550061348,0.18750118014006548,0.19446425786558874,0.16322203647671313,0.2786263531654689,0.26885624847518025,0.24800785481298707,0.5112325723326696
0.15141530207861362,0.1565457231925075,0.18126383483328348,0.15468354914082766,0.20922252491183377,0.1715807192407822,0.23963774130714546,0.511079344949881
0.15129432591985267,0.17993482035883995,0.19711719220217375,0.1638387789799018,0.21056169226876312,0.2321186446384259,0.23675036626569634,0.6330440914947164
0.22994778194546417,0.1945551599632442,0.2891726360711881,0.26765306401079947,0.44135920840458853,0.4387767906021993,0.46306372594866857,0.6787052898621524
0.2032417596540732,0.23129882365295573,0.2146705683552001,0.1955215037355038,0.26964972995743625,0.31368312376675483,0.2892745011695099,0.5893477622489828
0.1691624455655991,0.23191258545651497,0.19527572837636747,0.1782472428863005,0.21531105716484764,0.2046656878966389,0.20136070282930058,0.6842587113467964
0.18721399142936637,0.19371204147128096,0.23250310254763012,0.194665267257274,0.2998958899184385,0.3043586795998608,0.3451902003992698,0.7448895742242441
0.2499014260282246,0.19275879186379963,0.3038343605202528,0.266797254923683,0.42799248095874964,0.44449660535894736,0.44508640854028453,0.48859233012284903
0.20528347947623193,0.16603472459848198,0.2425165832606709,0.22046580968266033,0.31166914735015633,0.2985134433328898,0.29416371851145334,0.35563674715285754
0.17580968871144032,0.11921588254072055,0.1914623882324858,0.1802069523732082,0.18079270272475295,0.18176507485620996,0.1628474754292514,0.32240860806339894
0.2024552543997873,0.0881195768507514,0.26517694561991123,0.24199138914625723,0.34635380986684633,0.37979800009678133,0.3970540408604334,0.47040658344652597
0.23509399976547207,0.1527859235530468,0.2829819510139576,0.2769430903202507,0.3680620019420446,0.4021894555008394,0.41959265143838786,0.6361580066277263
0.19351431052938828,0.15596783399489492,0.22629329333821036,0.21743108707270092,0.312773116652205,0.24047941086714153,0.28201982711759743,0.6840488590868513
0.15064857143972418,0.20578789650532195,0.1492400791469494,0.14997231788096146,0.14047991542474347,0.14025720583651372,0.17711423172333532,0.5873228619047287
0.21414390099911587,0.1590331598734377,0.2413033914260108,0.23752820635988497,0.3575357200849037,0.39689707003774655,0.42520760037875527,0.7767294991945011
0.19271440853827387,0.2729935373063498,0.18304812650896207,0.1823389628376787,0.3071695966673961,0.29992139411730767,0.28369751331851295,0.6589646345817959
0.16287756292420005,0.20014053730295536,0.16378494351932563,0.16762437031589275,0.23467235965988187,0.24961721387193156,0.2030295913287086,0.6296043276106478
0.13308164235801462,0.12115679991085035,0.13410489329156097,0.1289015298333796,0.14252850980989504,0.1807988576453278,0.16284667685510104,0.36796875780167626
0.21250594170780407,0.13660385299525626,0.23507329403878677,0.2429590818368637,0.40217359479482767,0.4311432574076161,0.3912112666386063,0.422064768839341
0.15841491514384737,0.1137058415179789,0.17491003039297492,0.18183756148874008,0.2459370538742857,0.23923528969157626,0.27829918174903334,0.4445221053540636
0.13905460275528206,0.1720036599288562,0.1519943946776882,0.15282583793567864,0.20404643803370973,0.1939443804280369,0.1998613473591921,0.5560050028178601
0.16127129610960084,0.16551705304600015,0.18872161925268463,0.17513931154227677,0.2693877033832102,0.2791866995608732,0.25572514868916135,0.6524745884060743
0.23208396423169034,0.15667532598410397,0.253526406902836,0.24745876082285206,0.4134883729097629,0.48102223727706633,0.44449028372053223,0.7123848861291734
0.1982444572140688,0.16671016309835565,0.19262780606532043,0.2242297067227479,0.2978067833678472,0.30504131470857027,0.3217707824880566,0.7379447138485877
0.17045466179908347,0.21937331884063843,0.1708927913140807,0.13781274802877036,0.20188212716124898,0.19283185266221875,0.21727828238672572,0.7074455775405797
0.2218987677482053,0.22938717419467275,0.27142096738070914,0.24320951176334613,0.46015409265227153,0.48790991280128115,0.5060233638453785,0.7961112493636108
0.22572138609621273,0.16503789040908198,0.27131820946891505,0.2727441282450906,0.4628554482061048,0.4513999914979691,0.48541079080630023,0.5988248835966513
0.20706609447382396,0.16114096299875094,0.2278598419462088,0.21058415321511076,0.38148650626043706,0.36595414150506794,0.36878268403129416,0.31036471276931554
0.20286689034819125,0.12389044427714825,0.20759152495522726,0.2110195200893479,0.2925508308227693,0.3095819806693833,0.3163900249448338,0.38370195646658917
0.2759655981411437,0.1992600426147256,0.3243802030363027,0.3074772988075075,0.5642141616929482,0.5908325277201182,0.6053551533676795,0.49138560439915047
0.2681260788012463,0.21856331640394688,0.3008902893851311,0.27284234781071487,0.45083297566853425,0.4819449629468536,0.5254521391780238,0.6591313693685703
0.23200580424508319,0.22842341233398233,0.29979590756817825,0.2743374142459117,0.3681662099118534,0.4430619952720449,0.4202761843925338,0.8354259126452082
0.26080859327771266,0.1998749870240821,0.3183656719938787,0.3061291913310309,0.4366003896125379,0.4496967579998029,0.46359034205679794,0.8391413967629027
0.3402818516522323,0.23086628173462934,0.3827492410339517,0.3884774527303848,0.6048802977798644,0.6388917267596677,0.617784664342547,0.8016795495772001
0.28904186043030683,0.25271954506965816,0.3429126303323668,0.37006231403326145,0.48515360332001917,0.5328130879787282,0.5215163185716587,0.905601845115909
0.2622769703165672,0.24126532474846668,0.3212265063302871,0.275903353680518,0.3779878696651719,0.4012087983394452,0.44748471966084,0.7166835584926019
0.3131784657264207,0.20406787337539295,0.370963207817031,0.36471632282324185,0.5577039439681369,0.6096559008678929,0.6045640333864047,0.5092065056179501
0.31855499107181423,0.1539991051238231,0.4100206336854816,0.35407947095015596,0.5521953642821005,0.5777883003587467,0.5769574433926073,0.35677704550869505
0.2816203046327312,0.13778104987989143,0.34226602266363815,0.3304401177442385,0.4538970835868353,0.48865036134981066,0.5039054358602777,0.4856604990417635
0.23801171435094218,0.14309842261482564,0.311514047282125,0.2904990219479123,0.3288868122196049,0.351704368203151,0.37154978097472424,0.5384047063468369
0.31596209484592996,0.20344349875981646,0.4021260548824634,0.3900662522968145,0.6125168861102633,0.6230450282584924,0.6724020409108866,0.7441805104334107
0.3015253568882543,0.21802248049307998,0.3831261194898906,0.3524190104597368,0.48381444754753267,0.5245758997437673,0.5740711507033655,0.7553398518875566
0.2945471727379791,0.21767783299504376,0.3389891401690249,0.33943373673732774,0.4376734355663433,0.5048974094296573,0.48758374911041924,0.6640535712791557
0.2648433235977658,0.1716521441573354,0.3224599174967584,0.35579789635180054,0.4246653225633521,0.4790707126381746,0.4852918288459116,0.9120422534923756
0.36291771770109216,0.17344788597457442,0.43779699762621876,0.4203476007795514,0.6793929493678355,0.6611511771648713,0.6974531646061424,0.7126286337522026
0.31823784061654603,0.16245539769821976,0.3823582704861712,0.3539205097023085,0.4823143132705295,0.5445717206776431,0.5398904331843555,0.6720544712288283
0.28017860857062465,0.14104386426100574,0.3435600518390683,0.33719368314448156,0.4160193747670305,0.4235813905927244,0.437613183577445,0.4286405434381975
0.34881897487086666,0.19840038188482986,0.3881913570058541,0.3844841556594143,0.5503868066960925,0.5683532740890734,0.5853102980394065,0.5508342201086388
0.34349844502752963,0.17346863802876547,0.44984942169435194,0.41317193526308826,0.6177162439048344,0.6533889661758084,0.6440217296821867,0.6459938968743363
0.30489984874074283,0.15278095306871647,0.392615122823802,0.385608997853496,0.4915569073241113,0.5482289021509822,0.5535924646077834,0.6534393283174832
0.2855531272953827,0.20075488286886595,0.35966723138446355,0.3406312805048186,0.39969092443243665,0.40846500735351715,0.45868124235376734,0.7965945714037836
0.38780539554265975,0.2049664891296976,0.4351528325308389,0.4610600093831977,0.6885546354548875,0.7437154205595617,0.7367354962288326,0.7931663707929164
0.3708880216873014,0.22811876905613057,0.44095163354144007,0.4490162421135946,0.5686197158352391,0.6515907171891727,0.63218218737107,0.7841855402905069
0.33706994054740613,0.19590820056770786,0.41475988348137893,0.4073462212085921,0.5082108921625526,0.560799151419062,0.5719542327250091,0.7126683581827197
0.3058327325307133,0.17692031730074168,0.39422192050427923,0.39345433187008416,0.48571643213585886,0.5125056535125172,0.5711319578821891,0.7611227103266806
0.3994426933550995,0.1792251272014235,0.4879132032070069,0.49988179087175094,0.7210668385576327,0.7626635867237541,0.7637052969929681,0.5670825160705527
0.362263254952433,0.16313736054303338,0.4455804304257055,0.4532921015681779,0.575622371976042,0.6449767846237126,0.6277221886263022,0.466453347302708
0.3593034862846104,0.11336614559712797,0.41655975901894643,0.41269726890067354,0.48376618981790304,0.5364551321334119,0.5497027887372888,0.4866535687432283
0.36227434069945197,0.14133933129578968,0.4312603503887263,0.4569441083084322,0.5407449435901139,0.5798254120597074,0.6581246738227603,0.6783863897475477
0.39032755829422056,0.18640622523417535,0.4959590275239685,0.5181811848391132,0.7232831161761933,0.7497813202659506,0.7951327590059248,0.7484777892935868
0.3605276105285504,0.18114990748542095,0.42858601782029565,0.4533171546484418,0.5619458645757045,0.6167737075734534,0.7287741876254925,0.7610738489261911
0.33986318074218214,0.15290942302748217,0.41283240936852544,0.4116536385538582,0.4553929979693082,0.4917163766480484,0.4673576205588146,0.823779245547702
0.3828348433296024,0.14503055653888833,0.44259939136443255,0.48546905218183334,0.662535187538867,0.699390155302306,0.7681636462909086,0.8369671781028555
0.4037994160257278,0.2266880546476812,0.506376161643432,0.48589673555803264,0.6840074598164407,0.7534484011808201,0.7725246877372677,0.9260473820369585
0.3686894255719824,0.1469969121810781,0.4533938702988497,0.46351492033649505,0.5850288997504368,0.6406539023100373,0.6741632262889282,0.5978235815066181
0.3255182425009522,0.11685475193613899,0.4080199526637413,0.4184682195483467,0.4189094529210943,0.4878348369162374,0.47150297956268256,0.49803627691527136
0.3842413788357868,0.10248305056412875,0.47792449218890454,0.5207854443897342,0.6621168039470551,0.7279620054433151,0.7646271078818504,0.5264446309338726
0.37948113745519074,0.12904009727264446,0.5125271870729566,0.5505772398191506,0.64991762062153,0.7228918549591261,0.7624998983019585,0.5164349437363001
0.3815785028840746,0.14778441820787983,0.454887402100783,0.47976556205978366,0.5573104038177199,0.650923928994356,0.6396217798860938,0.5878515490001571
0.31532083967395746,0.14621689739106392,0.42036271903116873,0.3897811453933043,0.40603179635261805,0.4801530305061432,0.4951105796754528,0.8165020618470942
0.41793828972243074,0.18969389211683452,0.5281658300069584,0.5264803047873304,0.7276642141555476,0.7857609126914078,0.8248127288701055,0.7771385964048588
0.401643445955183,0.20559917517907841,0.5206271800663458,0.5167781746461854,0.6329589710303324,0.6759057929086298,0.6702268260146087,0.8073058923243559
0.36812274736777284,0.19084299298621157,0.47865154153469064,0.4992531828902426,0.4963534613713158,0.5541995456559091,0.5727503136664659,0.8243645058081168
0.3277245885058915,0.15333299299809244,0.39122370039119175,0.39334214676288815,0.32614640368763176,0.4243454794224013,0.41355597541437833,0.6982661514491665
0.423484348768739,0.15743275268297174,0.5253463231203717,0.5405229603716357,0.6899845190288473,0.7162632823214257,0.7657809562433149,0.461441797123063
0.38982763815665,0.13249537426466468,0.5064973795194078,0.5114214819149385,0.5530757990808187,0.6283898716162605,0.6429923366862361,0.5277165853678691
0.3957648973332369,0.10094234576534587,0.46561924859613224,0.4706534226717876,0.4761519951850552,0.5377881664313432,0.5381223299466914,0.44094415566847783
0.32599905818262537,0.15261221083647947,0.419508294557148,0.4251869038214417,0.3674002527231194,0.45847254021719497,0.4833244985017906,0.5390574504559364
0.44345088240448605,0.15478059953964787,0.5405220324754162,0.5669995610935333,0.6710189490251566,0.7505720809947721,0.7557931609260407,0.8239061715672781
0.3824556517575591,0.20670187759649514,0.49177496743369115,0.5078799166013281,0.5035857164482306,0.5635647192214999,0.567002984878246,0.8192122140190252
0.3505839271539399,0.20551992583702122,0.45245389950555576,0.43416794507486006,0.4180560202979846,0.4516482291743378,0.4844371882593609,0.7175980611552888
0.33989073644592693,0.18937478624876267,0.44072674131898937,0.42197168258443823,0.39284354019891904,0.4532218476051125,0.5179062168489692,0.7573021487047789
0.43762416088955686,0.18999523381809685,0.5318142588556941,0.528498392902483,0.6386568767308765,0.6963826365424978,0.7379556755140817,0.852978107980735
0.37383946444812954,0.1249472720103981,0.4665176867780511,0.4755171006227079,0.44216780758793334,0.5256307259893395,0.5142258857799014,0.7017696481131709
0.34964197851833556,0.13714347291155884,0.41962713704259585,0.408070564310345,0.3331897931038051,0.37813268644619874,0.4202383219923296,0.5645619996173442
0.36570742030984027,0.09891391011586612,0.44604659345709297,0.45167385525029563,0.464212052461605,0.484682225021578,0.48373161995523456,0.3311099312476525
0.4074875140104968,0.1255951743903995,0.5428414435564952,0.5064194765611314,0.5662014549373139,0.6146907432308987,0.585310251158785,0.44805269235553585
0.36764162966922787,0.16352680806799744,0.4671215934017255,0.46567700759248914,0.3616479396448738,0.45046018080355993,0.4937068484001314,0.6898736764720147
0.3210204268157477,0.12298686291848909,0.400248329527878,0.40472839151227286,0.3011428235321504,0.3441822461881608,0.32599898707045516,0.6752268749610456
0.38782484953164653,0.10669284037166168,0.509073767000082,0.5307690886775024,0.5666649558712268,0.5996563100873168,0.6432751281170231,0.855051870423215
0.40933397521711373,0.16484183928863053,0.5080519889054474,0.5219112389758968,0.553911673166802,0.6281956624113936,0.6350877111867845,0.7699402754290363
0.38185854941954755,0.1361173161393825,0.4793629718962199,0.484080979853846,0.43332766977487536,0.47847760231158454,0.48831621620256493,0.7948881263824173
0.3459860759266358,0.13392931196892993,0.397203942425502,0.40418743986235195,0.28892795888594053,0.33111894153672,0.40163248958914827,0.7345602730229078
0.45873495581706863,0.1544906657382451,0.5565298865790643,0.5667463312756863,0.6254208693179188,0.6574368129191082,0.6773877013226858,0.5911403001734784
0.4330747357325125,0.07196127971527849,0.5156536846303666,0.5288594483320467,0.5715879003825377,0.562001944880312,0.5731403632112205,0.49108787206103066
0.41249109475461626,0.03527182896121219,0.49406617600926755,0.49842439820345386,0.43264881193224275,0.5026987549015399,0.5311804548938803,0.5199119020866516
0.34363121755385423,0.05864150790472583,0.46003257449617035,0.46714327355179597,0.2836173352917993,0.34423394688310077,0.38069114922607816,0.488687062383756
0.46158087911522916,0.1339188253128595,0.576679031455994,0.6185867062830269,0.6492341271354706,0.6835645589650742,0.7379913569240891,0.7788428395068516
0.4290346535301435,0.13105487663303947,0.5407217333008527,0.5621156365716908,0.4787871996720763,0.5772318101404209,0.5971856130536051,0.8551261707358436
0.38284853280157777,0.05948290279326955,0.4527078692727441,0.51507688435354,0.41265564399602855,0.4610287509225263,0.46328980898383726,0.8282241259365014
0.3393254154355293,0.036917542461600485,0.4365992736306099,0.47004480116463115,0.37023412504391545,0.424602557238521,0.43759937585450354,0.8137487600156432
0.4678286308483208,0.1446622626911913,0.564775251544514,0.6100427688109369,0.6660804093400707,0.7037969376424181,0.7370861628207148,0.9478728896387452
0.4144391495250278,0.0570240835437817,0.5037185741113569,0.5248586200657803,0.4085521546018685,0.4492249210841179,0.4906333677451198,0.7468853325764491
0.3533444773354994,0.06606153672681964,0.4460863400219418,0.4653131781912058,0.3122438921226033,0.3460530772883244,0.39595707806513014,0.3860123245589462
0.3303367231708378,0.029536287284940767,0.4114564896426594,0.44097380060868735,0.31146620703226646,0.33831013581014774,0.33079685346133963,0.48156181010186255
0.4466958431556756,0.05050381016950548,0.5239114799864953,0.5815551838384315,0.593254693478086,0.6201698183247172,0.6079100220334666,0.5447642494470853
0.3784753850955078,0.10447733747062163,0.4645752249901919,0.4806015750757126,0.35702255729087107,0.43603758467910964,0.4925595417358333,0.5795587944199242
0.32858763337516333,0.12674498844563162,0.4434686816815718,0.4069105582881395,0.2710023490874058,0.3307135965285942,0.3659151255730742,0.6877333783606885
0.36622538213971284,0.06683488667785928,0.42559101644469044,0.44453587519111254,0.33884406239315346,0.34356955092594743,0.4143241454707371,0.68604442627984
0.43076638893836416,0.09637571436778924,0.5414569418488632,0.5455855041512728,0.5022511652217918,0.584055043829756,0.5956911490912705,0.7045099313021264
0.3708486421540267,0.11497823663507445,0.44226378478517847,0.44769974362404713,0.319057016743241,0.3891397407266137,0.38851609088890277,0.6247676101622518
0.3106594335298986,0.07252212898645753,0.38026585863431606,0.4148386735945971,0.21668865964853823,0.27326142531988984,0.3249901521562661,0.7168310673011081
0.3370376487417731,0.028677717109372208,0.39359116217185347,0.4288213065154683,0.30218832054796124,0.3718598681467136,0.38990430412745913,0.5679599858826779
0.42341603598694133,0.03426858752884591,0.48497667997774807,0.48334726506180686,0.486288081031629,0.5199923882428584,0.5705756241101927,0.42710268261718926
0.3381289968790352,0.010410225234475904,0.40062873024954204,0.43229721876315014,0.286050533372322,0.3231062992925947,0.31210846325852637,0.3857141445806035
0.3114197597327018,0.05624989330004096,0.381838051153633,0.36264289275780687,0.1622157313282206,0.24321476388105548,0.23778401137175906,0.513394934252942
0.3722544897062996,0.03864945239421288,0.4380895224080704,0.45637837009344345,0.3284166625740273,0.4467152463148931,0.4309083104921668,0.742265512129204
0.4336263857350052,0.0675897979626624,0.4867442366687084,0.5425828667025,0.44449964511353407,0.49304921605118,0.5123642443564947,0.8460189519843148
0.3346983149534349,0.12499963465276316,0.40924158022640156,0.4351634195901379,0.27126346242875193,0.3260017293155471,0.3637806720537408,0.8723388019620797
0.3023777102092523,0.07255021444407117,0.3798298592108756,0.380453515561772,0.1015623666731085,0.17608425586104998,0.18606197871118138,0.8110134448997689
0.3927897526568182,0.08209931912296206,0.4584647803457695,0.4856662372145841,0.3885097001360532,0.43177725760755553,0.43489132768545685,0.8626873325672054
0.42105567028639657,0.12814805861259795,0.4869118129062836,0.49613544039815227,0.37381408747558365,0.481931576026571,0.49617233135437394,0.690078086317318
0.36121717031236367,0.025652285677799768,0.4170052458283093,0.44085139488376895,0.228065034346105,0.3223684201229062,0.3427119808677057,0.4835026016791476
0.28169501435681493,-0.03295032520188074,0.32432689820897814,0.3462912752612436,0.0681930110230211,0.11894315943064089,0.15141227569330434,0.4381249370221359
0.39110984856526754,0.03047701178219576,0.4529238972875252,0.4801812194117174,0.3366301042242429,0.3590771666886749,0.44922813157739216,0.47705878946285957
0.40540378364608315,0.05977043470986802,0.459177022128879,0.4979654273870807,0.3473144518228654,0.43480674874243236,0.4063384105615246,0.6294867826715502
0.3437689013410652,0.07660173493975111,0.41694503859348914,0.40545439869819994,0.1996832831182415,0.2596847449924514,0.27788539716296845,0.8028071366696554
0.2768956943620261,0.0514671829971584,0.35837022581221417,0.33761307541011154,0.07711141619105492,0.06648624562437205,0.1376443337053107,0.7948575121200337
0.39190592467271124,0.02581255824921747,0.4320765882786374,0.5036675780304172,0.3552883027260887,0.4230518270946005,0.44885021010138343,0.8800600997701867
0.39924669062284196,0.0218511930211259,0.46751229972758107,0.44139319384658954,0.255170902742322,0.3219091879818746,0.3940581030415943,0.860844544236949
0.3287773093907904,0.0019014461465034936,0.38992113480825663,0.39681996339743597,0.13307597600645688,0.19209732344169814,0.27196339283119014,0.8524494539123308
0.26216720771837393,0.009992906989533215,0.30931080931782123,0.3000544327231234,0.02233095590244714,0.04817849779588553,0.09910864574210095,0.667737769381468
0.40494690267454414,-0.025985806406679825,0.48084043060198034,0.48027393278699126,0.35084541189582624,0.4528918144610959,0.4585173365277648,0.6195931206766927
0.3670346279578308,-0.013503251268768121,0.4265919792987223,0.43907921848028575,0.20066326457249747,0.29929125868938267,0.31347269334835387,0.6111760184197714
0.30661587784474614,-0.08191160410752964,0.36847470179682906,0.3629888396423618,0.10094005488659008,0.15119791836686347,0.24140672456926748,0.5677034857697313
0.2310290580806896,-0.01585453442905034,0.29535225736471693,0.29562553854735896,-0.007080463732684154,0.047651426527889076,0.08214223796329112,0.7716017661971966
0.44005783195925086,0.0162763521129354,0.49910609803369627,0.5281700563455615,0.4185962832861074,0.4891945625932924,0.5343636506649907,1.00923270073022
0.3507203471649132,0.0031115449349793404,0.43850428648318274,0.46470190714807613,0.2164338511053124,0.29360707729016594,0.29759870573325986,0.800440860113821
0.30069184372959157,0.02553494641206512,0.4051888668685168,0.3850713867008688,0.1082761918635806,0.19766835454303636,0.2392347055127306,0.8333287617551115
0.2358809431106087,0.00961349847152454,0.321755274170601,0.3163910495384192,0.0018971400047947309,0.05713027650661972,0.07509728679410312,0.8163114830299125
0.43827502428409604,0.0010893737045810123,0.4879828287211978,0.5534449498755137,0.40446103865320926,0.4846722911367126,0.5076593381463015,0.7512822860259306
0.32860025199975984,-0.014584837468628356,0.3910458091321524,0.43119625889175334,0.20374014939707089,0.27250861054564574,0.3104181063098123,0.6362339197040623
0.289256492331371,-0.03208264905832965,0.36158776133807086,0.3725450423519456,0.0814502017159885,0.17399779652029015,0.20597374565939405,0.4000459248151892
0.22720289800178767,-0.02272435028499297,0.316993173615663,0.2908527078499313,-0.029025031833199717,0.07884267120918306,0.08585126718163817,0.4616529325725714
0.41405236255297695,0.015287522463288091,0.48337095699425486,0.5520301196955851,0.37724125198929254,0.449918520174144,0.526845605817253,0.6063170763865902
0.3310735076003255,0.062031483824038815,0.3785288819963423,0.407854138554919,0.16007174617329073,0.2272373286621232,0.28014176609006053,0.7347723706587469
0.3128426398813858,0.06720758317999034,0.3777708534213183,0.3945545686969034,0.09643325600856964,0.18569853855738577,0.22838571192681015,0.717859866918651
0.26452082152010675,0.07358817843909365,0.3343062251086995,0.3344716791592401,0.047444892032290374,0.11294535365868379,0.13383010617568142,0.5932803046790748
0.41172547695776046,0.03912165454778144,0.5058914539018301,0.5290726914608317,0.4362176115921898,0.4964555047068487,0.5935228482419712,0.7110650185959878
0.30928487610227773,0.01784581576392862,0.41162963244998774,0.41543063971594946,0.15868574573177158,0.2617867699502533,0.28182367394088303,0.690657209609549
0.29578043723342234,0.05382527913634088,0.3657554937774245,0.3780375186184943,0.05135492928562939,0.14452096394858568,0.2145067130093757,0.47615321056684184
0.25844131380925695,0.08681992206188421,0.37585759950014525,0.3365589540592062,0.02101521134620922,0.12730916385342705,0.13888618930858773,0.2567587279507193
0.4119462131717427,0.12741599629834244,0.5438857392585756,0.5075043734666089,0.39550944737325716,0.4611626388394067,0.49347564490909634,0.1604480743281594
0.3111822034541345,0.18608762475358737,0.4282910452535421,0.39381976990190604,0.14694490533952723,0.17733636140079012,0.23178713821041053,0.29087560503365384
0.28509697848246107,0.21126072773932014,0.4009077940827393,0.37208649393407134,0.044819081956048536,0.1364963930148472,0.1549803703571749,0.440725886391924
0.2564013069359064,0.1252437649943756,0.34399145728379865,0.36965938785500374,0.058430338290617084,0.1696204149364259,0.1764829372806769,0.446686041710577
0.409604875244539,0.14584608211748948,0.4976364959180842,0.5017640733695302,0.3597904701422141,0.43142322146064277,0.5198174546655605,0.8459624110684313
0.26359209731261335,0.10314026442392148,0.36775068595106003,0.33715919671885686,0.04745483211691144,0.15945801838131943,0.1916447949983442,0.611716231524672
0.22100084312953594,0.09574420218875102,0.3191730192818033,0.3216254822918944,-0.05185667407090119,0.05120573572177054,0.13379869283172988,0.6440828545959274
0.24768415530972426,0.07084474698887934,0.33451740418539755,0.32444577334728547,0.013093786522621899,0.15663008585538682,0.1879637517410217,0.6647855157182979
0.3444400579089346,0.046672292315755586,0.4316147940151183,0.43896050056763447,0.26415141661391206,0.35339373289946036,0.3962054491183592,0.6117543478453992
0.276403581004286,-0.026082926339307866,0.31935377987119823,0.3302230147903641,0.01843732125743446,0.11336269089836928,0.19538730103743912,0.39021269701792094
0.22165550878521226,0.0337746446272273,0.30239927868568706,0.3126335983916571,-0.022215821008616295,0.04711476445858207,0.11061950194046254,0.35771872799248156
0.30478601136980843,0.019102776425826026,0.40445832925078623,0.40473125258456477,0.23417438132575366,0.3732778720327021,0.39702534626965896,0.4759889002407784
0.31283307886586115,0.08545568170750602,0.3867805220938577,0.4360738120705294,0.2680535770575341,0.37047799224448447,0.37539309615670563,0.7100063692254225
0.2660213419124796,0.038230173250006334,0.3420221073300439,0.3488998477710725,0.10766875253030722,0.21100589273832407,0.23787966018401568,0.640271818636976
0.1994819673500951,0.04635818837391646,0.27820442741019674,0.2904964034308278,0.024733774009792285,0.09863702415033128,0.14184165622355724,0.7257674684300982
0.36385356131118,0.08831631565367042,0.4646535139443995,0.469746797397785,0.4510935574833958,0.5215785598351553,0.5956065233051504,0.8022936780963458
0.2934347343332266,0.07429067215014934,0.3634970861270772,0.3895011202766704,0.2224781624563825,0.3650119360822688,0.41526176034761086,0.7422286678288682
0.2660600082471713,0.054702751355626626,0.32770787893793857,0.3541504075821912,0.19379693219005537,0.25953680133425633,0.26725693743818196,0.5670500435748229
0.23362622877433847,0.0034263851214314067,0.30229271327130997,0.3159577723817521,0.1107211453450177,0.23502244519601,0.2554238124363191,0.47556602819781674
0.37681834527531893,0.002939012709797723,0.4428994002799893,0.45794312553660005,0.46748466833208413,0.5628835982064168,0.6256239972216627,0.3659209014453562
0.2792143703835177,0.010163315432803351,0.33783331063588506,0.37116168440612873,0.22713536080670385,0.3148673681794821,0.3875417961523415,0.5496582223147881
0.2590165475066252,0.04048011330909535,0.31212748917629907,0.3266060582548505,0.16658000783734364,0.22687144821720967,0.3128692735497598,0.6314077632572859
0.2671703217578723,0.08529061344175708,0.35980864832618425,0.3775767220710619,0.2452168995818167,0.34759724213490145,0.39025650775552356,0.6818158762721779
0.3319508051498526,0.035186347187500036,0.44546648065556677,0.47031584349908634,0.4299514566460782,0.4854828796526366,0.5648905387095777,0.7920597049635321
0.25168007428503514,0.06738568460977126,0.34249476694754016,0.3472391870370703,0.21802133118606526,0.26541350370850525,0.36072794675374664,0.7221819899554887
0.22458423583466347,0.04795343866529738,0.3051833318314412,0.317868513054361,0.14046017558916787,0.16609863465553734,0.2720683320664997,0.8339229126845134
0.3114156390609046,0.05797618173471255,0.38256987389312336,0.4327278693497703,0.31403985743246354,0.4127054907202941,0.4717576771795456,0.6239020557651211
0.312473648030228,0.022806685552344195,0.3635340535968359,0.40712181901924954,0.28189032445331025,0.38437800360978797,0.39546107900599964,0.48203014793223586
0.2455863033312239,-0.01127704331746115,0.3063667779355349,0.32426931284533617,0.15401573605055616,0.2259865697428164,0.2647748009428058,0.2719695539860254
0.1635326319141013,0.009591643850702915,0.2306435865824932,0.2995163756784316,0.034958051048886336,0.09040921062470486,0.15916414413832805,0.3447657704365275
0.2902379670847432,-0.0035546792349759417,0.3611900702114946,0.42104079532484445,0.4211135979080681,0.4987926573476332,0.45348310311541573,0.6055902081342597
0.25920608907613696,0.0542623437454947,0.3134305954919198,0.340135407593656,0.18146513461497332,0.2690153301459332,0.3535645414590488,0.5652494476165004
0.21916989246215052,0.05657025043514704,0.2967197752887517,0.2878519957156887,0.13497474554764546,0.1940111977124762,0.2452036475040751,0.7585842210333488
0.17352907312742333,0.06023976108058745,0.27851550321946683,0.27009674387735644,0.04752700613117428,0.1306586041228886,0.16765508733237827,0.5811948985267442
0.33554669505355167,0.04965614375467389,0.38763153635129954,0.4575208791941048,0.4207313280575133,0.5095164634746074,0.5611625484477213,0.7998122477126907
