-0.016636785749652064,0.10603142394716558,0.02115806850694088,-0.017752873452837242,-0.1566448108390541,-0.19816631047346278,-0.16804216284289528,0.36304356004506455
-0.0522077418571292,0.11212729280163983,-0.015331461933846907,-0.073542206666827,-0.24357976107534893,-0.27656937217593175,-0.2648535074003678,0.29468401406274336
0.0637580338593458,0.13435426970370717,0.09519389012350604,0.041221526317651275,0.08013003355167467,0.046402244281080564,0.040261299224614966,0.2568940817787714
0.017627748577440056,0.10945997131739796,0.05617322536844305,-0.0032497511094130987,-0.054715467938276315,-0.10962198630047117,-0.10601370342393537,0.12594884570508555
-0.01005499558301645,0.11881595623031029,0.02821853318940809,-0.022086439338752553,-0.1620879832590662,-0.19256083124610082,-0.19265419667932648,0.04377898593835791
-0.04788754738280934,0.06525915110740343,-0.06048406054705896,-0.10082691635063734,-0.283631935227002,-0.3155116724258423,-0.3177386176196865,-0.04197054341100788
0.027121435855864677,0.10369446574102356,0.07622395577091275,0.015028162597931743,0.008952072846812199,-0.004426830436202463,-0.00696326436746883,0.17945325798300032
0.023177427699368314,0.11406759910987968,0.05142165338005171,-0.003754587967650644,-0.049382443522728275,-0.06839563849384717,-0.05037611950749399,0.3592964417233697
-0.00509923429240584,0.11599328887067621,0.020729589475462287,-0.026590632337213566,-0.08863537245210362,-0.12711755282419984,-0.14472102643263768,0.37853562830881116
-0.029463894047819822,0.11897141308070744,-0.02500172042793907,-0.05655947511769298,-0.22060471272032098,-0.26137840570034965,-0.2561827578663816,0.23821298083763756
0.02977336063661097,0.12141415334260094,0.0632652956981078,0.018180262685423346,0.01808362360293557,-0.014855789781604001,-0.050158824773954266,0.3577284578088334
0.04579089073627253,0.18517064724931853,0.06406765711874954,0.030309108640847307,0.009838951526469603,-0.025907762871241677,-0.06437521842121027,0.3862966549257343
-3.741716145919359E-4,0.10179836248738774,0.04051849793976163,-0.009594289897915859,-0.05592811891184446,-0.11943341641020086,-0.11503784715598811,0.22985787572959704
-0.027065769948364512,0.07947824285551217,-0.021885422364591726,-0.07457339499219064,-0.19502855210607656,-0.24921952501054215,-0.2965060878689875,0.05893563830274155
0.00803674082909096,0.1032598745932389,0.048031259189346864,-0.011861721483723595,-0.06630434162093239,-0.10077683230489112,-0.12517391013440823,0.14622308842495663
0.04579397169274786,0.08238505588778977,0.09655451482827063,0.017616679715791436,0.05514058996340314,0.0141138826383744,-0.023595353857023653,0.21557668149170978
0.012804873419129212,0.12543323020404323,0.046192286022567794,-0.013540039812459742,-0.04098582253121618,-0.08864749757148897,-0.12825096259470042,0.2776882298242041
-0.009084337423625261,0.10853874684636243,0.01597173868889612,-0.04941240894680188,-0.14421316531209313,-0.1889142210548822,-0.1980425203475937,0.36176305885604576
-0.029259713227636777,0.07547245517953885,0.0052456953833512066,-0.04676055950215918,-0.144735266932227,-0.17531926918526786,-0.20673790803100267,0.40982159593761813
0.06733431987063222,0.13531182670356473,0.08366034288868675,0.07502169910827669,0.07171031727476501,0.06607259492554401,0.04998189559630693,0.46457024588672785
0.02428808782663956,0.1444408304851033,0.054056854900505755,-0.005310583336946381,-0.014908227372371546,-0.05981792816934317,-0.07390288224511997,0.4402695376565424
0.002588630083019225,0.12248951680300985,0.02986027569073897,-0.025066390784503748,-0.10787880768085682,-0.15086251549151813,-0.17001358854175685,0.29795824576446756
-0.0430048306038523,0.050562339110581625,-0.03941338926987122,-0.10799959797226502,-0.26595453612852166,-0.3001499492283453,-0.3177487752855421,0.1550216615578603
0.06866162455097974,0.085659978948542,0.07166229253581426,0.02312318998708189,0.05305549221390755,0.010002762229683767,-0.018529973000869067,0.1373575928186062
0.029002776936143438,0.11613053781032207,0.04763204788615942,-0.017731716600723008,-0.05397342322427958,-0.11036392932348126,-0.09675295083600946,0.02926662151841284
0.009432419893200063,0.12694281762791837,0.025045381885741055,-0.040693387919519056,-0.0779974046071199,-0.13056601028894882,-0.14162376518824743,0.17441082288079887
-0.04296986786743201,0.1463672002924562,-0.02729538945651381,-0.08348245951925912,-0.23786082007845108,-0.3016559152579067,-0.3306742032368949,0.17360759231535705
0.027305357759121105,0.13957398234752003,0.05015682322965846,-0.050642770494434726,-0.07604381038217614,-0.09749143642275945,-0.10786016605736803,0.4438623961226658
0.035908338411578936,0.1267952873708963,0.06989247922469385,-0.0012692844860445196,-0.028619501944357556,-0.06909588863787434,-0.12230756615918931,0.3849519749950762
-0.0033545103503479163,0.14244510235754854,0.04161095067133189,-0.043285481238369776,-0.10182735198236095,-0.15357306362489462,-0.1517465952864656,0.3151301289170957
-0.0382860540737706,0.11752172787749866,-0.00101569810893061,-0.10254219163093822,-0.2317265767747476,-0.2843969041577522,-0.2791966314059706,0.2793263304715006
-0.0038514269611987003,0.14634794658732503,0.008857562697243554,-0.03817902342294463,-0.12185464402700352,-0.15689753915894183,-0.1694339758142351,0.31470205113929883
0.047401537750490046,0.10471156160523612,0.07883207538625711,0.011761454764375595,0.02281654091777984,-0.035197566405048224,-0.07541483103023688,0.2383078868994219
0.011099034498936832,0.08799243571446608,0.02032158205174872,-0.03624557907818465,-0.12067499142616928,-0.1452048774927242,-0.162172339691335,0.004974575652491119
-0.021914793375917403,0.10501813313115667,-0.008635642567748195,-0.07723963879829954,-0.17761231227910676,-0.24278439957355247,-0.26688089473920146,0.08710178974408855
-0.03608861885274949,0.07842507837979346,-0.009102991142876424,-0.0650404795303116,-0.1737573221809408,-0.24420154640464617,-0.2647103041930836,0.16372064097779276
0.06967173999474553,0.17787269806271638,0.10971201193067226,0.04464059335353257,0.0909571693508801,0.07266067969676537,0.04065172258621352,0.44419457830324377
0.026930736076267173,0.14903089093297667,0.05411074419981976,-0.015003094746143586,-0.02537768200220544,-0.05955075046907866,-0.06629447657539929,0.39727542436878416
0.005920023013453075,0.1410139007443542,0.01992328039307495,-0.04634945706169471,-0.09499232233887243,-0.11141036776951573,-0.16814976220594208,0.41960534550800943
-0.044880899306247654,0.11668563773370963,-0.02178016433283994,-0.0820524545499908,-0.21349613637273587,-0.24248408612826328,-0.28044678887272345,0.15229615486052023
0.08361086953510136,0.1209712951856696,0.09509688964891777,0.05257667738409544,0.13643704500117748,0.10845892152139176,0.10340992962194273,0.46918249872347084
0.04670682424181223,0.16763764729079839,0.0590858045888238,0.012028522826920796,0.015263288704492253,-0.0027190572504259686,-0.03769333838526792,0.21911543629306185
0.016749623758697096,0.06650835981588296,0.019766762281416474,-0.008983888575837443,-0.060289481264449336,-0.10674084633466469,-0.1169899932931415,0.06796096195884782
-0.03388283179976276,0.05391372129226678,-0.02672831577935983,-0.09633788704277561,-0.227338993384183,-0.23062561674871182,-0.2563277326110828,0.028891271634561996
0.055472964819838794,0.10736134931614834,0.06764769546246968,0.02565760706855287,0.0730493713615922,0.020017921623236748,0.03454694942797675,0.2512689942216725
0.053664989905144275,0.17613494095412918,0.07802412651452068,0.024847552310710272,0.06749009759963748,0.01715004501197857,0.03079668132918687,0.36150388039218007
0.030071704080745686,0.17318676985360607,0.040413789548126855,0.0014453692371067528,0.014452190071811807,-0.041086682465181296,-0.04690926717378603,0.3410576371432394
-0.018056013460652463,0.17395186183813696,-0.011767524957520287,-0.08759546679108142,-0.1593382250060755,-0.18339222391284637,-0.18201202493877816,0.3025050067162428
0.032464810238016666,0.1568737098706432,0.04985887472904997,-0.019533234927531826,0.03557310480820299,-0.009357731535637764,-0.021271497095797072,0.3703448323137994
0.04064939389693996,0.1715919848552657,0.0613331801650122,-0.006582364324936876,0.08013895905897103,0.01855600481785983,0.005576667351014211,0.4122778160898762
0.02562077376219618,0.11424481042417153,0.01970404867707109,-0.015759606303117457,0.02027728790849847,-0.031665270469466045,-0.04633993656049068,0.24964064934585312
-0.013653286079018348,0.08513489939151497,0.010722584058640378,-0.060531093637294364,-0.08775414863124271,-0.1429985660909313,-0.14971844907373583,0.007561278844262123
0.05487666194681736,0.12165003809522354,0.04516787417533511,0.017544239255121274,0.10224228475740427,0.048871735630046584,0.05348752112347216,0.058862193243255784
0.0671912591492596,0.1286981983909574,0.08871195692278816,0.05653629026379886,0.12155417563942113,0.08199510378913097,0.0914001027654133,0.1592377326298109
0.04478407058501402,0.10229687376279477,0.06367819586620303,0.02643767060845993,0.06846289721750919,0.03225270481181806,0.011357919022070423,0.2560820125228276
0.012421897374887591,0.1439231915732283,0.02008564356106099,-0.03284405789959821,-0.04833233144928209,-0.09559482207279024,-0.09298730448270467,0.33149970705357445
0.06471414419231578,0.1881881002775097,0.08684799485682163,0.03430044955357875,0.1689652645281814,0.1254609784029977,0.14606944444585118,0.4918783731317224
0.07918698716599722,0.16869302706168576,0.09308182574026669,0.04695003261593807,0.2120496488244051,0.16312612869967905,0.16172999757010098,0.5354750690858421
0.05530586027672328,0.18310617222507702,0.061662545181394454,0.034961659064654316,0.1430638756352147,0.08227848065241189,0.08443921882008959,0.5238737752863615
0.017375938749683087,0.14993487647025452,0.029438610411607988,-0.0440967327671952,-0.026049216504418878,-0.040206477723810544,-0.06778094489933997,0.3944779411788295
0.06602464595836698,0.1440378683674356,0.059908532281958346,0.020467660548799976,0.1464459285378186,0.09366621121303619,0.07695856786704612,0.2660035018638608
0.08604487873626762,0.14591777853036103,0.07198670015830738,0.02227965207596362,0.20010092318984382,0.12443088357141673,0.09580525218057767,0.31805958031140535
0.04239667828050771,0.15478862297884258,0.029969183237539526,-0.012225869421550184,0.08252201249569525,0.0035432390050808213,-0.0048259342832485536,0.054781849251360745
0.0027320330679797833,0.1419161892073333,-0.009860502699154991,-0.07516639050558616,-0.0645596207491093,-0.08893448777845406,-0.13595310330719987,0.31648849606339297
0.021783817818877428,0.17986080583735475,-0.006159369120506672,-0.03026707580499978,0.046094939688285166,-0.016923910941978114,0.006848380865089473,0.3142309647228739
0.08344582511599656,0.16880365982129636,0.08312131552522492,0.032007653939481795,0.19507864213187026,0.14824542091648354,0.13740657844052412,0.37593537295064094
0.047257913654824936,0.19494345078894304,0.053564817421351385,-0.02334321172074831,0.07973646075019968,0.06091237495175584,0.020795919039941213,0.3459731784518301
0.01877082817244954,0.14078136715674155,0.02458683310895389,-0.04579350213015451,-0.03886959836381465,-0.06373488741805426,-0.10324906190775861,0.3111680587682685
0.04493471512406544,0.20085354795493326,0.051055635137437064,-0.035099629746279254,0.04895806669579864,0.017381194969209833,0.028964273227509316,0.4067759927378798
0.09883686281821105,0.17646292564218694,0.10205624177974067,0.018223156410556912,0.18903428486999402,0.17051313806916213,0.18653792244894235,0.39191202443272416
0.060281153392649126,0.1293085638532448,0.04867675078868343,-0.013086100887106655,0.09630556574827374,0.06343293297955323,0.05982683211475463,0.2004804808559062
0.027434519059660642,0.12190590437744918,0.030823677590841952,-0.039155685313693525,-0.0055151546077127495,-0.05015218051104364,-0.08699831020911819,0.026603543080204312
0.021721542994657915,0.1283113191123868,0.030794913721286316,-0.04859090167294632,0.057937575512295954,0.03143633013604716,0.03858720826206147,0.23620451915690185
0.0879022192933814,0.1921201467152083,0.07572965354300995,0.017102786962103322,0.2368429810132183,0.21351169646640794,0.21996960350331576,0.37621224294277356
0.04532076545100872,0.1951279784545822,0.06321008462851563,-0.005472448330396021,0.1457753918699863,0.10077114665956184,0.12393910528185324,0.38722325884448094
0.042658073546740394,0.17368139827486315,0.03716692188734973,-0.03867401272300347,0.07303984431529316,0.03100953945848832,0.024744540716503637,0.34372480986521337
0.04540813446634506,0.18164325333917433,0.016351709435454373,-0.04880005249016587,0.06207349017666678,0.043310198094407844,0.0361651717799576,0.4266701527943445
0.10666944780043902,0.22695323509852428,0.08708722286798536,0.05112770832857243,0.292595125181528,0.23279024481928573,0.25223317571712306,0.4861256436235355
0.07570548934749886,0.18703220203049675,0.057092211831689985,0.006806479173783173,0.1462888295962862,0.16135589672762762,0.15205125791275276,0.3744804235942657
0.0496255902553072,0.16199877064755763,0.02995715302375728,-0.02019320649350305,0.07529424239477975,0.03895492960302403,0.0408263923365544,0.15428694920512714
0.02528897061475998,0.115753073391857,7.458354701834202E-4,-0.03934143911725135,-0.0076450507749308075,-0.032267825993424266,-0.042560315617277814,0.1331204067122333
0.10883060273610139,0.1566314436229663,0.0981126478884612,0.04087394429677163,0.2619511334041098,0.24258123358493067,0.23371364780124665,0.15277327452592598
0.06662167048199887,0.18117917414480467,0.05043694188304679,0.0023815446705927473,0.13885381301831512,0.10809852043748805,0.10134920581842437,0.3123521461901925
0.04666856934649573,0.19479448950370815,0.038214235331848964,-0.04936970902642542,0.06854777435825067,0.04532891569940494,0.006877185955181914,0.38298163006197533
0.00857860592614148,0.1983544875233274,-0.0024742492268167993,-0.07006869673488825,-0.019913754289150914,-0.0272308960535464,-0.05677910001144631,0.35676917090424576
0.10376993111666931,0.2154100538125137,0.10222078510573633,0.030675476245235977,0.24423020177502827,0.2597303608282861,0.20687520706779156,0.5159166759931394
0.06926849570327341,0.15973033529216688,0.0404664597631378,-0.014081698105689405,0.11746108143241249,0.10981533615143282,0.09353428864696217,0.48944124680441237
0.026981154608155172,0.16968123075130265,0.029138360364403357,-0.04435585216921388,0.07258674997517472,0.048617490154500426,0.02885470838743788,0.46643748211442915
-0.016718575709420733,0.186832363911755,-0.04580749409316564,-0.1532337515870615,-0.14051576472898475,-0.18903274461597894,-0.2131005849885753,0.2185798399826359
0.05463360955731168,0.17431373802687106,0.01810252762403841,-0.053389969544330354,0.11170491485184963,0.13461175275335366,0.11996829240231095,0.195922164212171
0.0446315890759291,0.11926583476913136,-0.015360188883892997,-0.09447877141126154,0.040059618716619116,0.03933030897453484,-0.034201018562694266,0.16655788805194977
0.007108745325893142,0.11476483123558912,-0.02576109139669791,-0.12227096339073396,-0.04118815636280475,-0.05866327522625803,-0.09728138388256484,0.12549122186347667
-0.02580935148191715,0.1506627965785695,-0.06459937254910071,-0.15310161670194208,-0.14624146139144586,-0.17413674748430155,-0.168795632271037,0.22467286124007965
0.052145357616900395,0.17155681351810936,0.02965271783170978,-0.04334000828148861,0.07371264632439173,0.08616673617797072,0.06285055588436057,0.42161833974381746
0.025823508170668696,0.16669810247629732,-0.021082666365436514,-0.06482156710491693,-0.010654597638694419,-0.015010293424502705,-0.037038752495577865,0.39929311576800286
-0.007483999061204737,0.15509908840586722,-0.023380023268412847,-0.0977929649925002,-0.04174425891639154,-0.11914602024814591,-0.09869715965471507,0.38102736134146376
-0.023634427661898754,0.15343610157049364,-0.07331171500746278,-0.15271697795351152,-0.16706919743696175,-0.2042516550933758,-0.1864764325740196,0.31722684549960495
0.06184451154058483,0.16744446380688938,0.05070872699490417,-0.03322372983781624,0.11906079346068178,0.09885362159251798,0.10072927431933133,0.3845898379740113
0.030300783283954212,0.12480380126059086,-0.0027738325699297045,-0.05957149588752336,-0.010350788711119434,-0.01667271032904373,-0.017116096344772777,0.18566989093060104
0.01956254259535286,0.09393458106785374,-0.004790685384473109,-0.08472223431788986,-0.05243042974161525,-0.08413800174121619,-0.08145438872020115,0.10804568414758162
-0.0013209594260920263,0.04438263746494231,-0.05409438937724069,-0.10162177011403857,-0.12244874902003561,-0.15922329187220585,-0.17456011838473826,0.18502078773546343
0.08485132989490732,0.10619065333648672,0.07139628926928829,0.013384365605000156,0.17493054443845502,0.1581279853941881,0.17612900646462282,0.3638564784770045
0.07103023206403095,0.08347385323643955,0.05716663280033006,-0.011117684228847277,0.09977900507773421,0.06522278070914923,0.06472061263532218,0.3523630781110015
0.05371575227635645,0.12790126087865156,0.01634317225596474,-0.05512257886782149,0.02021754946947727,5.847534816121325E-4,-0.027450389758428242,0.4915615897764265
0.03474732903487101,0.11021016218059752,0.013108343138704515,-0.05735734806095577,-0.035458646631851234,-0.048161360962126434,-0.05090709835646007,0.46829149641198775
0.1219371159562205,0.10022825469186815,0.1128447406841776,0.0528949176140531,0.23953302405505433,0.24461949779424047,0.2335755621424787,0.5407815548057368
0.08377244351788413,0.11365523612893189,0.07407688552289587,0.046388111938174464,0.07918876428404481,0.0875568956499066,0.07367049775278768,0.41990785266897085
0.0715651299792698,0.08889728805974978,0.05819920195292777,0.008245186882749861,-0.003223036823496936,-0.008010051308632457,0.012484970199448053,0.34799929447287514
0.07936768259050923,0.10280853954143118,0.06121501062692308,0.010253968543053965,0.02381812182642385,-0.021675504179969038,-0.0022997514158525495,0.13831826855067714
0.133903562757129,0.06393656319296835,0.16408178252175232,0.0783212628250168,0.20047812080476954,0.17576478867643464,0.15754564271988278,0.0602320868812834
0.06971322187724747,0.0744799803493415,0.0795654235221007,0.012957750716397293,0.031751496138016665,0.03393017159230974,0.0030656515625218095,0.2623521400329197
0.019474449508660355,0.03352337849645018,-0.03374659712282896,-0.0644468578345418,-0.09406152421070116,-0.07973029870604001,-0.1190723763905197,0.36706668038243195
0.04396061274056662,0.05239438809127414,0.006709329477716269,-0.06029649685837056,0.004557813435242836,0.006202766622549691,-0.010616233753728596,0.41751732157979143
0.06459499218038611,0.08157745042172224,0.04365237798818809,-0.01575625821682819,0.11681999558911704,0.09456788819061848,0.035990856974569344,0.4739811098239157
0.03917687862594163,0.08547467609389366,-0.009886103665093862,-0.06205327271729098,0.0066069228142761685,-0.02113178568970287,-0.025447847120247016,0.31927539439491137
-6.419043397961899E-4,0.06715922936654611,-0.03764953911567544,-0.1044731596839454,-0.08966576033448936,-0.1398389611626542,-0.10825588320321491,0.3748345220560492
0.07680823820026536,0.09991729738507132,0.027703541464241477,-0.027952275141444827,0.12005742212680857,0.11041284413167596,0.07950793711535219,0.4604261149672738
0.042013603265043324,0.05129331061874044,0.0066701213649702495,-0.06871604409035621,-7.74742145632154E-5,0.0032634951606121676,-0.03846201773901252,0.23170263232877675
0.005668100443172376,0.06456798155076186,-0.02340749922774217,-0.11448038057631559,-0.09151952383950633,-0.10924308975179178,-0.11484425261653688,0.14386574064035226
-0.017063866791469026,0.0751979207189593,-0.06446538390681011,-0.13190822463194557,-0.1574590526294507,-0.17186743787505898,-0.15707094782283437,0.016373432304325794
0.07256369563058168,0.10882933532406062,0.043998074442389054,-0.012000564333119246,0.15113915876281073,0.15109821552404062,0.14150963391161184,0.32430633546453286
0.04428128464471028,0.09451677934219536,-0.007580187858865162,-0.08818581407720741,8.161637496483243E-4,-0.00984986786980227,-0.022201136628756918,0.37642283028910783
0.02562246293605585,0.11362156583448181,-0.015882370344761018,-0.12018740626900133,-0.02935677157353357,-0.06999407723306328,-0.058223194386765556,0.40849459981772485
0.023600399810218997,0.07471808700479379,8.324585305771875E-4,-0.0561800507918159,0.07830260097332037,0.037419098395210085,0.027005560921867316,0.36395573387607016
0.0761851305134349,0.10541237060890583,0.04389581169468157,-0.01970778656477723,0.1839209346644704,0.20741224661527796,0.18540647947281064,0.4461981278458903
0.04784747172695193,0.11332831253098492,0.0054106032572791285,-0.06526836614876019,0.11406113876145613,0.10073144292386244,0.0508157162413119,0.5432010436846425
0.029242998900091563,0.07213873728085993,-0.031241772242832325,-0.11010973177030405,-0.021713155079248474,-0.04662389914931586,-0.06526783741467121,0.23407664234508746
0.09559754717273052,0.05441787532176092,0.054947819534385295,0.006742375612300261,0.22438996841600722,0.24221921387214385,0.20914608086733116,0.3361959281894362
0.06988086709598201,0.06667835592554358,0.04626268886624749,-0.005821209061378563,0.19287408214218346,0.19704732371301836,0.193192109406077,0.1129264820394172
0.04761188028207287,0.07341360945471039,-3.134404435639615E-5,-0.038476931115112384,0.11098326864799105,0.11445816128161418,0.09626946915150815,0.2595812900933382
0.0260850785199956,0.055955799896791045,-0.0011471505846407382,-0.07945046214714051,0.06390007036798481,0.0412233277722084,0.05285054507515195,0.3941235745398407
0.1182332184794239,0.11730203715012652,0.08257269918800965,0.040882829511515534,0.33237454101688946,0.3262055415452427,0.32548918407262256,0.5085882650261991
0.05636281059085192,0.11984002312426814,0.030017741300791323,0.010764275608260127,0.19761442699487586,0.19890648105802033,0.18757685021559062,0.407084961485946
0.04787151900193733,0.0859624489164628,0.00806578810723138,-0.044907966473965916,0.1081857234304079,0.0943179426292264,0.07775571056791085,0.4190731830877706
0.06037332719412132,0.06535117799404885,0.016116039878933897,-0.02638374912893318,0.14996640318456383,0.15565832635186666,0.16557402586033576,0.4646315377979315
0.1045560649351058,0.08411644848363663,0.05542466793032781,0.01620314728961128,0.2874206864278152,0.27793906685122605,0.23796437978664012,0.42816511593636675
0.04838053089353343,0.04491502305385281,3.650821804050408E-4,-0.032160300258928076,0.13218765400078866,0.12544491321417897,0.11192230532979326,0.24982929804880816
0.01675545514324553,0.016587949018625592,-0.04408873418551869,-0.08788517347625187,0.032029575268289874,0.011932518624425986,-0.022436914298829824,0.055361327261416474
0.061871723532893635,0.036563560767543274,-0.019067657877118088,-0.04215476503148713,0.19773888079833074,0.18794697103912753,0.19754267560061486,0.1979242141976946
0.048982382405447215,0.07017785847731912,0.007797785474521007,-0.06142783553559841,0.20256790563621208,0.15994477137239357,0.17785089458408487,0.40815943576553576
0.03298602066765212,0.08147165024754267,-0.05436833223487034,-0.11493915882676953,0.07502441137529005,0.06793823871356827,0.038333269778610804,0.33731421962178
-0.03571076904274515,0.05578030281995908,-0.11286847915126201,-0.17770023349412004,-0.051590284303316275,-0.08384228385779573,-0.07202690559656952,0.3240206289883389
0.044376799797643675,0.1002180764600464,-0.03503648974122209,-0.08748807343194492,0.24314817479392062,0.2180063124820746,0.20339353857763526,0.46431007698694937
-3.250992331967212E-4,0.09203472778397936,-0.08497225042756697,-0.1439591047216264,0.08877251174577935,0.03466852415615004,0.04085017073765336,0.26761960910856153
-0.03188634666429091,0.045409828629697085,-0.139021723962237,-0.20050457665991173,-0.0056523411853216105,-0.010093624390695645,-0.052878493365032746,0.3827359575185746
-0.05305850965497455,0.01670028411394603,-0.16211797719814472,-0.23699111105453066,-0.03562862143597799,-0.04778567266212939,-0.04694512157959618,0.2814615492781121
0.019949644604679004,0.019821079329473565,-0.1152580343603807,-0.18282132091701295,0.131297471476217,0.1189064552550794,0.09966797256071931,0.18856318274032807
-0.054857708075079475,0.0052594858252182075,-0.1736375403902227,-0.25656102309147116,-0.019571260042191924,-0.04791954775536825,-0.09209412932118871,0.12382073900459944
-0.07236527250861417,3.6239305065585703E-4,-0.20685691093794356,-0.2596479045564093,-0.1065393234763615,-0.12437484775522716,-0.1512138002375069,0.10692631274877357
8.510367275727099E-4,0.015493162753449016,-0.10409990473114297,-0.16578424435468533,0.14104995862705172,0.11546088860778966,0.12694528837919644,0.355607426401816
0.020982213183119963,0.04308739689683569,-0.08416025002746222,-0.13798795228719424,0.11201391178232696,0.06920343502302273,0.048563845027777816,0.37468135297063837
-0.02121170710747111,0.06604671550585946,-0.10170651791852248,-0.16561072042323333,0.012780963938188145,-0.024963740052841993,-0.009599471495895434,0.4593144711461634
-0.020982866531143424,0.04123597276336974,-0.11139974515518344,-0.16808580086832647,-0.013652835391241985,-0.04214359889858745,-0.06257920073090613,0.40681741243044056
0.06675274856622955,0.029309251017992158,-0.01287464205812458,-0.07315939806603049,0.2361748106974734,0.2531239138630375,0.21792380411134413,0.4492705390308997
0.01970483125857509,0.031069346058576683,-0.05242739854197542,-0.11823244353372277,0.1040659013117558,0.07506009505189712,0.06568369022637995,0.3633865044607063
-0.018900438889354235,0.007117940342844756,-0.10142567747424114,-0.15109606916079227,0.01984235511321622,-0.0074133597129314305,-0.031608487805151575,0.23832463748112126
0.040025362467982134,0.012853954168974654,-0.013615527644166125,-0.08615232844655031,0.19528385295515174,0.19632187108383828,0.22469064929078714,0.2282229220293776
0.0527023240238736,0.024449303720544616,-0.015406458443646937,-0.0630629234262819,0.22432548227306282,0.23307555606779318,0.1819869884838207,0.2966517033303465
0.01909817798586478,0.034239602947764125,-0.023006159367581575,-0.09059345899698978,0.14543865267637396,0.11149147347070473,0.10310679865340219,0.31980944703016595
-0.013562562290119672,-0.0043477319408514875,-0.06529319158716654,-0.10889310902721086,0.039048927764049605,0.01990988380219675,0.02676234179539147,0.3622275009618736
0.07576177101212392,0.05534224702620742,0.009574150244778146,-0.01918796781524751,0.36257495360953207,0.3319049989721214,0.33327314635404387,0.5449184193991389
0.03637311761003939,0.07560153635794692,-0.04270456107157872,-0.08791684318461095,0.21596773650873646,0.19361165531989136,0.16916284095237094,0.47439788604693744
-0.005728988473086116,0.03462557206284625,-0.09893457587458156,-0.13919275748378074,0.09028644755992371,0.06614094854697808,0.03575195310275259,0.4824742928744145
0.0158221967819758,0.04817537990303379,-0.0866064662744951,-0.1372467396710236,0.1674419638088086,0.1417513207969306,0.11811440276607867,0.47145284339310023
0.060126683080341845,0.07211105880491457,-0.047073956539137624,-0.06645242837380849,0.2958518421308886,0.2771932293963716,0.24437504883097166,0.41595230684123635
0.009636832075371665,0.013538808533777605,-0.08673976997510782,-0.14554693582022457,0.13758755822997382,0.10450253297873052,0.08842574972427925,0.21345058808658196
-0.015621909343090275,-0.013066432940589207,-0.09297459674062204,-0.15295502108904038,0.04152279654840359,0.012399813066185386,-0.010606914549286181,0.20468487367225652
0.07608262372692201,0.0440037923267656,0.0059005401487922104,-0.03563226580945997,0.28258770002344813,0.29287466270489765,0.24776067917150754,0.34297104034835824
0.05023488282860683,0.08849485779439843,-0.02124392061012234,-0.047243008839155415,0.22016841794050626,0.21140166391311235,0.1807836985321093,0.4342824532153876
0.0022245484113052744,0.09740221213156715,-0.07069193083302937,-0.07536806758205743,0.1206719891212914,0.08642780506996477,0.10055897414923035,0.5116625908997503
-0.02526624790008755,0.03534005196411642,-0.08166931794459911,-0.14616068752230058,0.00485406222427049,-0.002133496436465765,-0.02670768234775209,0.4188195298236746
0.09853955156282462,0.09201179760782847,0.03932573262931277,-0.01669594400961283,0.33356487718691824,0.32956330456150723,0.30750605775441864,0.5514054933215603
0.045104498896537094,0.07615134986095921,-0.027983725404863352,-0.09713456310192439,0.14426464644521184,0.1645664467214403,0.1292166296179169,0.5079406453102866
0.01079334163297778,0.02342720917830668,-0.0900435564614804,-0.11731876358225057,0.059176421030109984,0.04597561378094642,0.009547749843458478,0.356000167681675
0.018793463186704745,-0.006947685855176328,-0.04899255302407672,-0.11120636793581667,0.07911405954435899,0.07617501381737321,0.07344380300501568,0.29494278551572695
0.09528028647656628,0.06645496808622553,0.03647471007797745,-0.010022943931313588,0.3000781322448858,0.30945680380149654,0.25040968215482196,0.3164734196342632
0.031930346845819774,0.0355583167934449,-0.013603979550083856,-0.10283310101627875,0.0729345351331934,0.09214554255668495,0.06166564553485347,0.250177448467392
-0.02049631712400321,0.04928898774656272,-0.07321005471204095,-0.15842987128546202,-0.06540694247620737,-0.08458277441628134,-0.13799550021880752,0.21424945766938558
0.05600416064788139,0.05853620232980061,-0.0010831039542897603,-0.03698367333490665,0.1548988360169957,0.14816870942064403,0.1276836028288957,0.39431046856764673
0.07336073571258289,0.0760224677917561,0.03566040114885913,-0.01964883125732822,0.18780146447126575,0.1598700016784188,0.15878060493646157,0.5609931995787671
0.03838787371446184,0.03876804570167029,-0.014119331183479022,-0.055551313822689935,0.012904699691055253,0.0355513442354385,-0.012043282395538507,0.4630703590242702
-0.021304427828965147,0.03576807641870178,-0.05783035178351269,-0.11005745295161572,-0.12397980594046948,-0.16225818369139355,-0.18024109201641608,0.3762352097046602
0.10453808950189133,0.0561255121253237,0.08129105601623127,0.02774095986130745,0.25528942654175574,0.23269007300047487,0.20285056498428547,0.5310551438104547
0.07963045948895159,0.06208511567009613,0.038081943236867505,-0.022965733891678525,0.067845354146301,0.06273928448645323,0.05028486710440591,0.355627637966737
0.018549048351493957,-0.020957425726994133,0.00454152627757165,-0.06726606861930251,-0.05488723271422287,-0.07879461335284949,-0.11725671716020875,0.2670353788152986
-0.01478678827434643,-0.003728649783949267,-0.038920541807809156,-0.10418607844514842,-0.14550951772843065,-0.14793185613909288,-0.21689742081755758,0.06177932580005542
0.10776150362082582,0.004928588339686596,0.12499577720879615,0.04962716251240262,0.22351606548746392,0.23275550219956528,0.18038956195890105,0.3542731230689121
0.035032652292339594,0.01948112955927815,-0.01055535611044578,-0.057045179926963535,-0.027913585632554937,-0.02280662245771648,-0.05557492319829719,0.293160186969073
-0.016291949745485465,-0.0013074071668673637,-0.04207598000737994,-0.10369115039661282,-0.12619654684516265,-0.15642764839982579,-0.20249030954775038,0.3642294625392193
0.010878399297476776,0.009180770274908268,-0.03187323299039496,-0.06651389658864504,-0.07953380589646873,-0.08973155270533531,-0.1111388819043488,0.3883579410504694
0.09191436508277444,0.053519286599731944,0.06919647329759812,0.022986490981077856,0.13585267710594037,0.14456496087221815,0.11490172820135588,0.43130667741784146
0.031576124639342895,0.037287673622357784,0.0021406458504778236,-0.04835546951402442,-0.09809019041506656,-0.11593599226765304,-0.1337185492402751,0.35195803508251833
-0.01980369233482955,0.012687701910635951,-0.0014287037824114446,-0.10151324912750398,-0.23140617944418918,-0.2511667812000873,-0.3094136594407785,0.31771174283005704
0.0742450054967427,0.03274206783579103,0.08043950720788587,0.004387046461667349,-0.0057181805423565935,0.012216021579163336,-0.02027690404061875,0.310216916109883
0.10720765100503249,-0.007971972724882134,0.09036459480818512,0.018668024457312804,0.0566303068078674,0.03907844171698534,-0.05062282254081198,0.19509002852652574
0.007816632602474047,-0.06376838763233297,-0.01571638588000629,-0.09376981858791372,-0.17703096733340207,-0.19961929679756274,-0.2594448576959021,0.14919381275242277
-0.0785008308980859,-0.08009024709860225,-0.0834989106098748,-0.16242974204647637,-0.33430148090627576,-0.36732709523014956,-0.41603674229800375,0.17618119292383044
0.10372411206632412,-0.0140315722492068,0.061765231448445646,0.024108233467495827,0.04684135379935346,0.08564940014398834,0.034821908016461026,0.5058727982839848
0.04269744744671983,-0.007713382376018985,0.017767274556056867,-0.02511719125376624,-0.07550054632940237,-0.07498311157624635,-0.11898060489385755,0.5369660238527081
-0.032830589861438664,-0.06050993330532471,-0.06510105248696943,-0.12850461481134393,-0.2534350846185638,-0.25586827364366244,-0.2774666712948546,0.39282050680080405
-0.09576784551063737,-0.049453917282771154,-0.12548418059358468,-0.193162338545186,-0.3671359798198555,-0.3775281278145402,-0.3745020078040667,0.3446863816614297
0.08216660962367267,0.006881055032312455,0.10402108746529135,0.013648224193023667,0.0628416037828745,0.08105142811040524,-0.010849459396528496,0.49995053561114666
-0.013277102096221682,-0.06455594033586479,-0.053762380162240136,-0.11904566742045866,-0.17723330570446116,-0.20927037493017803,-0.281882734831129,0.32781419297633574
-0.09533726918936809,-0.06549011327248958,-0.12356162472089663,-0.19480293473006027,-0.34394131370499703,-0.3583738001636112,-0.4107284361090116,0.15802437157908522
-0.05052316473532492,-0.09839949114841355,-0.10487853136416171,-0.15841810345747698,-0.23690516722967642,-0.24416648766203564,-0.3035967687007068,0.07411453992684489
0.05354719331508545,-0.05511399590234781,0.014222850082550337,-0.03870117667225456,0.0032056171709421988,-0.028678479832197727,-0.08021644128202807,0.19294906279096796
-0.0481727010050796,-0.09652112264395538,-0.11273037336709389,-0.1477520372278624,-0.2735405385256744,-0.29307898230395324,-0.33492644421879686,0.21507435712885023
-0.12174622675676841,-0.07809769214267925,-0.18170059185737897,-0.23322091063640493,-0.4275758198142823,-0.43528183591218284,-0.4772916953482534,0.26399733518272345
0.031357480192983345,-0.012078054865567567,0.001098647952778281,-0.0729197549803772,-0.05323772074159922,-0.016044701610691547,-0.11195614033456402,0.27995470245389154
0.007417544581035773,-0.029795168868455624,-0.04233945898515368,-0.08132468400345258,-0.1159692637196149,-0.1507309480149956,-0.2168561420655526,0.34290152616301217
-0.08501705334614082,-0.04428798118528873,-0.147121555177623,-0.2029770400363154,-0.31337659370814364,-0.37993890595749436,-0.4183329612633102,0.24099588494412127
-0.14653215772929776,-0.09150457137429494,-0.22602198007762847,-0.3098988380511745,-0.461240740570035,-0.4951513115971263,-0.5552345755084073,0.1456764459346921
0.04859776045935829,-0.05264538168130438,-0.006871833791129045,-0.07905403936575547,0.02751000271874736,-0.0013416372631462892,-0.04966151206978618,0.2658038496573589
-0.07664899506541868,-0.13224530837034593,-0.15581282541734953,-0.20581594558513083,-0.2851156873888812,-0.3039757210510229,-0.3615727335296177,0.023730637364839213
-0.1517779430091123,-0.14526939688066864,-0.23332153150246837,-0.30891347974314803,-0.425341132993635,-0.45913278493280657,-0.508271506372969,-0.1359732012383331
-0.16833636902068888,-0.15561801180924795,-0.2621568060066027,-0.3282489242732182,-0.46758510292695576,-0.4920492969269567,-0.5379367241443992,0.07324369845250697
0.017654725934953708,-0.07876052784730574,-0.08156316043228998,-0.13367467709667627,-0.0476871541112088,-0.0852642027357933,-0.1269887230088885,0.31149245900578254
-0.1517435425277939,-0.08566605448857842,-0.2344119678960795,-0.3219205787023347,-0.4079932634353828,-0.4435533306805699,-0.4860838258337398,0.24872547035516984
-0.1728382381945744,-0.13249399808511933,-0.2884912631849448,-0.37552742140571577,-0.5474351371499575,-0.5468250981925483,-0.5884195299601968,0.1255519192153351
-0.11882447336383486,-0.1120367730190581,-0.20810481590638646,-0.29548473404708264,-0.34957923374468153,-0.3483408968299203,-0.39856325291833095,0.24027773768020957
-0.07851963245601871,-0.07291607735609182,-0.18609248139457152,-0.26398470730687085,-0.24438710114902074,-0.26450026782572283,-0.33591421388723364,0.3082115021747473
-0.1922559894151179,-0.15525194688458416,-0.2871675950147118,-0.3870687198064159,-0.5167731493380059,-0.5395440227935474,-0.5803447173080928,0.020779992224351673
-0.24286171945614615,-0.20118527102785555,-0.3705448822468987,-0.4529457695703491,-0.6564561243148074,-0.6996389240182392,-0.7033049646186528,0.010852927644047161
-0.037795554456193176,-0.12254605988875715,-0.12985069178612502,-0.22447371802245125,-0.16704205371343026,-0.1900934887813217,-0.25397541416115,0.13144241492902628
-0.16638753225325514,-0.16004276091825084,-0.27275688850871566,-0.336469831423835,-0.45108805850421324,-0.46150874963492206,-0.5471059491659798,-0.03504432834336879
-0.2141242691253116,-0.15602593108012758,-0.3263309260296272,-0.42385059183760654,-0.5912534870550232,-0.6470371564505855,-0.6705533893471649,0.06518932334901445
-0.23473438632985832,-0.12841352619205654,-0.34859408615285203,-0.40834381319746216,-0.5918565747886656,-0.6397332993637964,-0.6703591836046293,0.14915203186885
0.0037166269974934496,-0.05611427821124407,-0.08452794132551442,-0.18508969184436413,-0.1083126017441088,-0.1470865191862769,-0.1741280747618131,0.39672354279458316
-0.17143660946706427,-0.14009937081445079,-0.24840296230965953,-0.35078399684352485,-0.5052158466507717,-0.5095459998172422,-0.5664655815681578,0.2786919173127413
-0.19797698358781773,-0.1258756760985085,-0.30618269884671506,-0.3820345655719397,-0.6152284692335128,-0.6419582751470849,-0.702528049178695,0.026391705329121495
-0.09952747332208653,-0.10680270449504287,-0.20498700382872134,-0.29010107732804447,-0.40864908512200654,-0.4357187513371451,-0.45952325592414744,0.1609498654686817
-0.019844339680450365,-0.09568046612021465,-0.08552340954264659,-0.2007707581854165,-0.19118824376979798,-0.241446150102324,-0.2730831530238372,0.08742779984530075
-0.15727012339150578,-0.1468068107678234,-0.2728465159237308,-0.365717631668371,-0.5603172802434846,-0.5879403950473435,-0.638033344886649,-0.0963902369303539
-0.2348606687679899,-0.1849939494080767,-0.3157838298672547,-0.4432630144694414,-0.6731807661312342,-0.7201295519940745,-0.7554163693252662,-0.09277450536234519
-0.04095039298594418,-0.0846916831387602,-0.15486872491458134,-0.2269483249413879,-0.2701714079885189,-0.2979195130723782,-0.3346129924888912,0.17461271664236824
-0.08499454603132427,-0.07818226997462699,-0.16676342513876646,-0.24903436616065489,-0.31781511221732,-0.3499952721834233,-0.42165657876632184,0.1895859145065485
-0.18201641903691523,-0.1433048302117053,-0.2929962026820423,-0.38782565142117037,-0.5865179158980602,-0.6197600623557262,-0.6629100517780254,0.16953690859981346
-0.2538640735572193,-0.17632386520275678,-0.3525440924555357,-0.4527365335759168,-0.6964092883449294,-0.780714259137218,-0.7960952735713491,0.07188449894911514
-0.017296519684250583,-0.03140615848956063,-0.10460025856768006,-0.17888564453508848,-0.23891646448456488,-0.24664282370967355,-0.2772078777872732,0.22613386458161439
-0.176891606202456,-0.039276705840728954,-0.25406056673652916,-0.3779002971973039,-0.5288534335949081,-0.5839128329695885,-0.5966611083185644,0.09467395680127733
-0.2710352145454763,-0.03633551764188242,-0.365851437275834,-0.4754514916138024,-0.7760212320462135,-0.793833025560965,-0.8445267448976498,-0.10163252939827225
-0.34384709659220336,-0.12268635400115899,-0.4950265264225744,-0.60771349252725,-0.8662576065949072,-0.8717977278782616,-0.9317608229942751,-0.313185643512499
-0.09543491630791649,-0.04829705442673471,-0.21489076430003368,-0.32864876129446224,-0.38139261078616377,-0.4200328682491739,-0.44072233154339113,-0.2158064005346799
-0.3291027653415865,-0.07988183941774216,-0.4553697555855706,-0.5655632682098841,-0.7934342278590053,-0.8098203518799607,-0.846322522408366,-0.26926789739060597
-0.3787145691565556,-0.10629266925679243,-0.4981079991330859,-0.614926827670135,-0.9467353378412361,-1.0048611338837459,-1.004743675039797,-0.19801474403985145
-0.3022612871259287,-0.10010619175386126,-0.44333545002931135,-0.5425593684123099,-0.8210322847019326,-0.8561882479552684,-0.8578267128117806,-0.08013839028280831
-0.12900079540034448,-0.030214116724187057,-0.2401266969028291,-0.32940911256613525,-0.43927391011257555,-0.4552448485160629,-0.49274085530939715,0.2602084723384267
-0.384539866179924,-0.12766347548420032,-0.5168129572492446,-0.6055432523939317,-0.8496496711062804,-0.8697815432150464,-0.9109874388842923,0.11246225560933465
-0.43270574686579777,-0.15159793187581447,-0.5739187148259093,-0.6706045545225018,-0.9908804408604062,-1.0626482441947023,-1.0547198503666728,0.05661897432072477
-0.2080590114634034,-0.10645685183924994,-0.29841653980944194,-0.3934139948883253,-0.5740304895393602,-0.6189938443776646,-0.649062218729922,0.20147049951982754
-0.2012134279929921,-0.10093212391614503,-0.31025534844254615,-0.3976626203541018,-0.5474856822833749,-0.60417819674565,-0.6434662816837162,2.915361083700163E-4
-0.3911453957569767,-0.18423286880811302,-0.5491939773501884,-0.6183252708161595,-0.8859473172930559,-0.8963740628657597,-0.9650745386715781,-0.25648643904866053
-0.6592992078682857,-0.2269388142752353,-0.8798098087273454,-0.9595664174971108,-0.9820958024377164,-1.024702249003086,-1.0186234616380112,-0.28676680122696885
-0.35850733937380674,0.008866347140249198,-0.5767957893943287,-0.5606528539055227,-0.3861133721519052,-0.34360552647483716,-0.27586862455768024,-0.051599009809938895
-0.5969033861954117,-0.027346922961779763,-0.8332832083047896,-0.8371803417063652,-0.5735769866315552,-0.5666548945521995,-0.4920224727959219,0.19997177039620984
-0.6937866348661741,-0.04098869625522833,-0.9659367559885828,-0.9601436595759203,-0.7115307877234546,-0.7259005010199303,-0.6184332856054882,0.24110563905997728
-0.676966799049484,0.0013217343870363107,-0.9592897394887971,-0.956150030774527,-0.573476796381555,-0.5716784104126006,-0.4361402417344264,0.3082587805179438
-0.3868119627343329,0.1307303628888633,-0.6347188637650383,-0.5924280377267397,-0.014131237049730794,0.054370059096476187,0.15722942367775417,0.5078502585068195
-0.6944498411208739,0.005321273279977501,-1.0044207681341084,-0.981151320839604,-0.1062629876046573,-0.06000556259630739,0.07774320006881302,0.5063282252011508
-0.7853995368364368,-0.035611891293330755,-1.1158587329858674,-1.0950967683768862,-0.023139082901033503,0.024011574259734568,0.1410626229811216,0.3812686522080876
-0.6424703297167417,0.023890921079257887,-0.9670967641924202,-0.9524283007439855,0.1181356796658473,0.2002405563970271,0.28994484442179097,0.30631211223567506
-0.5618031157934495,0.04689277818275722,-0.8661231036775733,-0.8427796904660751,0.10033904546545624,0.1228989406881564,0.21511040446655982,0.3202762151637004
-0.8065765876833897,-0.02911562072060786,-1.1532227571387403,-1.164331845199671,-0.5846300127359448,-0.593742307079244,-0.49572306092799634,0.12697536872654536
-0.8430367532764683,-0.0789077843879431,-1.1732145263657907,-1.20862650730857,-0.4179549825604733,-0.41786826954440237,-0.33456603515573524,0.30704392548484527
-0.5420005884667094,0.09007755758889086,-0.819431328132026,-0.8345730365230078,0.23512965811724423,0.19926139393182768,0.26013881108410314,0.412846947865781
-0.6802487109207711,-0.007708609651162379,-0.9742291486359556,-1.0407248409169125,-0.3037191424984489,-0.30658158629478716,-0.22406774384435274,0.34248115455558376
-0.7904719363292328,-0.04137384880989725,-1.0583632000015522,-1.1301471485803811,-0.179281614509359,-0.17646512286562102,-0.11966313938358841,0.3932855312362424
-0.7242413062756469,-0.021496018849187726,-1.005022947475609,-1.0689838394890314,0.16278683977734193,0.1648903659526153,0.1444477959062146,0.38376003711897766
-0.3358156905218608,0.06215610363882229,-0.5408205473362152,-0.6182585321880831,0.11392802131629615,0.09156496914200114,0.08437777139833331,0.4525296316996986
-0.43950648592668556,-0.04462314221637037,-0.6358937626464325,-0.7126195940134681,-0.5626378552917781,-0.6008993264866401,-0.5966059569035869,0.09782178446836065
-0.4570747902903236,-0.09133953683864285,-0.6497721763663084,-0.7295474098628895,-0.8876251472556613,-0.9277004662933803,-0.9685388639257345,-0.1550822784664874
-0.29684399848673104,-0.08401031232617137,-0.4644839947381626,-0.5603525680817167,-0.7092094425023494,-0.7042826445677172,-0.7130924529110204,-0.0631240752058638
-0.14771558396159817,-0.030523602809147038,-0.3093986004365603,-0.37628880290503575,-0.33080269251770866,-0.37509973085072723,-0.408356412382441,0.1879899373050702
-0.34106400678042165,-0.049655074951259565,-0.4615324779844735,-0.5436563786012311,-0.735042820105965,-0.7342619732406058,-0.762318448326786,0.05194743016659814
-0.3633037006778592,-0.054457333994075374,-0.4857367081973443,-0.5936050493687124,-0.8555763037788838,-0.8659985484281344,-0.8977258915231806,0.21661050250984615
-0.12643967257351438,0.02334486504489139,-0.2200270032794431,-0.32346094904131645,-0.314198635856047,-0.33163757080587,-0.35659985059578436,0.40549277799640904
-0.22782398710052487,-0.028884799170952297,-0.30118866191273064,-0.3832139765650506,-0.48969655155465247,-0.48930893880567505,-0.5034940439032167,0.26736153434663334
-0.3197115452941584,-0.06331702294265873,-0.3951010849600474,-0.4911341735307746,-0.7160015275431822,-0.7289836862206784,-0.7188038512903842,0.18636848644655785
-0.3348673725030247,-0.0586104219959602,-0.410937705288427,-0.4883311336942369,-0.7551930876822345,-0.747738884847869,-0.773135308567186,0.16522781036162942
-0.10105479666132082,0.010197321035968543,-0.14583827331861485,-0.21575536170745535,-0.19180346325654543,-0.21991753310526385,-0.22293997675469296,0.2265638966909608
-0.2851132432856763,-0.053149776125620635,-0.3355773538128815,-0.44745325567197985,-0.613688925012759,-0.5994988580798655,-0.6276418633757926,-0.09164251281970834
-0.33081031684599094,-0.03915339489979833,-0.38840658574075926,-0.47043586696242634,-0.7366080440432385,-0.7356539012183771,-0.7814843255150646,-0.06452022460439677
-0.2493600740265453,-0.03505677103161117,-0.29864969707418965,-0.39170887790593073,-0.5933173781905796,-0.5521131212299625,-0.561815803067859,0.16079015461938745
-0.14075095273377847,0.0457871609133545,-0.17813232452802058,-0.2492490692110551,-0.26426635807362736,-0.2938531144239209,-0.28732912722595916,0.40751948239608354
-0.3155353263507364,-0.021159329374464353,-0.35601136182899923,-0.45146104436352785,-0.6238019688836557,-0.632305347796339,-0.6545703602907444,0.3031940429091633
-0.3454005117082169,-0.046655026873652056,-0.39017855562207204,-0.48379743809279663,-0.6999572427581306,-0.7208415164916621,-0.7261449854371831,0.2456622702762562
-0.14767649097392554,0.03703734207484424,-0.18754321745618321,-0.29906721849122536,-0.3055110868149945,-0.28100459988775683,-0.2680223752837526,0.40405151335911976
-0.2043442181324459,0.024903346778616248,-0.2584749504587524,-0.3679549490859532,-0.40064849424072,-0.36073243864556725,-0.37090703089715427,0.3347961329255304
-0.30915680832125697,-0.019620686467505866,-0.37920345169361536,-0.46435112554136626,-0.5894511428881208,-0.5694985750231416,-0.5849537042280575,0.2113470682318308
-0.31310671878541757,-0.08046118851632451,-0.38170956058907923,-0.4845199284847561,-0.6343248674537043,-0.6279991242610772,-0.6090454207902911,-0.006444565211908282
-0.05294796482599697,-0.02648258989896843,-0.10016330343151442,-0.17998346911346919,-0.10321978854220988,-0.09170592567484098,-0.08908747261483112,0.20655694168321356
-0.22297460055683438,0.00399205209507833,-0.2667459222084323,-0.3362272424104742,-0.3972415852630868,-0.3841167967746165,-0.39324330004245533,0.188444324408595
-0.2532628546975478,-0.015844555653452275,-0.3072410814656694,-0.404024142790097,-0.49575818320032355,-0.49478694247343885,-0.4928953977783469,0.2971646457370534
-0.2024046346029411,0.015695411097035428,-0.25316419255110706,-0.31298351704881444,-0.38015858651613876,-0.3564731743218841,-0.33610426590767184,0.3843171459472271
-0.07306434755792393,0.061741292379918516,-0.10003314809305784,-0.172882485673335,-0.08829710960791554,-0.07851236918512548,-0.06493914589098006,0.5284615312935581
-0.19956190230311507,-0.020059587275234325,-0.24833342101197758,-0.32406270431888795,-0.3991257733939792,-0.36260952040663147,-0.37697258634187775,0.4408502167139407
-0.24716648404806427,-0.00815357335980113,-0.3038188862514286,-0.3801433159650398,-0.4943194853438868,-0.49307865349626756,-0.48965488906707383,0.36489117270029087
-0.11095510260022895,-0.0015056770769704825,-0.15426663200711588,-0.22951306995405454,-0.2229053740868146,-0.15090569540934848,-0.1867059224235874,0.32740105038126177
-0.10581153613067726,0.032607286119817724,-0.15835405818299278,-0.24232513236901915,-0.20508623519650032,-0.16516832243258242,-0.20302806281296723,0.21840342916581126
-0.1789058001704931,-0.03049040437717214,-0.2537131537325541,-0.32258009476826544,-0.38983324004293274,-0.3893740051765381,-0.3669056907048094,0.061000227560900455
-0.2172397532104423,-0.03269553964594127,-0.295245285792032,-0.3653459498389357,-0.4842094023100807,-0.4726987583726851,-0.4864703724810425,0.10790227059337248
-0.021060262487125413,0.05746774733152488,-0.056430403015516856,-0.10225366314960056,0.014953184718033363,0.0033114468744800674,0.014373890257011968,0.32919630218361356
-0.11729418128253563,0.08266403282893897,-0.15708476733765847,-0.20922234962593234,-0.17914072279288057,-0.1815557964783171,-0.16820328008919652,0.43160149140505677
-0.14593862029547489,0.053167841467237964,-0.19956128598919337,-0.26479692833710344,-0.2815707555541284,-0.28821677153447967,-0.2947666869806749,0.4399974588023847
-0.15139231697521954,0.06843882254446934,-0.2033307163099125,-0.27868101723910443,-0.33324293151853274,-0.33204578271613994,-0.32908391067059445,0.29776537616054544
0.035850435008588005,0.13311539519906226,-0.016370012358467523,-0.04712947719614738,0.10673122581363739,0.09689318096855089,0.09324673993601884,0.4694426389050135
-0.09243037345316578,0.06162279159863912,-0.1412280792761993,-0.17457513041299016,-0.15377139262518663,-0.18088487210143198,-0.1799854071306389,0.4544041841809993
-0.1299810481901742,0.002867099797941669,-0.17349641526989076,-0.2545461268357873,-0.28363964593110064,-0.29134020555446555,-0.2923040603216215,0.23703997248127695
-0.07973494870203165,0.023694731338684438,-0.1313610985430061,-0.17701635640951155,-0.17989178691014482,-0.14122758431060461,-0.16044356188518,0.2733705481520038
0.015297293976271262,0.03346411692860937,-0.015939539800252533,-0.061621588806818534,0.050632808897576015,0.07408178142819781,0.04997115421303425,0.19559716194752558
-0.08215468759332359,0.03737043924017516,-0.12402915587498112,-0.1656306936148528,-0.1554929491111518,-0.1351204165112324,-0.16994367821405126,0.21888257881248344
-0.12783325296412418,0.016199123969297596,-0.1557190448377384,-0.21651247175652452,-0.2512164825524789,-0.2271217656132132,-0.23630480768265189,0.3130359548272724
-0.005569821057645294,0.07534901637056658,-0.036219927804290314,-0.07973528450735318,0.01507612929081082,0.050486092375506095,0.04220522781304602,0.5400869604877321
-0.013612249238681706,0.08718807349781126,-0.023307201144490836,-0.0839133185969467,0.054760860899240676,0.05151041765266767,0.06531181089839572,0.5009266368297319
-0.0669031303038333,0.07463254224858659,-0.09324278049200321,-0.1552568965209317,-0.10473847175194036,-0.09898261825218327,-0.09118687271684704,0.5231284552047941
-0.12519174079093356,0.07587667730956923,-0.16847492387365431,-0.23000878410769293,-0.2347313799321097,-0.22274929016375838,-0.23430885902170306,0.38827374848133483
0.007899194635892545,0.06615351007918031,-0.026969814903993944,-0.07572538036517504,0.10858489365159416,0.11890107018293601,0.11808804713694213,0.5026083085468528
-0.019154824933935652,0.06553869182836806,-0.03842734320805802,-0.1171205238122179,-0.0223418663779062,0.007183961727737623,-0.032700997181155086,0.3038022108952865
-0.0730808498839127,0.02864032836503619,-0.10255955612123215,-0.16114469293261513,-0.08732376228064026,-0.13491448645568674,-0.11752622911200357,0.10503006146285447
-0.10764838976326675,-0.006650558595217654,-0.15418213551319745,-0.22037353747174626,-0.22162077472904773,-0.21263076635777872,-0.2030352860397262,0.19534221415131658
0.04891333791263382,0.09154849804040055,0.016669297387396004,-0.029592431468743047,0.18808521268347794,0.18446993400140196,0.21603216547271076,0.45757398943876604
-0.03715706757444412,0.039321428725660246,-0.09973417732593344,-0.1235521221937382,-0.016626489887970358,-0.020778552617254573,0.004160274092811181,0.4907901919642699
-0.0847650872722869,0.07159840338900247,-0.11619971426067541,-0.18693066482451803,-0.09485183088430155,-0.04513824862804709,-0.07307002742181498,0.4606239046839673
-0.10758526751315772,0.09091656671354356,-0.15864866968540603,-0.2034102030272944,-0.1328737665577378,-0.11694084740622301,-0.10090519331828701,0.41522179820455796
0.03785076529898376,0.11245411978745737,-0.009584361841285416,-0.0423026679382448,0.24448185587672244,0.2590169141223353,0.26111464372637405,0.6855418875093493
-0.05276452513686672,0.07742746436596692,-0.10203219478366501,-0.12849691118026807,0.030337870950620155,0.012986104396424697,0.03719071554491661,0.47278827133338475
-0.07425819781962394,0.027717767100975205,-0.16267936676016934,-0.2031225074205707,-0.08184249906728185,-0.06802669193381602,-0.055382467107671175,0.4172295719136982
-0.09356939533010818,0.049089516426482904,-0.16950221135418742,-0.22516339199650243,-0.09283023884886447,-0.07165281530058004,-0.08297745992220637,0.19131456847784972
0.026324660189593424,0.04795835418901409,-0.03336622182548152,-0.07506539958837241,0.21754269938372645,0.2419832133554496,0.22936188228174517,0.2810524645445044
-0.06695577367185053,0.053987325636026484,-0.12224654610110712,-0.18927868040203516,0.00998707168676334,0.02198412855207975,0.02008588863509006,0.31747964298912784
-0.09616886607765904,0.06401097820751017,-0.17673780844128267,-0.21782695255316986,-0.08530328975106276,-0.08725096251129491,-0.03879080610288399,0.3654411501226088
-0.10753019012619779,0.07575108465518074,-0.1991389204327705,-0.24264240013860608,-0.0967273462543381,-0.08015646123619635,-0.056778748259513755,0.5282957381408921
0.0017140838976508477,0.10177287102136581,-0.06872455313238868,-0.1319861694254407,0.22392089719839828,0.2419559775225692,0.23027582614784797,0.60545555527736
-0.06555561368088414,0.06552397068473353,-0.16423761260158756,-0.21801587767863898,0.013745596310191538,0.015136910721387717,0.050007156283130336,0.4805745322557403
-0.11063779511378037,0.07742575306366536,-0.19522882524798438,-0.23320650863607606,-0.07240709938355006,-0.0780266745855013,-0.05871349791688584,0.5479285618039011
-0.10797615964602313,0.034512776116985,-0.22183184468153638,-0.30989690416829274,-0.10743710844783579,-0.1061488315718855,-0.09366675375077076,0.3485386904137673
-0.014530178034675087,0.05918524822742896,-0.0961636056097754,-0.18281993724334483,0.1660330862656672,0.16365678223883354,0.1949743216173603,0.37862551472272443
-0.09103114601187352,0.05348484707285664,-0.15253017002364935,-0.24293580548871221,-0.03447976136777478,-0.024500901487358367,-0.05185610415967491,0.10004212674346628
-0.11132364479103563,0.03848131608718364,-0.20475431625263849,-0.2922441722535821,-0.08294336520857497,-0.09205426368691967,-0.0696338976389219,0.12513618384268727
-0.1161357976672317,0.04554581086136336,-0.22405736078645833,-0.2827594727026654,-0.0893718435756186,-0.07231142454429611,-0.05086664771933726,0.3062452491836199
-0.017138684075584942,0.08394077169996833,-0.11036863041759745,-0.16604190165652105,0.1765310806910706,0.17391906594730583,0.1874087595347247,0.5399923268886184
-0.08903700498354919,0.061307063151802066,-0.16657236775520343,-0.2531816176862463,-0.011994866413697916,0.010063528616119963,-0.01497537681703194,0.4592571963590263
-0.15341390479245184,0.07492050674175998,-0.23199803529594795,-0.29215955518025266,-0.10006537067009065,-0.11178977777110427,-0.07695107806373908,0.4878069565266262
-0.12569103765859158,0.12807884594543945,-0.2137903737964709,-0.274568067243678,-0.08497548127851702,-0.09033344606016618,-0.086124755084764,0.40608371940444143
-0.025427247517291363,0.10977054405115441,-0.09842977796390248,-0.18142694516933558,0.22237497756279195,0.2242344049719674,0.1850791283831299,0.5472426805204805
-0.08531865062649577,0.06279499347521458,-0.15417931987067862,-0.24448976095408811,0.004792902950750383,0.004927020738187932,0.021863462767436753,0.37541461645909957
-0.12650472092257392,0.03454636319178672,-0.21173872731038915,-0.2808239552700249,-0.10483571413752657,-0.0934971749589519,-0.11436003877890247,0.19586591101196044
-0.1240304940693968,0.013119565299605257,-0.2106508835207627,-0.2967847277322583,-0.10504654935682137,-0.12395196670677647,-0.0945074643213741,0.21006492607951976
-0.01353102332690062,0.10804474195663064,-0.0753430177222229,-0.15128827699268954,0.18479702217061522,0.23327957331611282,0.2128574657020766,0.32615135972333376
-0.0728759033324222,0.0844611586688408,-0.1647134668845775,-0.21495201823203025,0.0019116861344297548,0.017817861172144747,0.016722885506403523,0.4313390995092726
-0.12006238569960173,0.05861370634256452,-0.19377578545236554,-0.2606463511525499,-0.054344423653147525,-0.06666389537506995,-0.08643859109113161,0.4807272821838966
-0.13379007439157292,0.07044862009524414,-0.23494804593539817,-0.2907617151866809,-0.12012425861981342,-0.11883691009939112,-0.12238771030756763,0.4817300114327366
-6.567144328127605E-4,0.12468714788507262,-0.05947891227518726,-0.1632415084057603,0.21818641445798273,0.2300046495901466,0.20573288953419716,0.5541171398357343
-0.08477086427279812,0.1221286100159735,-0.15031506807312875,-0.22260197352512662,0.0029594460372560777,0.0012276492603253975,-0.010275631086532983,0.524992969085567
-0.09996200182381228,0.07023847531300825,-0.1772453502719294,-0.27070572934098164,-0.08386648342814584,-0.07631031328850886,-0.10971180971735384,0.500920882419582
-0.14806650860264936,-0.011661922907498484,-0.22908844479598423,-0.3208119889444323,-0.1485488276957966,-0.17231230880132736,-0.15766420441041673,0.25111372107234503
0.00487182540701693,0.050159257307864594,-0.08127899070323089,-0.15042457894027292,0.16019759063750544,0.1958472741471694,0.13887238291941587,0.24067389543125553
-0.08009439456241454,0.029115403930302625,-0.15654441257869012,-0.21452203569469896,-0.017416233237303277,-0.027330970895071895,-0.03167562887202792,0.19537862559480046
-0.12587550046681256,0.05177725810356926,-0.189865712271627,-0.2784280761675685,-0.07906506237907968,-0.08831467370977406,-0.11559727482025352,0.3496240391924644
-0.13129873587978028,0.08437864534410205,-0.22466169837830555,-0.29466024677197555,-0.11324620670775284,-0.10295734068631154,-0.1237087440480105,0.5001292631076312
0.008809139402099653,0.09437495482398559,-0.07661383730343072,-0.11916221541255607,0.19942021864436305,0.22299055239992555,0.17629403133476024,0.5672011884625325
-0.08251641040919566,0.06655922400084713,-0.17336180885707342,-0.22113117926168577,0.005298636969194762,0.0071428855623242304,-9.636423557679297E-4,0.49460445183756985
-0.11350918674509297,0.0774313363423105,-0.1994488180618807,-0.26699252926045597,-0.09131556433367093,-0.06439481923681065,-0.09072410586185134,0.5372331016283323
-0.14835244111182386,0.1003412037198719,-0.24138140134468344,-0.2942402530808361,-0.1669325332437866,-0.13298696722288106,-0.17358103590082308,0.4910185342426484
-0.0028891529698689272,0.10181189604788712,-0.08286547904156638,-0.11889613499985566,0.1991092097124344,0.24984750970597713,0.243539001202106,0.530323738844287
-0.08501248756059968,0.035717888436888556,-0.17603138057863107,-0.2323908359756305,0.00500461711517175,-0.003926009835062527,-0.03009318849755678,0.2694869761476954
-0.12416308137320106,0.007842309107739087,-0.20690226901971714,-0.2718346107822826,-0.08223942939362305,-0.08107902561212471,-0.10126763743999014,0.15320176477808373
-0.15895155664892233,0.0035206503724350413,-0.26953486372391117,-0.36351539994956455,-0.20677396595931202,-0.19379896215884967,-0.1915403188916701,0.29686783424928015
-0.010676206395287977,0.1134191908922216,-0.08024886685741092,-0.15640258538662494,0.21091864685384137,0.21301555568053185,0.22153882814151957,0.4297513008740208
-0.08403499834815191,0.10901818326477589,-0.14612626486659733,-0.23573170833510687,0.00991534386989152,0.02019904839428774,0.015056753082630714,0.4954045048292254
-0.10071834405850723,0.06885049580182204,-0.21397725153459998,-0.28234445319104007,-0.06142502487883231,-0.07602367622487796,-0.07703642019390536,0.5062111217302362
-0.17104513088692588,0.01342839931303505,-0.3005969999737481,-0.3782218733485029,-0.2669543117009773,-0.28673335571198055,-0.2772257076737715,0.4185855338163019
-0.024025066065474998,0.09954339530570111,-0.12319500164432745,-0.18870008780607028,0.15309572693706724,0.16280494780281118,0.14589302096454454,0.6562568452046504
-0.06624444127058107,0.10176560554454339,-0.15836352362590517,-0.264217167078755,0.014623208677611368,0.012558630990805383,-0.008655985976482872,0.4157804602849973
-0.1274957983139961,0.0015902887972410185,-0.22119771966228138,-0.3092933878007364,-0.1080262260239217,-0.10033660998551579,-0.13161148042132598,0.2832111959278868
-0.18684810748900915,0.003244187693082129,-0.2936287291827316,-0.3957917883060903,-0.30532721428765935,-0.31909337360452433,-0.33729541022427495,0.12614793784778464
-0.07739324409089825,0.02806376979922537,-0.18266658942370753,-0.2550786828131779,-0.005696449180464719,0.007051524988508091,0.015068555079961465,0.17903306712234557
-0.06484603498499661,0.060615480207095035,-0.1738873332046783,-0.2515266642824614,-0.02691758407674446,-0.013714543293738682,-0.04669755186939035,0.4238101598220987
-0.1334869925203157,0.06356317937131589,-0.22447045129476942,-0.32069307043619144,-0.11084219092824116,-0.10508717895949238,-0.087502620892451,0.3418232769730597
-0.19256702794259073,0.030128396579579053,-0.3066940645742552,-0.3760000489768693,-0.2495652949434583,-0.23690001454438703,-0.29181959386651035,0.444413673511997
-0.0680601405010537,0.0711715855973458,-0.16373551874397754,-0.25573524895375366,-7.503924394006781E-4,0.03551328842493965,0.043496407107851756,0.3958271004378151
-0.06381182580157588,0.1389885160986863,-0.15885636016374244,-0.23764887377363822,0.026709258897003672,0.02718847849067127,0.016357654280463957,0.570710506624166
-0.12573723246094823,0.10299689317193583,-0.22410410266452016,-0.31896891297731145,-0.11217668244410808,-0.12327417169097735,-0.11354674749772425,0.3864951271000405
-0.19516608260465107,0.01995367178896129,-0.28146523000559365,-0.3928294234295361,-0.2837232793423079,-0.28297746499403187,-0.26265886848102615,0.25892104907211533
-0.10126567842272141,0.07003700146654171,-0.17950236595364313,-0.26961437239146624,-0.04695111038281488,-0.02161877035255294,-0.05292453128541301,0.21654810866699714
-0.04852579618620255,0.06011249972938493,-0.1372946001251859,-0.24286601061987562,0.034570934431798664,0.05765068219657135,0.014806972209673086,0.19253462811709648
-0.11203558603073979,0.04112553890559331,-0.20997732312088266,-0.32002247675518225,-0.14035839396342023,-0.11657178189209472,-0.13622633673847612,0.24365397521603763
-0.1715679344668019,0.0735706470728073,-0.27180583249414075,-0.3698766242249083,-0.281887182416735,-0.24056086209631744,-0.2740791271667361,0.31063849135126403
-0.09708161046604064,0.06679366553902724,-0.19601427816034495,-0.2854806291023851,-0.09171815888307125,-0.08686658151909164,-0.07875509322680106,0.4969478331844419
-0.04679120056332812,0.09365768428811141,-0.11842886987305391,-0.214664622227016,0.08477035747621704,0.06848644323566005,0.07910616364578334,0.5711374201324431
-0.12667297698125238,0.10405021331226383,-0.21733771734775092,-0.2917635885920112,-0.13064180684669552,-0.12281377663725104,-0.14580387761706565,0.5421628480982321
-0.17181503079862476,0.08072272135568528,-0.2706606184466471,-0.34123337227894657,-0.2523855652414441,-0.22889998771683906,-0.273415617645446,0.41264189660741624
-0.13564066094078003,0.0391575616473572,-0.24914952924893313,-0.34523375003970785,-0.17431383991312743,-0.14658653678596215,-0.1412248615223729,0.3736406804301992
-0.058886322412055075,0.10148265783473989,-0.16843330350624985,-0.26593821899396763,0.016981093824810056,0.08470749060984177,0.06517540113878621,0.27771868544253286
-0.13330348326781258,0.002765946995404167,-0.26301741936482637,-0.3776355980257283,-0.17080519606962508,-0.15166607965356027,-0.17341812483708188,0.042374946319878606
-0.18117503843645882,0.04561941244158291,-0.32173971711969757,-0.42420485082256143,-0.2401205570170999,-0.25352155009530486,-0.257892927374435,0.14214459172150984
-0.16011440342582242,0.014936784401306635,-0.2993813623078804,-0.3724648072325425,-0.19230261224800207,-0.15372118260201348,-0.1837200800702395,0.21852823499857563
-0.03858158742256955,0.1204448622036505,-0.13824970733651515,-0.2379968518514734,0.053011939838586104,0.11795846765006711,0.09862766327552741,0.536236324567702
-0.12809313639664563,0.10351458894649501,-0.23598404963717712,-0.3383985559015462,-0.15367120516976374,-0.11622861228019901,-0.1080886388288943,0.4852176411714022
-0.16965286833554755,0.06785829865178764,-0.28761974248183775,-0.38411812599721695,-0.23688751333923486,-0.2133364212879919,-0.2534941835292194,0.34721774725660204
-0.1304041403602056,0.06325401656894977,-0.25651509772022757,-0.3660150622278822,-0.1639161318374595,-0.12339806945311821,-0.1572322643380751,0.4451392945205536
-0.024296208334731506,0.11689362356010963,-0.09206922830589492,-0.21902587830353465,0.08024038604712526,0.12491763818392478,0.10730512064746234,0.5203352684452343
-0.10448428236392268,0.09602064772721741,-0.2273803268769465,-0.30231256352971436,-0.11349848581237215,-0.11184746141592723,-0.100349446226978,0.2531413604221519
-0.15062524291270246,-0.005148603493742465,-0.24964218605357966,-0.3508413006558712,-0.20405825885716278,-0.19835698764542134,-0.1986751249511478,0.14170299620663285
-0.11214637431708853,0.043651174568595935,-0.2317373929559847,-0.2920825758143769,-0.13668132274701209,-0.0871921437789298,-0.1303015198115946,0.09201178465750197
-0.005674115211873637,0.09137455079521328,-0.11350735936228967,-0.18205585965355917,0.10498613990279898,0.16419011838965616,0.16132027846384028,0.2721308571356234
-0.07918265220368406,0.09801618661284597,-0.1913515495733116,-0.263874313355192,-0.039184810036344275,-0.02930886735168476,-0.03701603512973828,0.44668055979987176
-0.11526339413453753,0.08208109781900294,-0.22393893622028435,-0.32383788292989,-0.1359780441897295,-0.12085385969942206,-0.11049422979356432,0.36686720289324026
-0.10558112712767011,0.12577910233252643,-0.21474304807923225,-0.3093006291925857,-0.08412141200614949,-0.08064723561649886,-0.07951636441837531,0.42319232296926323
0.001193625052167191,0.11490074293000488,-0.06498392436729214,-0.15244871005464755,0.1582870571199423,0.18069674835977467,0.18525026823739177,0.48242698958141184
-0.06648814529718272,0.05645147846281237,-0.1732647003885961,-0.24349093403781008,-0.0453622482744246,-0.02944610280109706,-0.02529682466867611,0.40695369190305075
-0.10688547896939864,0.06998935290498776,-0.2033167138122982,-0.29462406196297614,-0.14452882830751068,-0.11973283825928646,-0.10901449981162613,0.3104359182384934
-0.11097665095575203,0.04840603694201062,-0.20986331401442415,-0.29148330280489804,-0.15296766221709743,-0.1273286672230291,-0.10896252617751054,0.2957006763024713
0.013510945323295429,0.07221928540347708,-0.06698507780231339,-0.14983234869833606,0.11468250938210531,0.131550379803769,0.11553231581214057,0.22538897267695554
-0.07807403239735916,0.05964381699492177,-0.16613184227217462,-0.230025006912008,-0.09371656639961068,-0.05156970193606461,-0.07339378779578445,0.16806144873688728
-0.09883339175436899,0.06623011798406445,-0.2040658860570518,-0.2730023857498675,-0.12185094884620912,-0.10747653674450593,-0.1298968619800405,0.15393113608172387
-0.09753013784300049,0.12831626106256505,-0.17022137478075464,-0.26621312212688913,-0.10257405906185893,-0.07363088053833125,-0.03486549731077554,0.3487841269990194
0.01269705784037442,0.10039081844229414,-0.053448995684442224,-0.13079970096230462,0.14923918352674276,0.18714135991144587,0.18657651628160726,0.4895189766349053
-0.060509467678015204,0.09705736971751827,-0.1268667511592918,-0.2319543378859105,-0.049006772523114,-0.04316708207058567,0.006908517569355482,0.5106810494629666
-0.09921390474973474,0.1037194993437476,-0.1719835124945755,-0.23732666936968216,-0.11381345299528339,-0.11130288059727513,-0.12226540584551025,0.5493478636756031
-0.06627171433016246,0.1312251694542502,-0.15501851479888865,-0.21843404265544494,-0.042910200226359635,-0.04477271431515035,-0.0038204379785651277,0.4288745291210617
0.035594703980557474,0.13954700941583098,-0.02399311540549598,-0.10698070927270925,0.175288048174953,0.2236818700789699,0.20226328926906223,0.508412951510007
-0.035045320441158434,0.1046293475515386,-0.11890794486558191,-0.17649345540092543,-0.025670767552303526,0.004696625784658071,0.018295471021885362,0.13683339552522644
-0.06490164646674415,0.049911506411249806,-0.13619691892900693,-0.23416281469378486,-0.09865391875939265,-0.08013686516228383,-0.10442111922201983,0.11220522059199184
-0.058126456598135846,0.04977846713686876,-0.1386106409182743,-0.2129961658724852,-0.0748255124149397,-0.0054370716893298865,-0.043322083409638834,0.1954094702624029
0.04698665087438285,0.11704033852783056,-0.019119725698799578,-0.09236645504211832,0.20686726634267716,0.25710368962422625,0.21924513209043667,0.4301971733617242
-0.012025306819237136,0.07999768746727653,-0.09174750957258249,-0.14562015858245803,0.03343323787765495,0.04152032230304707,0.05343603586488599,0.449146308156385
-0.05292420735085412,0.12735410898765084,-0.12361365457013282,-0.19621558650025112,-0.07046101779042846,-0.0293760017276615,-0.0426744496672503,0.4817194057483387
-0.08132063163007938,0.13377400306717036,-0.1550688351214616,-0.21520155984469552,-0.09803077166389243,-0.06925953997676966,-0.07619802377748995,0.45684722586953114
0.057998750009131975,0.14768301672220577,-0.00679945465843082,-0.04930920500722524,0.2230044539251419,0.25090423243129983,0.2351388023108381,0.5391121108319753
-0.01343006889027637,0.1152415562584373,-0.08526910659183601,-0.15626123287434499,0.014640690781235088,0.020767669388170734,0.041698981886860303,0.38482380932130317
-0.06158973300529041,0.06460452119879159,-0.1135280856324438,-0.20256599529951724,-0.09313254337336924,-0.0363317339112197,-0.07534780529349056,0.3128869716729783
-0.09909276176678015,0.04104698838999654,-0.1710407504489752,-0.24174612216896682,-0.18118828593489122,-0.14451037954928508,-0.1749110928438618,0.05869041080501623
0.05473541166285249,0.06728649644330227,-0.02169487732805811,-0.07330925258710705,0.1678189762762065,0.21451966636960446,0.16474560452569642,0.17533418165757392
-0.022436110247945576,0.08393196145597637,-0.11064253097905091,-0.16409964107578234,-0.045773942381664275,-0.009389319050137235,-0.03290814875990633,0.3511552566386913
-0.05824613324317643,0.08005108111447592,-0.1292971939597507,-0.19072461895300485,-0.07735943995940064,-0.05072459215531529,-0.09824206771534204,0.39752073859711623
-0.08082186676272576,0.10391688133800833,-0.1521829601444661,-0.2514243125351234,-0.15246959127377746,-0.1151283019505474,-0.1244105784815625,0.4140678219880476
0.05617353855072876,0.12948344215465524,-0.006871063488908702,-0.08734708541808037,0.21083555296785483,0.2500052747940888,0.21240533147426205,0.612413529938867
-0.03206170489321455,0.11849806039922442,-0.1049041838406751,-0.15572922457386426,0.014938712994328224,0.032478300347609027,-0.024018671974344305,0.41945416102982
-0.05258356442494155,0.09134431840786181,-0.141853950797306,-0.2179667789949663,-0.06667061814706667,-0.059648709334557556,-0.09052727586889521,0.43868935056520414
-0.10239505636571535,0.05040758254236638,-0.17863525375834957,-0.26897196749211866,-0.1941938110431431,-0.17446384589164182,-0.19683117469490996,0.2649503920311302
0.045550677425035616,0.09788438001320088,-0.03217270122682225,-0.0958475868643783,0.2148924841951979,0.24927506279539402,0.20723612433684954,0.2682142128865327
-0.016520276869795472,0.09972235751281094,-0.10747777159234255,-0.18851653299408266,-0.010628144298447273,-0.009069669919735318,-0.004618286648632494,0.11700795161434546
-0.050893841763652636,0.05201625095703838,-0.14624576531912536,-0.2144292686361187,-0.08690575061313316,-0.043653621797006145,-0.05998180598318668,0.21461741126217124
-0.11362175531555213,0.05436924225185927,-0.21000424587635147,-0.281344354637473,-0.2126993956117565,-0.1762986558349306,-0.1858303725883638,0.18976811655126802
0.0596487568823864,0.12606878744607525,-0.017395295377476055,-0.07845303768977491,0.20725418364674825,0.24770017010636808,0.22837666495775089,0.6068544602770036
-0.020131813741979532,0.11735824977922457,-0.09232166882501736,-0.15655517908148042,0.016611307234352633,0.038095978795233146,0.009037658980387997,0.561508952165869
-0.05315358904746978,0.11641614541141362,-0.1307931450192595,-0.19074907180491701,-0.05380413543708622,-0.0403754098968215,-0.05842959508603704,0.3783712974508562
-0.1247963217523192,0.07008109742773522,-0.2361263559599539,-0.2771661088992523,-0.24585206362918072,-0.23532835757745724,-0.25602734901126345,0.38925961796771347
0.03757243273384697,0.12833238167808786,-0.04783521616040065,-0.10782391659854978,0.15589579629552228,0.2024095504394242,0.17184721054379995,0.5471522745825457
-0.02668771714092709,0.05341676980341349,-0.10171562420646256,-0.15417253968613262,0.03932779459328313,0.053923243217456604,0.015564679613430665,0.28699363567488734
-0.078107409771567,0.05076304968312051,-0.1742407337330916,-0.24221594004158678,-0.04193676083673313,-0.08554923103350473,-0.07949266481711191,0.15425965598809752
-0.1290600228673828,0.014551860901985875,-0.2505195047958505,-0.2992298755139358,-0.23133423193611646,-0.2373944299642381,-0.2558091490971541,0.14538166743439462
-0.0037918598202015402,0.05290744770522439,-0.10102161293738009,-0.15913954996315285,0.10907915796916991,0.10689732840545252,0.11183414691274692,0.3342200243268836
-0.02339376659976944,0.07489314651431417,-0.10332039298596565,-0.1841691455124659,0.01563504615001799,0.013855668104730545,0.020484910021529218,0.4654683398275982
-0.07705470727950958,0.06645984502541233,-0.1606029553612599,-0.2241081259118143,-0.057181555735841605,-0.05197889774757,-0.07535745310146508,0.4641430540893924
-0.12016166321212912,0.02662234044979686,-0.22978999105771442,-0.2933516159803051,-0.1995331162092318,-0.18078592618488942,-0.21568231620076783,0.4147296656482244
0.010794598675472639,0.06845345934941399,-0.06855712653403707,-0.12637111690742941,0.1602527350560592,0.1792407744295898,0.16872354046790838,0.5987878881282628
-0.03201964454414499,0.05836548886945839,-0.11185394777854436,-0.1824046999903762,0.05605448427011642,0.06156816537460188,0.05708986641104727,0.5710293640843929
-0.07773829650927322,0.016597129686701018,-0.16443476325938672,-0.22775387751989853,-0.027725215095417456,-0.032047071439939304,-0.045896671238426126,0.44455582265914706
-0.1256985583830941,-0.026459964532398864,-0.24466789730335192,-0.3459681584015604,-0.19024387660091352,-0.18700865698759742,-0.22838232459053615,0.27390619469100325
0.0203105656553096,0.03899834476897614,-0.08202907996187359,-0.1581804243591398,0.16741069005494225,0.16878806567926788,0.14126891024460886,0.2973367325008243
-0.006178925544310307,0.00584472177135735,-0.10130231889070285,-0.18256691907665118,0.04514885814489538,0.0643947393556154,-0.0011338345705651648,0.26809750113702324
-0.053069564982145566,0.04623645774596133,-0.14704058185160462,-0.24887115809748217,-0.03124485606018209,-0.03088831489727703,-0.008392655825318618,0.3676638484220994
-0.10420987055042644,0.02483642484543122,-0.19478984059116017,-0.2794749366283813,-0.1923036971967984,-0.1869113353990421,-0.20063795050985825,0.4322412753643991
0.020625645684236346,0.02027447654540361,-0.054901353505528105,-0.13793104000129372,0.15795870353616956,0.17533200429607593,0.1689725070685749,0.5892040247996759
-0.002978860942853448,0.09425354738140451,-0.11196267881613581,-0.18124228274952553,0.03352441941513403,0.06643013556546873,0.011719765333643217,0.43279523187173946
-0.0664578583658313,0.09264532674067505,-0.13593443171549596,-0.2175286945515151,-0.010434253892285882,-0.018040885396440408,-0.030107552338474494,0.4705192866472821
-0.10532270856340263,0.03929054438623755,-0.1863009325531563,-0.2717960040584847,-0.17592500676392103,-0.13940749243533876,-0.17173513548960484,0.38790280379493636
0.023952051946350528,0.08618844940492337,-0.045647445541418585,-0.11258926626536356,0.1895079927922684,0.2226643016983013,0.21159797524633656,0.44881741442353135
-0.006742074947018853,0.06325564512878212,-0.1029217653752042,-0.17526986104969391,0.047149947271367856,0.0758984415319615,0.030517440445855748,0.1945728539456953
-0.03549901131967368,0.04800024341078843,-0.11497936078366124,-0.20324257700341844,-0.011412383631158547,0.026000955791383673,-0.03281722051220702,0.18480362479033685
-0.040896067571086464,0.030467766986644995,-0.13933934834828401,-0.21175245525048178,-0.04760011001258309,0.003363752127923475,-0.03573779549035007,0.3084845097056327
0.0667035168495748,0.14039097830795394,0.030687963349450814,-0.05223677511956665,0.3032256794799987,0.3261017343374569,0.325059929415759,0.5652166301349968
0.024628982997393842,0.09028616603342152,-0.045700918751513026,-0.10914677613060078,0.12053741709496976,0.14745787523502335,0.15626523305760062,0.44460973484446564
-0.006393667315990448,0.08711370030316684,-0.07975403569396035,-0.15446769724765613,0.10361801478035793,0.11674672842677417,0.093628583839634,0.5197153530163616
0.01394905232222296,0.09169146414570303,-0.0293471502720751,-0.13608204203106827,0.16012313891127283,0.16763696948117648,0.15068305118367464,0.6348805259107217
0.0908315658422938,0.10378037782476042,0.030590227531409053,-0.013066644058176397,0.36260562342381936,0.39172378534428953,0.3677666507291905,0.6962641466191485
0.04716333716339706,0.11373423141020178,-0.006629643667854984,-0.08935133578580727,0.22275070847863077,0.25250082324420753,0.2543244600488451,0.5341299571243097
0.01053018661275218,0.07671372569430061,-0.06433918032088257,-0.1262546063387742,0.1717237412227243,0.15567396686933938,0.14127229327615576,0.3407020771023138
0.05702538637476448,0.05029320906684823,-0.013988118832936963,-0.056136046444855675,0.27756231213484817,0.32655125364408805,0.3369481252945613,0.43344556892334757
0.09214404097444387,0.09842067819548089,0.041102418966583926,-0.031093840810751977,0.3701412007490766,0.40376818591255587,0.412549515759404,0.36733926972059133
0.04622524206565631,0.11909721947538436,-0.021034624007853664,-0.07786444522747657,0.30612080281744275,0.30793703775413844,0.319256228850086,0.4322571256074582
0.01384143700317328,0.07259160705125212,-0.08296963542197584,-0.1187560382831929,0.19099053243530523,0.17659383026483438,0.16900223831126138,0.623920092690764
0.09849617597905447,0.10477474607782764,0.038690897338673175,-0.04048160047256799,0.39224585726536126,0.43731426143052743,0.42224561931826826,0.6878347298104579
0.08409115536744818,0.11127600195888383,0.02633390442245309,-0.04109453726975629,0.3919407963650865,0.39731234896257667,0.39234384113248244,0.6408959607614705
0.05258179090975709,0.09470676974470145,0.004695561951350874,-0.09524349155991299,0.27722211879819353,0.3096497301817847,0.27906268809058066,0.6638207987045697
0.013580684362807086,0.06444499172651513,-0.07479409861822321,-0.12815524200232237,0.15987616374447106,0.153211550790473,0.13461073494257225,0.5094544974342198
0.08315077034387412,0.07680071249875883,0.026540661343671834,-0.044514784837179744,0.40123144328279736,0.39023565129441845,0.3852849450807862,0.6010437685813748
0.06832739849840555,0.05970168998509344,5.963916207525344E-4,-0.0651630171828124,0.3210028406994577,0.33307059150588125,0.3319502454045298,0.34300688713622624
0.04779649679135639,0.01155152925854433,-0.05137588966962481,-0.10157524995271325,0.25990612172514377,0.2586099264310241,0.22368543766389665,0.26904672965100224
0.0019004928288268441,0.04756251641391655,-0.07783810922372818,-0.1533541323764441,0.11273982339793562,0.1405793998328757,0.12518156246244705,0.3843417195738884
0.08628315247560944,0.10409464938133203,0.017162135970189313,-0.024682141171619126,0.438793135623498,0.41464479569203216,0.42890334307993105,0.5911034807074625
0.07793853506116205,0.10470072310452516,-0.00347119576752547,-0.05812821320840836,0.344394650028876,0.38381710458294954,0.3603913286807877,0.5970686494753682
0.0622327622509988,0.0845330332543502,-0.009413790657877813,-0.0748888582170501,0.2843576174297263,0.3035055672301057,0.2871874160035219,0.6734897318540443
0.003682780089848056,0.10303967815145741,-0.08666095708810419,-0.1424868950819657,0.1395501604450717,0.15421971781634908,0.1525051254345573,0.6142688427488914
0.09157516436248003,0.11154433429795249,0.03792922710931945,-0.021065876029919772,0.43281967967099266,0.4540064623215182,0.4646823327196655,0.6506788151106114
0.08536687072116492,0.1272823313655635,0.027008512761738157,-0.04762283516622934,0.3872784182749354,0.42203345769003525,0.35587008615211546,0.6448070592216283
0.05680986201278193,0.06588270897889163,-0.015138940435412668,-0.06345322871689213,0.31167688413721323,0.3152464352047233,0.29442636242154,0.5110745260988663
0.00978502440973518,0.014557282277777722,-0.0818630452707739,-0.14360511399059117,0.1401725445280286,0.12992929825429167,0.14973229259201398,0.3696915988977752
0.08540665175815623,0.05229614986337855,-0.009715671238267554,-0.06216851792647793,0.38665844286992196,0.40638583645387116,0.3678256042005208,0.4144790093910462
0.085848590812041,0.1042992685862574,0.01578284173706146,-0.037610557808131356,0.41256574356731046,0.40013959001639204,0.36118384133113407,0.5032143497697709
0.05785588460085468,0.06773365734991675,-0.01285706516666979,-0.05695373320017327,0.31195456471021493,0.32617671615400123,0.28392533488602645,0.6027722806359934
0.005800934052967444,0.089134586249451,-0.09101984610323297,-0.1272656866397907,0.16642620563147734,0.12884944761983094,0.11752357491009442,0.5770275601604788
0.03628754179841005,0.08546161151868309,-0.02136716568084379,-0.09188417089299733,0.24375297344370098,0.25071738983510095,0.21235756962905566,0.6720170135806229
0.10143259980551692,0.10650793531184752,0.02880985400990127,-0.040772951156731546,0.42619763191840687,0.4034686850826902,0.3778864498694928,0.6976762056732102
0.04077698366283232,0.09762989522509766,-0.005110534619486046,-0.07632735770616844,0.2791594289259174,0.2913678152601487,0.28821076498832654,0.629722588120982
0.010476034857497749,0.08387773643994675,-0.05826644093533939,-0.1511448411870154,0.16608703924900092,0.14985073025805745,0.10320528827134451,0.5173328013002975
-0.04458785128500634,0.01347134729353508,-0.13136466122117946,-0.18933242073287926,0.04818437659062334,0.054251055037441195,0.004608045076306078,0.3198214150401777
0.07980450809711526,0.01597272802916158,0.013127072809283158,-0.05496158118806066,0.35876734036429353,0.3821852652381068,0.3258649101652539,0.4092784995372114
0.03465070608694279,0.014288392063477331,-0.03753037457413086,-0.12668997618595748,0.2328044708595321,0.25631328800835584,0.1693525538705365,0.39519565214179586
-0.008989241910558401,0.07765221044425208,-0.04829860138223918,-0.13373975800465338,0.19925063742659163,0.19865913044242006,0.1255322082334579,0.534361253798767
-0.06334384310370067,0.04841743765707349,-0.13830806496126022,-0.22049977646787006,0.020725547291629676,0.04957197051369239,-0.018817326070711668,0.4844953183572015
0.06215571859151256,0.06781650467467035,-0.010458987354130866,-0.06819532127324146,0.31968460825163375,0.3544079128270001,0.3624665487629768,0.6418905030304398
0.021763416975303845,0.0966861772949637,-0.025810585338258862,-0.1105523966960976,0.25205203824686817,0.279653969710548,0.2433815053900012,0.6096149988524034
-0.013428991743686586,0.0576697316719163,-0.0748338932308403,-0.1248946190861098,0.16054322497978699,0.20204534707704552,0.16628061035747227,0.562090338038413
-0.06699272789120961,0.03469178124953287,-0.1489923834611362,-0.1997905874956678,0.026795156777145654,0.036718177905242025,0.00600696816378149,0.5226865250917673
0.0017931275255532453,0.04882464620166749,-0.035612393037265516,-0.11819562873486096,0.2537868682371096,0.2736286916691518,0.25182083052553883,0.42100144056915867
0.045493583650423636,0.05863384579878317,-0.04526307338274055,-0.09718079490398557,0.2938037440731418,0.30234992989611387,0.24719017301804042,0.28507769660936333
-0.010205953346457505,0.009009282865346621,-0.07248716405208977,-0.15587504626239967,0.1788107004912337,0.1824939209048252,0.16089875057482222,0.30471915638157765
-0.057888171590093504,0.029842070216369643,-0.11436066607394936,-0.20655689523573723,0.05692969834386015,0.054101005437464406,0.014501095325109042,0.42622933744025693
-0.03634945743798253,0.04769578982846795,-0.12028021261182728,-0.16591267390064318,0.12408036718895744,0.14770274583794557,0.12785799683712523,0.45793261338942437
0.038782100458076604,0.08804578971185315,-0.022882292338394783,-0.08932528895292294,0.34401143116992244,0.33850732765042274,0.2987005666244861,0.6215348146159781
-0.014208321497420628,0.08101841656370348,-0.10794905675926317,-0.13364523307156165,0.15333577730199982,0.16241281249277628,0.12142606690972407,0.5539271608390102
-0.055584655320665005,0.06476164624775302,-0.12113554825678247,-0.21558092083948205,0.07826149118832962,0.06926129938564526,0.07350565645123497,0.5412874919093633
-0.09260361754830694,0.0046961323906297425,-0.19019313349922917,-0.25206710711998587,-0.028352795198213668,-0.014070248249380551,-0.01656415400950073,0.4840384066893586
0.032818601116613194,0.02886799724905928,-0.0516617154066511,-0.11420877353146108,0.32315105924539117,0.33767411823273336,0.29298352184159593,0.436922204518866
-0.03964018478945032,0.008241407553237712,-0.1310276429363818,-0.20591963864689486,0.10173869708675125,0.08036349234030438,0.0490437564326332,0.26189357113748624
-0.07514618918565028,-0.018640618551983262,-0.16026363628083218,-0.24457740446793602,0.04179637616969692,0.012682850758653344,-0.03599722849211971,0.20315366023760165
-0.13787052118150778,-0.05064035734451064,-0.2370744845492164,-0.3357570861023267,-0.14232600011500934,-0.1224341104982395,-0.17141259243313936,0.2206341081021057
0.005054380593600749,-0.008589803019651787,-0.10327443208522431,-0.15871263718623552,0.21813910124233996,0.22306209352673712,0.17267254943334356,0.49503799112795166
-0.05190687564494077,0.02606763974889592,-0.1469351741466688,-0.2355147343713179,0.045806514357587313,0.05627484309241956,0.04498324035442905,0.5455750028695585
-0.0939002784702827,0.014953540461317083,-0.18152714089909422,-0.25708601028465755,-0.005605362747455517,-0.009011426963156224,-0.05079795315122862,0.5362088243032499
-0.1513635418006581,0.0030507876471406736,-0.26067766919011814,-0.3432739872160664,-0.1350264786655337,-0.17263270303439188,-0.18278357761358185,0.4352948356570294
-0.02039291422259072,-0.004690652764461456,-0.167499828655013,-0.23350247979030764,0.15743371470977924,0.17594167191122612,0.13019343494226174,0.5542142758861452
-0.063289626943102,0.004610260751822082,-0.1903499335712851,-0.2727513983837131,0.0569347393384049,0.026049195125212685,-0.030729574643320254,0.4042443753471887
-0.105540393762729,-0.01890689653450392,-0.22694248463511627,-0.28523199545686,-0.01786088590318434,-0.03658191320432816,-0.08248318388956499,0.36930089752713513
-0.1417686754866681,-0.06723991615448283,-0.2848544805903801,-0.37061628278925346,-0.16944819144330334,-0.1824997262665064,-0.227485422558332,0.1580850455917593
-0.007788182872235358,-0.030616738376557123,-0.1276955136632545,-0.20939295525658774,0.16299192440345378,0.1544270891432483,0.16065663061839094,0.2503819932579781
-0.059103584528733794,0.003943468660777105,-0.16767727791447753,-0.2519908889406769,0.0478894064203413,0.06125008058315677,-0.003975091704211203,0.3461005540634077
-0.08468734057137689,-0.0014333317559277747,-0.1993307670382559,-0.29037605160689495,-0.023924830161763194,-0.006933678246327971,-0.06730845494986888,0.4071406040236939
-0.1450020328497623,-0.0163364179304627,-0.2710609275641433,-0.35081979247758827,-0.12929009274834175,-0.13294359660861962,-0.1544601496653555,0.4099749879111957
0.002048232646086681,0.03583042219548602,-0.09551138242654406,-0.16019485414854562,0.22233122211578588,0.2330721705959844,0.18634228104859796,0.6119465354326491
-0.031028361453890735,0.03843964179111348,-0.16024451008219648,-0.2311009416611603,0.09683731262870109,0.0787294240198988,0.06793057961584759,0.5191976221932292
-0.07375083949891532,0.009039376201314231,-0.17629974765979678,-0.2628623729715573,-0.006360272194896252,0.004392112389307548,-0.05993272404859344,0.5302303087537443
-0.12028123781990224,0.019451089383274278,-0.21704263051797118,-0.30902646907569675,-0.12151076956795444,-0.09757114053807535,-0.13344178484573258,0.373050658599093
0.026679340902089524,0.01564413527627201,-0.07200202848188278,-0.15695686711718443,0.23500170864731762,0.28340225286205384,0.18198718346127105,0.41288628934321625
-0.03506969584157335,-0.02098914695190382,-0.1257170741684175,-0.21408480689814258,0.0980892463868331,0.11469709893892051,0.05640880211344132,0.19533294418456132
-0.042574749989006816,-0.008278521962882673,-0.16062036828162504,-0.24596470263012096,0.005556748870751471,0.022539170973296357,-0.050118391066564946,0.2103215912212426
-0.09402115734745106,-0.03694271691944567,-0.21042729805773758,-0.28736827121701575,-0.07822744769885047,-0.05824583870102333,-0.09799673040374608,0.37433597107237093
0.05390828464909847,0.05989795815395879,-0.058736608845862404,-0.12444095678202521,0.28940462412302115,0.2722042831995281,0.25126565691789193,0.5030562599890325
-0.015329417167007503,0.05717450747952263,-0.11318517845578127,-0.19329849453482456,0.11789457683193917,0.12635741770237885,0.10077919939156227,0.5008422266915004
-0.04193207331909275,0.04076756036398144,-0.15246951865926267,-0.19282814802391207,0.07977862734224568,0.06690380995496072,0.050893323032237994,0.5670124390952693
-0.06807942263547728,-0.007209505334216132,-0.19770290388533762,-0.2579847258611871,-0.027278078786723434,-0.04124996857367374,-0.04950148828839908,0.42647251035952327
0.05028044892067572,0.06747619170948502,-0.0694825321943928,-0.10459473891420423,0.31777542363289113,0.3053430507779029,0.2732005591845582,0.6294303634928315
-0.010054534274575921,-0.005046871442746209,-0.11742207706072429,-0.1968591244162335,0.13170274093767398,0.14955952473404,0.0878040819978931,0.40463704419033797
-0.03885535484033477,-0.006730682152983197,-0.15145161169433702,-0.2167185995224425,0.0649305285307168,0.046449754076226854,0.0076433606001080345,0.22458431311796387
-0.05722257253528798,-0.02546733224345929,-0.17610472986206474,-0.24698511435767792,-0.02270578980734944,-0.011757050756792828,-0.043562855245092576,0.20832488360526655
0.05942206725991141,0.032309041575013325,-0.025005628456205853,-0.11044299076864844,0.29146830086114883,0.31515968591091925,0.2659699630657692,0.3762362754651894
-0.011127012926414506,0.031644260278107295,-0.12983445874041802,-0.19174955894308918,0.1107041352313648,0.1258947622901324,0.060543824193811865,0.3782514201710341
-0.02981716327327269,0.036287549808354636,-0.1407372379223025,-0.19968789166563733,0.0907636705412222,0.025359895200429736,0.007992700312903778,0.5033454905311551
-0.04989726254684365,0.02417461245607136,-0.16694664513101737,-0.22463785076924597,0.012243227152906794,0.015266955464020585,-0.04469010227838374,0.5137725882263977
0.0715120524065872,0.02038748701425644,-0.041582485290620946,-0.10173762484405194,0.28594879670403,0.316514907159653,0.24491520707199843,0.6408112441191852
0.028826108896388036,0.04100468648403352,-0.07218794233719722,-0.12631990693138018,0.1281096016939639,0.15055667023854058,0.07652958690518344,0.5136828530233162
0.0020538425725254994,-0.01427558592772693,-0.1020153693216097,-0.17463660065581815,0.06637966855522678,0.0603934228276187,0.011697183832388977,0.3918734198968129
-0.015896100471083974,-0.05300887046190858,-0.11174966800061167,-0.174092333313906,0.034796994329831715,0.05297135903112936,0.0072346112978065175,0.24385617468207949
0.09306193938173737,0.04311766596982319,-0.010906896794213,-0.06993757927707475,0.2849158137919747,0.30642540040331195,0.27935958522869675,0.36431776736576776
0.04111980930424945,0.04513530141100455,-0.04558458777553415,-0.12128585599951491,0.18514132852326215,0.1693016010187126,0.12181427065308709,0.37818089502667507
0.017335085385017324,0.009236470530808782,-0.065346787888475,-0.14813897091828682,0.11211853216342457,0.07821538516466589,0.09033732511819259,0.3532640437811384
0.022707998315362438,0.030001029816584562,-0.050401922610785105,-0.13107389910695083,0.1179457299181772,0.14715912339694576,0.12001832243217073,0.4664509733033937
0.10676637305074436,0.06821432485946272,0.050584553449775,-0.02883431465608266,0.34481749505714665,0.34208636653242885,0.3226778384296438,0.5376767760726587
0.06411514140466934,0.07692194990110479,-0.02401156685642855,-0.09930904189823092,0.1721409654790738,0.21051917705030218,0.1419453111619264,0.43340837261102044
0.03458203186252112,0.06842569979826618,-0.05841933171560282,-0.1183050537347895,0.10672267818842282,0.09897243412888353,0.052876319613129164,0.48336467060916444
0.060413152667206815,0.04595142134685426,-0.012000839292885646,-0.09809096313199905,0.20020706751630807,0.19908162928798342,0.19895405418485967,0.5690712178195257
0.11902991043044339,0.05922382301984566,0.05638410277616668,-0.031862215274436334,0.3287977016968346,0.33896275178428065,0.29323229116160887,0.3755804598256414
0.0734294980335618,0.03115199852311612,-0.0030575669508462466,-0.07553406205272944,0.20547775456233858,0.18659073181319435,0.1466272577323428,0.24150805593153873
0.03692885475819985,-0.024736832507029016,-0.060887650181227104,-0.12743042683744257,0.07107818328387208,0.06478511735604607,0.013147375620861157,0.19284775124035175
0.07713233522057555,-0.025227079355796225,0.01653002286674865,-0.05478556459693057,0.25488292904407067,0.26512831164879924,0.24391092217064947,0.3540479657364962
0.0967966380613875,0.02146812482220864,0.029165822820820808,-0.03179194236138977,0.26589954240102687,0.2854831088724141,0.25986075849192125,0.48297839831349504
0.05414703805213095,0.005165809810083022,-0.02988765076262584,-0.0999271652507368,0.1965482668913619,0.13018031959798965,0.12864066122078363,0.4966151512849214
-0.0012108101729462473,0.027812894863084164,-0.11666652054674079,-0.16810242337189665,0.020822065319112446,0.017082143628755445,0.0028222403796552,0.3778944174853903
0.07936044717009696,0.0207871162590704,-0.018884401200704087,-0.07974123234238628,0.25317041034697685,0.2818980203531875,0.27120442047969795,0.5926790855046349
0.04103976255972566,0.09208779042975598,-0.08481143967360028,-0.1428394568671565,0.17960872219543683,0.17165391379236677,0.13376171654781882,0.4695878712509789
0.01424064526597335,0.02306922999014438,-0.11178871369996532,-0.1650133958781387,0.11368407818820442,0.11308136221122156,0.04873546771468851,0.4334703325462548
-0.010317028598734096,-0.049118152838385803,-0.14093725578442287,-0.18848548886903627,0.029632959853438987,0.05147137651584721,-0.0029848833025396815,0.21456318000070548
0.07554757903577758,-3.4875649750032434E-4,-0.02818433481147606,-0.07297871623869928,0.30250593090788924,0.29867117956326383,0.2423250900809624,0.3172704553882261
0.01177898029712901,-0.03920225102511772,-0.09776566229321515,-0.14344647732075094,0.12745663813296657,0.11476981352092169,0.10437783418659638,0.2838309596078964
-0.005707982504188885,-0.0020538609373525474,-0.12145879009447161,-0.17200855795300782,0.08282995919561932,0.06725379704241224,0.02795207220884982,0.36725948990813995
0.02423922487567165,0.0033280318705126155,-0.08313180797466116,-0.1336872702954898,0.15613970141991565,0.15091166708439957,0.1044146449310408,0.47937211007795344
0.09288650815961785,0.015293130796218635,-0.01534495939259084,-0.06834136059616441,0.31049023445388557,0.3614945063067831,0.28127013868888034,0.5573683693434102
0.05140840908284883,0.005819075549147706,-0.08069846463669833,-0.11192988423369571,0.18345980935700323,0.18720885507026727,0.1461513760829761,0.5427004240106396
0.017703881381317788,0.037648064013517085,-0.11271906223677441,-0.19160142487669768,0.08846829698020828,0.07420891875186056,0.04814190315599989,0.4948394703012645
0.09004272104894379,0.07733869546420519,0.0038864402133002574,-0.06935536559349895,0.3557413945042174,0.38024521578515347,0.3455360574489308,0.6357652087823669
0.09008655089174933,0.01759570964967308,0.0024736020925212876,-0.04328831197126115,0.34813532701492145,0.3290625930129385,0.30159367353550404,0.4684840686441707
0.07006396695842104,0.012909183552901826,-0.036233097223774796,-0.10546737859120309,0.2677384201391655,0.2427490791988534,0.19472018923323206,0.20437538018852286
0.05554175484097046,-0.023616302440047518,-0.06168208412376963,-0.12144693675373405,0.17908092488118832,0.18400339223146744,0.1384255478577947,0.2671806033439787
0.1490973773016873,0.07348338070106775,0.0664682501299726,-0.003125631669661677,0.45418927911321794,0.482415780098204,0.44195597806018233,0.4095963944117865
0.12743892995200087,0.0743156790154817,0.041375130995702,-0.038952720401802754,0.3436940680118834,0.3604289875643717,0.3411614373348545,0.5210444647905641
0.09247945197804047,0.0727178639294638,0.03674549711545144,-0.039084017315206,0.2535357006688611,0.311222601083398,0.25278562816218164,0.6414085316446295
0.12985038055831646,0.06861631522929318,0.06249608736449297,-0.006479893143691129,0.32583624168233094,0.3356165710427116,0.3054764192533035,0.6600244362542684
0.20081977239613993,0.10539907534883555,0.1340901955456005,0.08427591811106255,0.49727829062801343,0.5074278682452378,0.455362342347618,0.6586016223115518
0.15472001573691485,0.11664276783670188,0.09568553333145013,0.06043333844363369,0.3729561727190086,0.4073477644186315,0.3527654139649766,0.7139786551694081
0.11976894318675435,0.09063409783087689,0.061443052017673416,-0.03283119759537889,0.26255149752812845,0.26533660437274387,0.2563359210026327,0.5296716040443904
0.1813773749644936,0.08579772432058368,0.12570305625786965,0.05259570035421607,0.4503047465170056,0.4784385009936365,0.44007839534544896,0.4119658800113314
0.1756656732763265,0.03307819523489822,0.15097559152031947,0.0430570486776895,0.4360553593445492,0.438771629149957,0.4010981950351266,0.27857608863365163
0.13405301689228383,0.007774887860666352,0.0794214171445411,0.005081510682644508,0.33558497358825085,0.3390581869181724,0.3019581695694322,0.3547867759410278
0.0794808020851292,-0.00447067846688573,0.03584606417132297,-0.05058266788302768,0.19466243912230052,0.2030550449034269,0.17752597631925535,0.37152815836885256
0.17726721453834607,0.0736530012609646,0.13770154516838184,0.0641302103273027,0.49324281812688764,0.4913268569751439,0.4744445441829236,0.6041400798173832
0.14526407516883724,0.06800904696844845,0.1104008052264836,0.014419820735025402,0.3568158625024933,0.37847798307154196,0.36624731765124807,0.579128533317686
0.13001262217567774,0.06283834968009863,0.06088290467915258,-0.001816904427206889,0.30641159568773374,0.3430947173052027,0.29007882837639687,0.4845047170751199
0.11642384491324784,0.02110241452179798,0.048645205879057296,0.010168278799108033,0.2973370789661439,0.31998934757416153,0.27725721831107086,0.6888857780104816
0.20397921486944545,0.04128174721689534,0.16049856252342604,0.07633370606492795,0.5413085652397537,0.5166122215407509,0.5106569889615189,0.5762097760437211
0.15002095696993858,0.024127674041102803,0.1008165519292788,0.019480485648790957,0.353924517386359,0.3875456694265397,0.33472234248231114,0.5060300506490241
0.1154536411955499,-0.011153499001426481,0.055989547172989707,-0.01934774375655568,0.2727438398096523,0.2663893622576573,0.22459680358330653,0.28270241756750036
0.17890562478770808,0.04932008392715709,0.10746240072320412,0.03882053025547483,0.4240929324413111,0.4236995847410697,0.3832299458269346,0.42961540221908723
0.17696289955609223,0.028356001057581542,0.16019603267084642,0.0678944801509026,0.48591953447146863,0.5029302457919875,0.4414426625422271,0.5024273605570312
0.1363175178578007,0.0055783308485649885,0.09452717394310606,0.021296862016534635,0.3512876163877764,0.3843621725632731,0.3434720177941565,0.482579002221607
0.09810636716178,0.02331226661322902,0.051371554191115665,-0.0247700916094174,0.24976583333125893,0.24560350031740266,0.2339473648856262,0.5661762849576448
0.21351495879847224,0.054720275068670554,0.1369360342541443,0.09510965084284595,0.5372939057676083,0.588992570650303,0.5299296214918805,0.6355169332909177
0.1824552605076792,0.05815304809537791,0.1272893975545023,0.06870115461508403,0.42919680366978175,0.48909568979689816,0.4319927519582123,0.5947313367314988
0.1469133170006562,0.027116493122786384,0.09972975386975175,0.03398733790310454,0.35689246103638406,0.3815679916209824,0.34320366865554286,0.5103159088400067
0.12103685231344508,0.004525456010246454,0.08046708645316836,0.01624005820837615,0.33531310488032673,0.3437879657123351,0.33647531028340616,0.5580504953039058
0.22027054178864525,0.03059925100161187,0.18455051283159374,0.13094254961060064,0.5724615010609624,0.5920978328317541,0.5410789204385387,0.445393179738072
0.17521726600019027,0.005541179595280388,0.12891287439352972,0.07707493561272316,0.4139685182892318,0.45617858467660555,0.38501791405382524,0.32282447298582284
0.16118207416782712,-0.051466929996418845,0.0970980818193457,0.03143806812264138,0.32764859659793666,0.339836877273038,0.30247896633088656,0.31315802353232136
0.16835736726263245,-0.017674086290182134,0.11150219254955823,0.06685406215249479,0.3856511408543004,0.404501709696108,0.40561615572075504,0.49615072796041293
0.20436704067360947,0.027300089861483023,0.1721016331529177,0.1232274212091285,0.5696545851654131,0.573257200782241,0.5556377269413562,0.5751804274980128
0.17434753182648857,0.012698829802125805,0.10978549839299279,0.07648946841580534,0.4119180295869904,0.4264925673299157,0.46239674208564047,0.5458674030759587
0.13626792873214458,-0.0292062463364246,0.07980506933399573,0.029385016733044222,0.28647296078024975,0.2907624894722629,0.22944246876039986,0.569371097765083
0.19354431346964143,-0.011518708446954962,0.126076767171049,0.1071271723288521,0.5089839891274157,0.5058486918636801,0.5170919411933028,0.6399247004950033
0.20177363712954338,0.05257152181197647,0.1718200157924561,0.09575872721928597,0.5216832749004767,0.5567547998257698,0.5249806385774616,0.7086350874526598
0.16496762030023499,-0.02348711343191434,0.11681425742300022,0.07038616570080708,0.4209870213421415,0.44103546203061966,0.40019767764022035,0.4137965741896935
0.10932755472853348,-0.06697638437436877,0.05654227057958677,0.008232668589705172,0.24732431888517023,0.27317594838910986,0.20314915819833695,0.29270661722919156
0.1937100234388331,-0.04726183429873322,0.15017538486273863,0.12572610811804297,0.5074155260833741,0.5343632814853495,0.5093521586108409,0.39638140206040234
0.18600496631444313,-0.03633796807261186,0.174597333140176,0.13510013189023856,0.48550132949926483,0.5173607333641863,0.49072170961014955,0.3698669652848066
0.18021667841311168,-0.027158864240583558,0.11864095577644607,0.07754198442717802,0.3871893897948451,0.4327669383945779,0.363792975230526,0.40098851997476603
0.10134813187470079,-0.05000238153674591,0.06429622256595119,-0.021422051698195888,0.23312373829202415,0.26071672743601193,0.21886164363692495,0.5524605360137217
0.21801928547523763,0.021748136773254073,0.1902767105291101,0.12286417053913307,0.5543591423724448,0.5775058988514503,0.5480012705180347,0.58643291701859
0.18979250121957855,0.02158702569495452,0.17082725902332418,0.1099096092412164,0.4528535976058853,0.4625401855611271,0.39634553358637764,0.5829730174886261
0.14522536940906444,-0.0043792115753509,0.12019280226165202,0.06941609558324863,0.31162386896314576,0.3362378311333487,0.27141710948225317,0.5618187023583123
0.09611183703179418,-0.06069581241066277,0.02857369538273241,-0.026940630740081684,0.14308109572797692,0.19020075865843714,0.134160326572899,0.42954269527493116
0.21428346908012524,-0.015307022936415837,0.17878177670286077,0.12736530510558403,0.5137357559544216,0.5094067815873928,0.4853531972102631,0.3128218822822057
0.17143549491766413,-0.05170302804213192,0.14688576268694192,0.09456101215929541,0.36360290377892995,0.39853895150497937,0.35406618669199663,0.3250181927903406
0.1633316338755551,-0.08640864123078552,0.10589027182348476,0.04393213999801626,0.28137679100857527,0.3009854216910901,0.24247693784433305,0.24266225486832865
0.10057303261696982,-0.05213883259533206,0.04788790419999994,-0.003170835688018514,0.1786382373617165,0.21843866116575988,0.18840784312031605,0.30566993759104033
0.2246201596895902,-0.023945634746198707,0.1853465665105673,0.14951689892783365,0.4871839147297864,0.5285789671697713,0.46582101210361126,0.6059940669833628
0.15652159427795898,0.0012538085020964707,0.12230880433739322,0.0734976697680112,0.31501925564645833,0.3258335346707387,0.27408509725082314,0.5441262881235229
0.11153097792632319,-0.0190093848426498,0.07420422406458893,-0.0030414881946274064,0.21403604837477236,0.21023103215548167,0.18318050967505234,0.4520246326055563
0.1006749863752403,-0.03290821351553469,0.059007040834431645,-0.010994940205773074,0.1983813621783776,0.21304281206945688,0.21230446541335446,0.485641156370557
0.20105629753034368,-0.011264858304688097,0.15590938055680964,0.08924097740618364,0.4525800614921094,0.4636691479745204,0.4340962751314269,0.6052987109028528
0.12866018751385824,-0.07978652809009809,0.08361277418000734,0.021537803699445857,0.2513643114739219,0.27479492642247194,0.21599327753179692,0.441475480595831
0.09312739587646462,-0.08840467943902403,0.02755755653727554,-0.048300766691622976,0.13009768917137388,0.12878712718184868,0.09171459281222188,0.29485038559421545
0.11796839964005743,-0.10828551836825795,0.0626064716607111,0.005237792407979336,0.255925507222199,0.24561746163706052,0.19328714478697528,0.1419912535369303
0.16435154443955396,-0.07992543145404854,0.14644766499815032,0.048876462160808654,0.3616991748984732,0.38129781262546103,0.2924343703177816,0.25722974771262996
0.11909166852661837,-0.06549432150394835,0.07179773990720839,0.011460267048369444,0.16242944955581862,0.21382257889474918,0.17407288180516722,0.40834838193821565
0.06897723095395386,-0.11185162605521731,-0.0019465118392615333,-0.05998855300289274,0.08935638020674652,0.08710272431014732,0.009582558643665806,0.37523622538132106
0.1606765590443231,-0.08747278356145605,0.11977969564234575,0.0737308011376524,0.36564543915453945,0.3691866143211714,0.34980138557280255,0.5878613448878682
0.16416739705649858,-0.05160401246395763,0.11567282465711243,0.06759012562057448,0.347398375326633,0.3694781150441778,0.32774791674171044,0.5057049860386722
0.1306719619529999,-0.08370670901452698,0.08119177520177445,0.01912536726048414,0.22884926321425628,0.2271761838184188,0.1812013545595133,0.4997406641280144
0.08058419562730024,-0.09674252589099819,-0.0030929316661388317,-0.05639481879773217,0.07089917383622374,0.0834864745708356,0.0756604130490528,0.42991101336804866
0.22110146346145362,-0.0421517477070206,0.17374743503956364,0.10980717482816771,0.4234783646229815,0.4192741279284495,0.3639975718259091,0.38623293508009515
0.18253565006276123,-0.12002101061699091,0.1271714184574541,0.06750860950231047,0.3565764440055403,0.31896694576990386,0.2655901364453967,0.27700644249438505
0.16128239376344827,-0.16608991381961902,0.10413818811822745,0.04510705247312935,0.2300718814871163,0.2417632664785463,0.20695749521930323,0.27835335348387524
0.09772512049809817,-0.15598062589416165,0.06531415998385687,0.012213582340072082,0.07366164639599579,0.09973573812970016,0.06227351809651588,0.22820992346261143
0.2288327992982738,-0.050800013235537095,0.20362232620315124,0.17468259092663746,0.4521553442968242,0.4647190832515298,0.4299685483458665,0.5546622742655882
0.18204136710712138,-0.07221906970692554,0.15020666600437244,0.10094661678534611,0.2643581877789023,0.3190097714273969,0.26335462062936327,0.5641243550417724
0.13085448207868655,-0.14060515947585933,0.06890041522135132,0.05303741860972383,0.19873058414954362,0.20867870380574854,0.13796147547187798,0.5161019743741634
0.09955698601875951,-0.16284082090930008,0.04722894090297264,0.013773573881909584,0.1528929592570955,0.17608034002389641,0.12062981896646724,0.49659463004190196
0.22734663210344114,-0.046787871311106205,0.18281717333706904,0.15427397188593978,0.4551984082460097,0.4629256737301576,0.4158821045897351,0.6815910341873155
0.15828219079156675,-0.1433807253378459,0.1090394507972619,0.06670994856755158,0.200051783417811,0.20354016796983115,0.17162573085123267,0.4658603605577775
0.09647204839082185,-0.14848339050450626,0.04535651361121429,-0.0067859001367493454,0.10054781650301098,0.09826467031052266,0.07382621308888643,0.14170518290358694
0.08324706740150287,-0.1814476915307191,0.014976905691535536,-0.028470888809727035,0.09938981669257366,0.09445101157018002,0.02459916012127189,0.22305490789786164
0.20039884662722832,-0.13692021070509727,0.1333610353290336,0.11304941135779895,0.375684016177375,0.37078946709721483,0.29774271017783105,0.32726278241808393
0.1278856411785423,-0.11360604126456444,0.0606570535406335,0.009453317934295435,0.14829629806641573,0.18673955110278176,0.1597272184420404,0.3081421645652336
0.07078688433901736,-0.10884229039699753,0.02839129915626598,-0.06035448107552466,0.059378715289057915,0.0679344065600534,0.020159552345993148,0.3751634859022094
0.11000901642316607,-0.14775878041056278,0.016871909279692232,-0.03231104821435221,0.12126920710778169,0.10361264383462757,0.08902472824020796,0.39352525290804924
0.1821026310551472,-0.10805744277696405,0.13300641537217733,0.07165906072604417,0.2950433767117928,0.3361699365381097,0.28047200286633445,0.446044782873271
0.11031034101808973,-0.11459280002111374,0.03283847875302437,-0.02437997562359978,0.11311390538456059,0.13317921312984393,0.06412522458469949,0.33641659517001427
0.04290295529131172,-0.16275794046433623,-0.042064124383755785,-0.0830688191027587,-0.0036532658686132813,0.004245683964576474,-0.01889808715015656,0.37693982952593674
0.08331821237209808,-0.18307539127935313,-0.015026561656128423,-0.04233332402908013,0.09954103124401978,0.11702448608106558,0.06111402207631017,0.299571949714422
0.16673307358335981,-0.17151269944011566,0.0763620701614724,0.010424719286557693,0.2647835400632007,0.2640157471372355,0.22134153373699922,0.20760034586188633
0.07544212863942545,-0.2094036650466704,-0.015189866347634307,-0.05319300114073988,0.062417420877528024,0.07271108224158884,-0.006312802571660225,0.1381750411070789
0.03767185300409309,-0.18779179784525324,-0.04921745085231877,-0.12449402171472129,-0.06360254136655588,-0.04116261708434535,-0.0997166598236974,0.1964983832319584
0.11950009773130765,-0.1747547480496343,0.030514114209751364,-0.020588049527960395,0.12180972948473953,0.18622566952835645,0.11137020378726442,0.450396538483544
0.17370283596359987,-0.14349291614325818,0.07285197090298245,0.05259518946871983,0.22472275534628955,0.23161514293570978,0.18309327150814014,0.5333040076933291
0.07558290996241679,-0.11259720374224151,-0.009490760157087219,-0.05078793657294661,0.054724136546165036,0.05325524313720531,0.02681206430362515,0.5085675991166723
0.029486626321065357,-0.18371182528695335,-0.059356129572899485,-0.11925762859541394,-0.12277338002459856,-0.10338245940144791,-0.16906991741047175,0.42672371790783326
0.14592503993574174,-0.13185117233143903,0.051020123176758414,0.014576252479350571,0.16767996398049917,0.1691016093337901,0.10841584024816858,0.5383937986815627
0.15907314847900395,-0.09559561438391237,0.07022639379064882,0.01706294688615373,0.15168792256528182,0.21053435869317488,0.15036495651654586,0.39284796390492954
0.09187766951301929,-0.1992159422041253,-0.008643245352775553,-0.05278850621864939,-0.004348364786453396,0.03496310496710536,-0.014184675696186533,0.19004913562224268
0.007778807909603336,-0.27438746772507017,-0.10458502360111638,-0.16736159871143674,-0.17519442325140572,-0.16328482608020334,-0.21657677984677298,0.1101151965059039
0.13433266081887124,-0.17317749419873582,0.04267055614966081,-0.0021364826678439974,0.10749961380276099,0.09598220542374347,0.09118083442189007,0.21855612629112625
0.14726860647587425,-0.15761825547296898,0.04659593005208251,0.006115498506594597,0.10956512092350565,0.1405709376216877,0.045763501934270256,0.31464279914051285
0.07537520768703154,-0.1589905814203134,-0.01248611281576828,-0.08296743739643908,-0.03904344488967412,-0.036185094398640094,-0.07514029073617651,0.42056547850081005
0.001672995093713825,-0.2079486697099024,-0.08529523748422163,-0.16931684275589465,-0.1723874845484233,-0.21456249898905355,-0.2280595280196901,0.3921172837155099
0.1449395710787578,-0.17699285261817227,0.02693308843772363,0.012625783756408548,0.12179092293882957,0.14285822919565344,0.09145298732804008,0.5383410057431168
0.1291764644026126,-0.1940194364496508,0.03656384183999245,-0.04711797234107151,0.009722317231217775,0.0309486064813706,0.019122180491094876,0.48382326688408445
0.05459532163795555,-0.23238316234913037,-0.03949001828380938,-0.10019974165174605,-0.11336262623518406,-0.10274327585187557,-0.10431281392799452,0.44777612943173517
-0.017454812350676863,-0.24752658408559758,-0.13142270186880345,-0.1993733598601648,-0.22769577885907752,-0.2550614921949033,-0.27161435870331035,0.26494785298820933
0.15986222189764787,-0.21210032979604787,0.0729471427882677,0.00743913255766282,0.1212624694212272,0.16789904902108993,0.10135065733935084,0.333299766885434
0.10105633213233994,-0.23417377160571992,0.002290863228587292,-0.056916910965476075,-0.03605745852900391,-0.0031189716756092056,-0.0756834326938502,0.269817012133446
0.041052872501714854,-0.29936949893288173,-0.06104452671137062,-0.14075669144648145,-0.1500904787272827,-0.1421876361656491,-0.14107855122937896,0.20935559666333498
-0.037969929443970846,-0.26725762265094566,-0.14280586158117348,-0.21346290731234896,-0.26286965746075625,-0.2585744713797942,-0.30324273225092563,0.3467085384399678
0.1878263757411357,-0.17624974285324907,0.08753928153164403,0.044690124875459536,0.1879559121761833,0.19895666451071436,0.15643809865287173,0.6412972443512293
0.08645481779040198,-0.2175454322640303,0.00821927556038643,-0.03466526531167047,-0.02840215394785059,-0.01334375078784461,-0.07539077090945467,0.4165446831943809
0.030729464218314073,-0.21309358273940082,-0.03585846984494345,-0.11008661530469466,-0.1384662398864187,-0.11193295280866597,-0.15418888822754204,0.4219459170589252
-0.03429342381201905,-0.25068210743348573,-0.12190553952110289,-0.19207608924636993,-0.25164268764679454,-0.2555821411413377,-0.30457985544302224,0.38386171057809965
0.18333736889720365,-0.1877838656723869,0.08025869219532483,0.05263037614095423,0.17374529920168116,0.1885183883948025,0.13374195917838716,0.4342671172277207
0.0639619792467862,-0.23314236808534033,-0.0393069354163782,-0.075455727437933,-0.0545055479313474,-0.04145161626344124,-0.09472110970975245,0.27118576752502405
0.021251516014806848,-0.2606048513072888,-0.07591183711257427,-0.13461172764188561,-0.16779297174299274,-0.137253606225933,-0.1779386126769412,0.069284916242494
-0.04028778544252415,-0.27404881382309726,-0.1279549742593234,-0.2199483615463857,-0.28510148785510375,-0.24486154130562018,-0.3102842504140669,0.09530531104951195
0.16648455306693904,-0.18352206334375415,0.06882540268628384,0.046325260570658666,0.145932999450317,0.15858983563304657,0.13624011745762354,0.2956999940283405
0.06521308871434622,-0.17823739239786437,-0.052500146720827146,-0.10185190775297598,-0.09949964746821904,-0.08460010382923827,-0.11810271112310022,0.3410673579268705
0.042433705291424095,-0.17396824277287412,-0.05661934750858705,-0.10900651288097185,-0.15799763781680368,-0.13259191492082967,-0.16736050410411282,0.31924844196482005
-0.0015532187484357252,-0.1811374534186252,-0.09985757908791543,-0.16246176249660887,-0.2080807335166648,-0.2036912836622949,-0.250516159590946,0.21419199051539434
0.1623707388802115,-0.15775466629041793,0.09041107648288793,0.03924189145507523,0.17918677668894895,0.1906475126396729,0.200108976998621,0.38729555825282924
0.052062466955162534,-0.20864834365757803,-0.019865991601573763,-0.0855968974962586,-0.09647464524495136,-0.06702520432696712,-0.11900178630767322,0.3026846365690258
0.029366886566848216,-0.19596205321428997,-0.0668248699843419,-0.11825767038681895,-0.20021658337322312,-0.1785277500219654,-0.20565122243355707,0.11831971661300261
0.0052784307024587585,-0.17125920133428124,-0.062199012365404205,-0.1650422320863757,-0.23609968925866487,-0.20083210632991183,-0.26911271017898797,-0.06084586118989643
0.16306204295396334,-0.08887972768219504,0.11743722568874698,0.019137057466083573,0.15046256816941006,0.14944725507469842,0.09126270323242275,-0.07192525986532608
0.0501904267125744,-0.0718445736961239,-0.006726083180151832,-0.10449358712819251,-0.12053336754134095,-0.14457394455199318,-0.180812358470348,-0.027988060785087032
0.01776524351764902,-0.06453045312740524,-0.0426258273893913,-0.13257723421423284,-0.21817532507129325,-0.1934154695782884,-0.2637033650134707,0.08389724284456168
0.005267258501953087,-0.12504222070073243,-0.0770791850894581,-0.13100147994500477,-0.19072041878387694,-0.15289789589142008,-0.21970817046063248,0.10743418872851496
0.16423740727872488,-0.07130580040599957,0.08634488707554283,0.013961312464735698,0.10007544343475783,0.11481958198061565,0.12025405623955204,0.4733502061834127
0.009769621766791636,-0.1501774498733484,-0.06591209188563146,-0.1472688721778882,-0.21721495916573164,-0.16868282964764195,-0.2029897523919375,0.22197717591509286
-0.03869244817372841,-0.16883025858425432,-0.11702219037383321,-0.18910492983763388,-0.3067337079834487,-0.2805681412521636,-0.3013706414096673,0.22756931617098358
0.005564921929426231,-0.16427058091308816,-0.08465733702922229,-0.16884467064184028,-0.2229275164108632,-0.16126969741242927,-0.21011942213891932,0.2858561097853449
0.09632083289253271,-0.1688067111830018,0.016982838488994234,-0.054018727228511476,0.018049834619494942,0.031126885225203238,-0.003424589340033979,0.264129310202044
0.013926280979734973,-0.2533404246483891,-0.10071736406837956,-0.16275020594189776,-0.23577246193484214,-0.2056398881819441,-0.2116826056972297,0.052371476132452854
-0.039007779145426386,-0.21248894787017616,-0.12199866334233439,-0.1860471683381535,-0.26891510552879017,-0.26626089172324413,-0.3019537520880827,0.01474998551956358
0.07625240593731869,-0.18274820786900522,-3.4356215647229904E-4,-0.07761870969808804,7.151092640337586E-4,0.06460648719944856,0.027647296613400374,0.17699836441392536
0.07308171142635408,-0.13865848842635575,-0.025521161957283767,-0.05663976457986347,0.009225340783964475,0.04797801809270391,-0.031153212933028862,0.3482557878710343
0.017752634371233866,-0.19344786080828882,-0.08072775590530806,-0.14649792307627335,-0.1417231401881527,-0.11178862960583755,-0.1618303394483835,0.26756023484556746
-0.05099649401758416,-0.20438305094752945,-0.14462487711036454,-0.20477996337084675,-0.23016211530620415,-0.21973670879935525,-0.25322215318769525,0.3219515354967804
0.13919233911958837,-0.11833933428528971,0.06342304010736477,-0.008698113130479024,0.2151625637980808,0.2315612960894431,0.19981044277471932,0.48789469407940605
0.05533752857331639,-0.14488342332126788,-0.04422185281440677,-0.09296258101075816,-0.012805001376440028,0.04396062985327781,0.019631612279305655,0.3800212473228814
0.02042874915140927,-0.1789781182945593,-0.08355655395223027,-0.13646626959256314,-0.0498499911040326,-0.05652401370967336,-0.11896600938175744,0.22197250367733418
-0.0011568153723775787,-0.21983387295945497,-0.10602627721109409,-0.16992504530986002,-0.12739810064547766,-0.07828428324576536,-0.12082245984443685,0.15761813477261738
