-0.018757283113903095,-0.02291650096777672,-0.04810159677700338,-0.05930089870560047,0.005451394301211756,-0.003373282873679005,-0.009037202634768314,-0.06681515603928695
-0.019960614433113633,-0.046081890191756604,-0.050669938449227854,-0.06033160552358952,-0.0013923555817512408,-0.0029618462550345484,0.009776313429687327,-0.0916636576940171
-0.003900642466038807,-0.007805504086943445,-0.038417197269554185,-0.05021523890726428,0.02628029322379619,0.019209928559379197,0.03659442116269374,-0.05140227097318728
-0.012547745738488832,-0.0037039635314113774,-0.04303033627602311,-0.05940813279182948,0.020846889377781057,0.018543004068461058,0.032155950439851685,-0.06324340103036336
-0.022976425055022825,-0.029204674688529643,-0.05319177273904037,-0.07559628323747546,0.01774351683237137,0.01607397929106286,0.03672665861697691,-0.0626973690830378
-0.034705778061254425,-0.04249034061019661,-0.06385781137992924,-0.07719596669245259,0.016713033016678952,0.013932634959873383,0.03838297483724813,-0.07399725107687621
-0.032064579098988924,-0.05529687903758903,-0.0601076036765837,-0.06675615440750234,0.00788480203878279,0.02251576584428379,0.0394306458307869,-0.042170747235824965
-0.010193912394022623,-0.0070040934514852115,-0.0464426052251889,-0.06261099044707352,0.021953361255505118,0.04365102056565687,0.06564997453902344,-0.012732329887619248
-0.018830666234464215,-0.0063202979425631715,-0.03908175068327989,-0.05941054299673851,0.023196709222965656,0.02895161407676964,0.062482980765038644,-0.04200603525014665
-0.013420836963233288,-0.0013236086076540271,-0.034133961044747675,-0.049347858583456944,0.021101709010293204,0.03488736811915623,0.07875290262667214,-0.04717125596167112
-0.020039546148745483,-0.023396002573608833,-0.040810989793427975,-0.04942025148252939,0.02026460886833455,0.03284186844833961,0.06975387216654716,-0.07237858149110346
-0.001012950408331955,0.01576591889767005,-0.029169068166079126,-0.0339038802166967,0.02508528215762697,0.058085440495802,0.08795547521465612,-0.07630080753754724
0.0034084035816939677,0.023472747945556805,-0.02514950776336428,-0.03430763979096592,0.03132581505050164,0.055162599163674005,0.0957505917172802,-0.06106590157382543
9.798568892460994E-4,0.029918324453831125,-0.023431814943846063,-0.02345029927682157,0.018769405399883015,0.0483029525862233,0.09345522222584907,-0.0449690877769828
3.0937729846553007E-4,0.016393426641549247,-0.028568740102979155,-0.03187454604892533,0.024523679205432202,0.05955748497984409,0.09332824984070107,-0.08143937582092992
-0.02462807369654506,-0.04831509606879123,-0.04632115956476807,-0.0537744944694866,0.027113891139330007,0.05100230655387416,0.08637983656125842,-0.07302175831796612
1.9192775949007827E-4,9.255990827753616E-4,-0.02634412735916751,-0.036264765868513085,0.029126490207742883,0.06371160454570535,0.11609135895524138,-0.06675129769052504
0.0016654386160615293,0.008519433342963786,-0.02263021976171971,-0.025271580836282722,0.02841553804417344,0.06816811497643104,0.1018217839390106,-0.08164047799365615
0.0028679601364264354,0.017809589975530032,-0.023095556223022916,-0.022143361916424308,0.017796123882521706,0.05258040593179725,0.10603363287077411,-0.07399228478014452
-0.00678139621806781,0.003770043884479188,-0.02033610914344772,-0.013132756829580226,0.02232839902169725,0.05870769358080834,0.08851745850463488,-0.10051227346074995
0.011538345130668298,0.02555360761769704,-0.005425001002968307,-9.773898220496494E-4,0.01847611599377949,0.05904880227091172,0.1060396668585466,-0.11524013873822098
0.016708053734958497,0.03821216936770685,-0.00268179612040809,-0.002579658833727405,0.03213699671409501,0.053502678325737955,0.10650455826710309,-0.09359181021339316
0.002581344879166034,0.022869974490764684,-0.01195872041075172,-5.53501745404473E-4,0.028912546982848997,0.05163276865172668,0.08633501392670277,-0.11567280917344015
0.005944791048412888,0.014441332906499234,-0.005947635223330779,-0.004278655020767577,0.012425953448951444,0.055082608341538886,0.09312397686032065,-0.08438987067681164
0.007548552531537444,0.013028417848575445,-0.010908110141474855,-0.001821235680520311,0.014978331664846276,0.056188706670972755,0.10025537479595034,-0.10652938921595405
0.023876906615984704,0.05510505062614705,0.008637850961945802,0.017892689907986942,0.03198616966749568,0.068242204270738,0.11012402939388653,-0.10173517032692046
0.024536599138398625,0.05940154988618187,0.01681208148834865,0.02595623523800414,0.025404928976921093,0.05551500063248182,0.08521663784280886,-0.10689685680901714
0.019745108268833782,0.056658520292464,0.016873712521787678,0.027571317519092396,0.018795063853679538,0.04566070147482432,0.08511510167098,-0.11779253798763029
0.011561141594543939,0.03022273364552401,0.00806403500697798,0.01269796894207819,0.02016042852243882,0.04622128977439709,0.08267520000279556,-0.12193437973699997
0.032632998606248555,0.06692315798349815,0.02389651581334048,0.029284155771862136,0.027084370803958275,0.04561559181315168,0.09538293461481397,-0.135166086204745
0.026793257561534816,0.05296735362028125,0.0195107176698747,0.01206921581326716,0.01760263637965673,0.05086755008511606,0.08135671301599068,-0.11406024909599563
0.023425584355998293,0.05956696297230358,0.019469452811051027,0.015849454093511153,0.015206496161196683,0.04371263374317687,0.08372922866168613,-0.13282353103298827
0.011051912070913248,0.02699063870936488,0.004752828080576887,0.00837692591113277,0.013012291343949154,0.037330833394916864,0.07032517009701715,-0.1441381977402538
0.0032958101341208435,-0.006000210238273838,-0.011171127601983341,-0.006891575721510528,0.02905552008385124,0.036867163675267996,0.07114752520434683,-0.10830119835923718
0.008579595368427204,0.010785197670231691,-0.009769743110027016,-0.00150907988430485,0.04706996413597563,0.05529074166872389,0.0907624056583644,-0.07408720835993804
0.008979722064709527,0.00813140596800672,-0.011922614698815538,-0.015592320027880852,0.03680077454100165,0.0502967094248308,0.08692550501968277,-0.11213593478114386
0.00609174371173925,0.002093310113900651,-0.007651652374726258,-0.0021302405168011794,0.03701877538435409,0.05549656491643664,0.0775393722913648,-0.1113462284072262
0.00583241399231598,-0.0033927562091933985,-0.0121153804219713,-0.007263407585266653,0.026220273969626895,0.05502238457104229,0.0778800373268545,-0.11829690995187021
0.021900366923544034,0.02997567689480745,-6.731600007149678E-4,-0.00234159267455352,0.049281631929948715,0.08037105872234822,0.10088678157545101,-0.1032880659221748
0.02019322395680705,0.02974813065012291,-0.0017903152626596898,-0.008197401119593896,0.03910814139698923,0.06479398830423894,0.0864489478245197,-0.09930407064992844
0.017082186053000565,0.026406432192619483,0.0035231215524672062,-8.464659453531751E-4,0.05225498429479028,0.053094487852339035,0.08147644855778238,-0.10528001946502662
0.017363348928330618,0.027474640733664502,0.0021766239721257357,0.0017710327622131761,0.037445812429481515,0.052241900780162644,0.08049953166070416,-0.1164616354197402
0.0274220263022574,0.05748020028620195,0.009929544294349722,0.008865514127582684,0.06146646562977689,0.06043062778606129,0.08332006897507296,-0.08789933084756375
0.034411954886158266,0.06728687373319951,0.015901845018142888,0.003845146391141189,0.05596773807687291,0.06272115790691843,0.0873818498359393,-0.10631292076226942
0.02689941765217036,0.06991307449965786,0.011311297226479765,0.008290795245688804,0.06211002106076325,0.06073341330363333,0.07922476720033184,-0.08627045546316824
0.03375770342851593,0.060729688558988346,0.007006581155069489,0.0033333512296842087,0.05158897919817472,0.04213933926539392,0.0629215159858977,-0.12739329032004482
0.020570623287803427,0.037164622846045395,-0.0026186758868894907,-0.017815389204175976,0.037558740244411956,0.05004147023405319,0.0847645728794756,-0.10994744324069443
0.007893295068684674,0.01804462861661008,-0.016581137036733445,-0.03669602778952983,0.05149589736902849,0.05396863766138778,0.0772474908686295,-0.11256146258074826
-0.0034245428915482055,0.01435485035108405,-0.026563059200231717,-0.039059630413855434,0.04303149594050515,0.04044032176612569,0.06868147374768518,-0.10228525451045503
-0.003114907881031156,-0.00251512042974462,-0.02769842133425225,-0.042241521934133615,0.039875432807533966,0.05252311812821804,0.06598172876724043,-0.12155295832123403
5.770652149585998E-4,0.0025424202491147454,-0.02285859903963384,-0.03530881694740638,0.039578090360962846,0.047175390179469666,0.07403741924439294,-0.11489596558075711
0.011913579365493471,0.04075468786622739,-0.00913867919836944,-0.023473815469734243,0.04840130864655639,0.05282512512070653,0.09158956917069591,-0.08603388658982337
0.012462645219399163,0.04614138971238303,-0.013838209095908629,-0.02687823889043767,0.0453023131903245,0.05340112089387135,0.06115986807700284,-0.09555123895755283
0.022188102184080755,0.04665869317358655,-0.012833348404715117,-0.024364684116957438,0.04499394636099216,0.041988139836650375,0.0593425317677002,-0.1171450253529713
0.011381213634859283,0.028566815328223766,-0.01880910709967212,-0.03405181478486028,0.036944286196017063,0.0341888482576403,0.04846610176902363,-0.11557927086271443
0.021396514093468336,0.049783941255214764,-0.007957978848925757,-0.02494377351920796,0.03562626787772885,0.043457573758719635,0.060631904513988914,-0.14503847651313548
0.015558101699831501,0.06280181574843179,-0.006232786929818642,-0.02367301678557887,0.041907746923025374,0.03984641706605838,0.05078663983993567,-0.10577134808265405
0.016848930264985813,0.05154561602972247,-0.013891826864245534,-0.032376346110846325,0.040828094979315575,0.03387346957446634,0.03570126969774081,-0.10021898117758984
0.01837375295520392,0.05115698601051359,-0.01625282490323935,-0.03613658151227332,0.02978274936035658,0.02328042072837377,0.03231691869613055,-0.1162344814473768
0.013463570264756392,0.04854047239934243,-0.014417694468711613,-0.026904829184058246,0.029190588519117,0.014356515715411135,0.036034779106717596,-0.12831464515339688
0.025146082893197506,0.06010634146534873,-0.009221300103557309,-0.037980212009361566,0.04245064801840932,0.0314406160973086,0.0480983622016792,-0.10389764585125419
0.024861166823475788,0.06849698438525106,-0.011903458787818233,-0.03380125345936451,0.03803996677105731,0.02142731348711743,0.03964149674915887,-0.09546201622736586
0.029215927889627135,0.08730164294340252,-0.0014208328818562193,-0.022410397959233483,0.036920079558962135,0.024277022196088207,0.04386364699490985,-0.09864759486903639
0.03294735411075138,0.08821533054891048,0.008780004043647172,-0.015245044754197645,0.02956873958513284,0.017974179883478564,0.04167142194147954,-0.09513726634737903
0.03945204244432044,0.09565614624351637,0.012387873671632795,-0.0038318573902622623,0.04219432636395805,0.02868052948424129,0.04310590800785105,-0.11695640133137081
0.04598727142197216,0.11115748631587218,0.012642600742156456,-0.008711767585170857,0.03359436232463461,0.03452953872134674,0.04749136996252272,-0.08530358772040615
0.034495207587697606,0.09220688588839888,-7.018350489156657E-4,-0.030918905416082252,0.028862340586092033,0.028936441487703003,0.04201214649851398,-0.08426409335633164
0.026289574307042186,0.05998038321081934,-0.014299539091562879,-0.036511951644462796,0.03223693953438006,0.03073650200373976,0.04345656663850463,-0.09826617782562701
0.020121513011349044,0.04310398059383931,-0.019133315939082463,-0.03757437841159296,0.030093314285100797,0.0201102829407269,0.04327151639097057,-0.10178815158149968
0.023855413059527784,0.04729686564282544,-0.020076514520008942,-0.047916533794540354,0.03797390909979006,0.0346955651085187,0.05592878030644428,-0.06529257963894933
0.002679244740434175,0.02002251368649953,-0.038920196167040094,-0.06357413515272868,0.04075770073505153,0.03526816168754173,0.05434482939493126,-0.060818240486272254
-0.0049111832954074446,0.008203333326798352,-0.045333465330614824,-0.06820785169998021,0.040898337589126185,0.03520711292541242,0.06366704492350198,-0.07686600839909338
-0.0021572217166887916,0.006606742664360774,-0.04295061658520211,-0.06786136230163498,0.0407358411120133,0.044906443025517516,0.05033034637500615,-0.08955475507460887
-0.003677770793905459,-0.010466951102945267,-0.04718727687388744,-0.06344574929527813,0.03717034718262045,0.04320947444883648,0.05985205074010397,-0.1019700476201151
0.0072887293310153825,0.029588511527019003,-0.032531438650332443,-0.0589808137931092,0.04608102242321609,0.05319182450498644,0.0745924131001813,-0.05937257347336945
0.008309221595212003,0.021024425077149595,-0.04381647586856917,-0.05601697071220322,0.034483078083769166,0.04545986251750773,0.06496660878821206,-0.08796479746416709
4.358571303835419E-4,0.022086760883769575,-0.03913099236866595,-0.06174664505105603,0.04070332478760925,0.04338515470299429,0.06409467574953082,-0.10027437154134755
-0.004027810965827279,0.020217620490505017,-0.036112509965085846,-0.053830190781027305,0.033241618475461664,0.0397527650047105,0.056901806902075004,-0.09212068305346587
0.010770139367550531,0.03533291480873622,-0.025286823104816232,-0.04378698965806885,0.03928789643227435,0.0523409254737079,0.06861589057981216,-0.08395379711310876
0.01858729990086899,0.06548245292167906,-0.02037045085841551,-0.031780292130729366,0.05402646478183779,0.06609228748513259,0.07706510811491589,-0.06191738540329279
0.01622176273624443,0.04823968526654667,-0.020190368368005737,-0.03541363473102347,0.05447577500300663,0.061581250780787584,0.07543970606524103,-0.06773996723876453
-0.006764920959465325,0.0035499523555105714,-0.03318265162265315,-0.055546811429505,0.042238903690245896,0.04581715064166079,0.06306934014713604,-0.09370543918846798
-0.01077425081293448,-0.010429648803170679,-0.04143334530194654,-0.05349314997445223,0.028286458873396758,0.04535742879745807,0.06600269911120693,-0.10946043897786116
0.010963754933269763,0.024397089521140107,-0.024152873146690006,-0.03892209859138551,0.04684758389575707,0.047320136753556265,0.0742175990257824,-0.0941533539831655
0.001980954874442694,0.024826316681409274,-0.028403222435451802,-0.04119415453433252,0.037691181572504985,0.050754595146137386,0.07085628487228916,-0.09615436586825366
0.012048933603141425,0.025566199175131935,-0.02503212212890013,-0.03396464634370886,0.04354219521456597,0.04319249281285783,0.07212998129352974,-0.09455466129172431
0.0033082237552605974,0.011297687469297154,-0.02634201411833349,-0.029692499551043708,0.03501769142267351,0.03651375450881203,0.05348587137873358,-0.10737596154966654
0.004369942087051665,0.00975235705548112,-0.029700703488325146,-0.03163667324779693,0.047474566728857,0.04076840681569341,0.08354115479007328,-0.09469404529106035
-0.009080853581839738,0.002000530013623422,-0.04067170663761098,-0.04638523087543593,0.04290215782706281,0.04985208962362754,0.06896041062419707,-0.08504546993651242
-0.012819872295384315,-0.020113897002977072,-0.044430098468460674,-0.047792122514591646,0.028709565143523595,0.04267215477309835,0.06349888631430786,-0.1100888907074532
-0.023687039899661245,-0.029800854813893232,-0.04991521448649256,-0.0612026742010056,0.04597048161167733,0.04686326073931162,0.07366563417072293,-0.11254211077226935
-0.02928136460205213,-0.03977110311907199,-0.05106626540791194,-0.04959576980942039,0.03862238892753998,0.03565577924006856,0.07818389570783632,-0.1245711710866983
-0.006230967761271076,0.002822876798476238,-0.03880560360050916,-0.03988733339612402,0.045824838059243624,0.05653803854471042,0.09660630094618913,-0.09318359882693396
-0.005154649781363892,9.351347391170914E-4,-0.03907902586157202,-0.04018211624811526,0.0375706618671737,0.059995540127216716,0.08107921492950314,-0.09993542512371738
-0.021667415259444378,-0.0012955571910195896,-0.03958424513631986,-0.04102631957855076,0.03982535713113912,0.04345663056204811,0.06947791551686334,-0.11625442762761885
-0.014282486094597993,-0.022551588925948707,-0.04171567388599134,-0.03787924860895501,0.02645669185278624,0.03637945012345671,0.05746158845470958,-0.14275491896960324
0.0052534940335699715,0.011805242532971875,-0.024086051025800033,-0.032952267060487504,0.03975680558769685,0.04763752956016881,0.06910259062962613,-0.10403996920374796
-0.007806350689046612,0.008472220627062228,-0.031138650108622507,-0.03449137876944464,0.03991856810676015,0.033692729239027136,0.06164435878514655,-0.09468891157734785
-0.006155104815318045,0.006700350045744036,-0.03202036996901683,-0.03692336548803063,0.041676864054763646,0.030925627434335804,0.05358342841906402,-0.11457907071060482
-0.010023993459354594,-1.827480706483639E-4,-0.03252931030003782,-0.029818569100797852,0.028857703908610352,0.025664515614382436,0.04405154233364674,-0.13512567230147632
0.004237429527978162,0.014611753478633098,-0.020298967461056704,-0.017701934196021257,0.047589866642486385,0.03889648388613825,0.04957707445412425,-0.103662421814061
0.006466520565495239,0.0395539415055528,-0.0157510078904031,-0.009830499027877929,0.05232579759186677,0.0392371932977837,0.04648568818466332,-0.09750301226846927
0.011579428568208854,0.03402964573337116,-0.01215955570145283,-0.01204783489280352,0.04219375884762376,0.02396187545547039,0.06016706102336661,-0.1270132745189478
0.0036263145290372947,0.025519729451334797,-0.013889775859164108,-0.0122714226676595,0.03487926725900483,0.020005253924902062,0.04377623851876076,-0.11259957064022144
0.014271096331216917,0.023054970716586742,-0.0074522040589358905,-0.0025296946050803845,0.038112975746744784,0.022369100208349903,0.03485479491575859,-0.1276047230062417
0.020228276139780024,0.050150147656048694,-0.001155500732616148,-0.003949513974292925,0.04837496605113234,0.02525365361571695,0.03848687784165098,-0.085295372701962
0.006028149202438312,0.016423159329003487,-0.019894425258058915,-0.016461641962240012,0.0269264707127027,0.014919959047037886,0.023419422887327374,-0.12314190203879431
-0.005888252086825806,-0.01364916518765294,-0.029497841649782985,-0.03854834893094923,0.02489120262085399,-0.005325538935922334,0.0031502601611567735,-0.1222328103372784
-0.008107376514571569,-0.02344440977681165,-0.039740288221514236,-0.03481303746857387,0.02276553313098246,-2.475357320785362E-4,0.01206364353312939,-0.14900306822148782
0.013123057699862911,0.018644493571310136,-0.02220271297962834,-0.028207858500799605,0.04288392070767381,0.02359224398850518,0.022925059368912308,-0.10403487062921088
0.007163459859055317,0.014704935362778454,-0.024001790838271354,-0.027952243640256332,0.04065672165340687,0.005315862541995887,0.006479692436321913,-0.10368767987851878
-3.685782744201262E-4,-0.01302498757001975,-0.027677575359842964,-0.03639248800499353,0.03280167857139536,-0.001624098220282203,0.006767851023147117,-0.11692041541314546
-0.0078028370800853775,-0.021501304598994127,-0.03877563447708936,-0.03590201864891049,0.028109420645000306,2.2806196582840862E-4,0.0020250968790092275,-0.1248427479586238
0.004105288125487774,0.011452065843757384,-0.03022681508801373,-0.02783227015897621,0.05390589796874535,0.007268569054590065,0.010024616167034909,-0.09920338693363771
1.6860099056859352E-4,-0.006697387729171468,-0.03177443464914335,-0.040653241254078966,0.04992375064041332,0.008833081408225665,0.0011077052219351455,-0.10327523041380168
0.008695884089333639,0.009608283782231341,-0.02832450426714435,-0.027815400262993558,0.04676749918986175,0.006585998495718191,0.006945779564063728,-0.08011502677106293
0.0015194328232772958,0.007335799357541198,-0.02770474813387483,-0.027612475589864023,0.05379901605239406,0.010808082172093704,0.006233440647239723,-0.11001355927886693
0.017476669399516972,0.03119635033259929,-0.019101221003633713,-0.018936445526381372,0.06644594702579847,0.0219528109413575,0.014556049582251434,-0.06625155148533567
0.014336822619596479,0.03364918203144632,-0.017479395332803942,-0.031112437457800856,0.06754167465052806,0.014587940220519343,0.007646262898634041,-0.05652569722516793
-6.633688066912748E-4,0.014688583532928479,-0.026907583928395793,-0.03624024088440083,0.04608152982000117,-0.010225743146233826,-0.008171774560031929,-0.0643645555021483
-0.004554088777177363,-0.006326743579643688,-0.0363854349814757,-0.04430344565018906,0.04395604892651546,-0.007630666287571432,-0.015544377458821817,-0.09731982052406189
0.004311082899334823,0.008615925237569395,-0.02726722634317332,-0.04163139041612936,0.05268084101612706,0.0033713393730399705,-0.0035521275513214546,-0.09029708259572335
0.007891625392797152,0.019675337594518005,-0.02812267436849294,-0.04266040831532259,0.05507000515961228,0.004049407644169539,-0.009426102987121075,-0.06932387635671859
0.008681336398371205,0.02724565549805722,-0.02445503066841759,-0.04021882630985361,0.056772985714704696,0.0073768021996754194,-0.008151862360435592,-0.08625588184355083
0.006912728284554465,0.024312446912492396,-0.028958070228185306,-0.04055616758968255,0.055340211454598644,-2.9671482399357726E-4,-0.014534831557133587,-0.05902978828739076
0.009162202628294858,0.02947547085549629,-0.018852577376062326,-0.03471771022069401,0.071271376176194,3.736646554238263E-4,-0.00656956772219649,-0.058534977512537174
0.020233214463959027,0.0555295813096523,-0.014459009743576556,-0.03301282416463724,0.07172216274243512,0.004299502099467741,0.0014861360359424906,-0.040784702754906706
0.016277402297804777,0.04792140662070937,-0.01661776592080936,-0.03301292582687006,0.06561007676040159,-6.028107709762195E-4,-0.008083305047104097,-0.07144090096446074
2.6501097806181035E-4,0.03012085861088071,-0.02941429491319921,-0.054257757868842675,0.0377563361637532,-0.02287823112198847,-0.02325505406263632,-0.08821751367998429
0.0018351281836283923,0.016917152956329826,-0.03375329937374789,-0.04837340379386146,0.043975359879232255,-0.01704431435429244,-0.016203766694183195,-0.07995395023446569
0.011489809560994154,0.03914781054876477,-0.026170482097288603,-0.044168322600013375,0.04997777278628872,-0.004162080847741945,0.004273991772720196,-0.05020437214171521
0.00883932492877681,0.03965694522678356,-0.0309663879780705,-0.0477559819001952,0.05284415097501337,-0.006989988043837312,-0.0028765470488151612,-0.04033425244359882
0.0014600454865624033,0.035949349175695026,-0.027599758360087948,-0.051148511662577036,0.04857537977176871,-0.015058271975533928,-0.016868788604855814,-0.0633612697824897
-0.007013299491129874,0.0165762076453192,-0.03518537319360838,-0.053948661660359866,0.05165432075908307,-0.011676468998862806,-0.018752731811182463,-0.06445047364057081
0.008938131807551887,0.032307431474835904,-0.02693146793764209,-0.05048297967054565,0.05005380228757431,-0.004204457329907525,-0.011276124798148752,-0.07793106070661765
0.00381091823675304,0.045079392162382485,-0.031263422740904476,-0.04341346331184128,0.044974311539054526,-0.00991267954236576,-0.018030782345536633,-0.0715135021437239
-0.0020810487783973815,0.033612090117441776,-0.027105150370052917,-0.052462509267867066,0.05685844123992214,-0.00814794845004239,-0.01960067045913373,-0.07379326481275884
-0.0015831877841245992,0.025775955731754573,-0.03592052963525286,-0.04930364280650027,0.04719933294083126,-0.005211011520683569,-0.007553020497965714,-0.019064816959739286
-0.005895826420630164,0.02166341513574868,-0.029298233288169863,-0.04219005153502646,0.038191217142550686,0.012302996844067502,0.012100939354411065,-0.05471609758874636
0.011835238352648879,0.05396608231397387,-0.012485913307810893,-0.037352035089863435,0.05866255780660039,0.027671644939949232,0.03676560562168364,0.0030051957893194353
0.0027063124448653505,0.044100388462721636,-0.015541908199038232,-0.03156098782272018,0.05078104579468271,0.026509922568557782,0.02512451054601535,-0.0067939722955056734
0.009657157660094638,0.051489483751634486,-0.021258687953880136,-0.026701357418349277,0.06635595152454443,0.023478582141128548,0.02426281568967417,-0.01804292826034174
0.005990125220729506,0.03809730713509323,-0.01718433124152063,-0.02684739055260879,0.05547798059332326,0.022464906497563043,0.044077042907172036,-8.384429079529088E-4
0.02031429483986624,0.07134579397315453,-0.004160249829784998,-0.015399656669149143,0.057622998775207386,0.04327241854531674,0.052411585590615754,0.0021726694672275604
0.015215262160001923,0.07844376729874349,-0.0016718101127181633,-0.012311085845864812,0.06692018947478272,0.035187932810090965,0.03861666197771406,-0.038087400217806586
0.022472049714671944,0.08923549263571837,0.0038447268152480363,-0.00987314849673059,0.06124522624636687,0.0363081003978209,0.04883223990266595,-0.013049339094703707
0.02038048796677134,0.08613940085274532,8.197114788339339E-4,-0.0020801677247451033,0.06302356144983355,0.05174006612244583,0.05470986119634931,0.0029693770058065866
0.019773311439816834,0.07125329499363371,0.0017606396553467769,-0.012493147411817744,0.06733443494390863,0.04492659132686538,0.05267540762515102,-0.005972634781566853
0.021316404860493594,0.07389567391549742,0.002301254410461803,3.523670480059756E-4,0.06634072121892069,0.0594913247027458,0.07393363906362148,0.020448120922050693
0.017481687545996313,0.07300263953814576,-0.0035123996568193682,-0.010628834606042345,0.07007749242136507,0.0524573172396622,0.07713690990784465,0.007770411127406463
0.01257770314251491,0.06825121767819668,-6.647675402424864E-4,-0.010137956007925665,0.06477750856443439,0.0510423823985746,0.07014784460374039,0.007511440196343088
0.014207304944166213,0.06214455178861011,-0.007717034610536562,-0.010445293978313588,0.05703075530395142,0.05645963278730459,0.06498064189547528,-3.933288796763381E-4
0.025260186279383,0.0905248416312774,0.00760853100320425,-0.0039152617645949375,0.07023975234299748,0.06388469201472922,0.09576086720748903,0.02391157364899666
0.0240126535334952,0.09392302858532844,0.006347635674365959,-0.0014554949896786167,0.07229899139060318,0.059455666858834536,0.08523929075772416,0.027908985161569085
0.026886384941085483,0.09806131589636195,0.009870729231556626,0.0012915638418809453,0.0630694623588907,0.06106135465634859,0.08157480208389696,0.01363975652093635
0.009593100100129284,0.06079000262797724,-0.006447992067520372,-0.013710387497041497,0.05869949877559444,0.047661342704642215,0.07178951068168746,-0.01738670245721862
0.008810728503378646,0.054878675897936456,-0.00783717567635782,-0.01378932976203877,0.060740397335451744,0.051962849875908546,0.08009827304374002,0.005773063146613468
0.012452608698629327,0.06895353256226554,-0.004187662893726915,-0.016391429848995612,0.07725615765510993,0.058353639488071436,0.08413197997539144,0.016452524899489326
0.008028051202994425,0.04762354907088266,-0.016960643721020848,-0.020584591579348756,0.05974638668944329,0.05283392625053715,0.0865254571515131,0.0014689617449415852
-0.0012118339160253706,0.04010328774920871,-0.019007470930144293,-0.024318799902200795,0.054087088519092476,0.06273742004336476,0.07046361623269848,-0.014701596475332234
-0.0016420909662233573,0.01823000748538331,-0.022388932341867895,-0.02653297206620871,0.05659757210667899,0.043818777235253535,0.07124964705495883,-0.011437624929168225
0.01012935851494981,0.06581407624006681,-0.0076191773025937005,-0.02258047169503086,0.07244683621842998,0.05308664931001144,0.08496764537249851,0.014090106938872615
0.010683165691897445,0.07096812877689865,-0.0038527047264011217,-0.013066254904136697,0.08137789891917371,0.05520084826127617,0.08767013096382396,0.02971133246113058
0.01570811521791528,0.07270628978128739,-0.0011666786418227763,-0.011969083033071997,0.08125889033735345,0.05632816921630532,0.07587808472634436,0.03081163343318462
0.013009401926646614,0.06401940849554684,-0.007206034383212193,-0.017502456797559802,0.06247667236275891,0.043331365189808874,0.064330505905803,0.007430338205423689
0.028732243690843016,0.08675855251282173,0.009455735040966603,-0.0013483021824649988,0.08642366467755305,0.054058106196094254,0.07411165844151195,0.014874805525331141
0.01826722528018376,0.0968469881924044,0.005196512110313797,2.8215325437160185E-4,0.06240516909214136,0.05062346171890088,0.06773918784976768,0.025816396209751836
0.02334270505835555,0.07976511631909934,-0.0012086867032656465,-0.013853166548075963,0.05508757522714333,0.03358456098480648,0.03244992646610936,1.4760337424318319E-4
0.007551800575278739,0.04223504475944796,-0.016741510604540967,-0.02711897056504575,0.039326465800080646,0.017861292628112497,0.0328544377962035,-0.03556536014417285
0.004741521963333543,0.05041193093893267,-0.014132680806948333,-0.01810046374390193,0.04882316748973712,0.02369937703496083,0.045008856482432864,-0.038132964596064085
0.017451076243102423,0.06044051449885878,-0.01086300254619085,-0.018661151165517344,0.06005652480760096,0.02293367530548994,0.03646839641702737,-0.020761734903064502
0.015192590553747881,0.05758949299319482,-0.009203447418282206,-0.01725598608558898,0.05123177992633269,0.0265904324345846,0.03579853549103844,-0.04608318351247271
0.0086050978722471,0.0647921066468188,-0.005612515590069758,-0.01336365002738947,0.061206721098833745,0.026932360138075744,0.04577181730936854,-0.0027285717553482223
0.010298220252459108,0.052404928139223025,-0.008932888589402072,-0.01432858343761862,0.04515027740459966,0.015254788827610083,0.039572375467553746,-0.03265770662050607
0.024199336513632954,0.08480407612113876,0.0034221491008325183,-0.01142762502712453,0.059872149807116394,0.023881911802238597,0.048719121889696015,-0.00822291399388835
0.019299458743470655,0.06835575734464662,-0.00464144408835646,-0.0154874033719192,0.05299455481832078,0.029103703819068263,0.032961839691872774,0.002425523618446186
0.016265397405827626,0.0549561736635323,-0.01379739154566256,-0.019102140763317427,0.04021220349446331,0.01722321571860582,0.030008096570837688,-0.034236697225217445
-0.0019101240379500693,0.02767558338279096,-0.019011175288473067,-0.029433773117348825,0.05111337996117554,0.017687173316943937,0.0348390226909022,-0.03544338123636175
0.016825800871907163,0.05721504764437812,-0.007265748603309511,-0.010127439954567618,0.05729803033848513,0.033548573092455944,0.051807102552026266,-0.0038995161026459486
0.006978881357840919,0.06792594745056213,-0.007586678997056503,-0.00324280545064714,0.06193467457703343,0.038912126072195886,0.05158401906617834,0.00993001814694139
0.011115790387029317,0.065752011409487,-0.005756117367097626,-0.008734289454705226,0.05815110403997622,0.04034865997150715,0.043921559066512975,0.005860958262295346
3.549203909347275E-4,0.0299768443564395,-0.017941256534956426,-0.01801552210867927,0.051016900045709336,0.01852486292542734,0.03701130662924136,-0.020732733492800484
0.007766539002608586,0.04180546669981061,-0.008144063818065487,-0.011936068189125607,0.06176866992872077,0.03686198387829681,0.06260044271119919,-0.01808808733361328
0.02395188901077919,0.07300842286620748,-0.0015461555362564945,0.0017172428365560101,0.06538731615809032,0.036114448906866645,0.06027804414201355,0.004947516082491218
0.020428511121209726,0.08384232114044683,-8.743474096766818E-5,0.0019675093574828308,0.06929805865135312,0.042514080981397494,0.05764747342613493,0.019255277147528987
0.022037049181480223,0.07176971084541849,6.142729353037263E-4,0.002895234229314748,0.0706670973169862,0.04481398539323915,0.06171024546033865,-0.003523567005706947
0.023649242056561704,0.08080510971551322,0.002749237447723219,0.006588089645792757,0.07223695942476041,0.04649707584095316,0.05990636500498859,-0.0011695769976988596
0.024066871243446305,0.08832119180918506,0.009966931740178186,-0.011182949370664913,0.06269810745800458,0.04107061596682283,0.05974824050081656,-0.0017328275440609633
0.014881297971177274,0.06390013917703241,-0.004306556334551802,-0.013345445466738408,0.05393096751426056,0.028695227800788446,0.039843135467850836,-2.3791239855184312E-4
0.0058612827142574,0.0645431065877461,-0.007527666546360912,-0.009936194302585806,0.04349328740802064,0.02537525036679887,0.04053748349205287,-0.014188826528699303
0.008679614342394434,0.05400931806731992,-0.0022896371324551555,-0.011067446518366364,0.04240616349928271,0.025726171669521358,0.04717983671166649,-0.00960928769212921
0.022983607965008274,0.09286521161259337,0.005745517709352739,8.337455952864497E-4,0.05692151701943665,0.022659245942886572,0.052245054284899145,-0.005456651383736582
0.018505110331758935,0.10111548000126927,0.006494248196290809,3.82690848494671E-5,0.04973333155740359,0.018302741726734205,0.032968262728224444,0.011951361915870868
0.016850513855671535,0.08925887792773912,0.004714493253829279,0.004612574040803752,0.05287937962327219,0.024521952820860445,0.03351785292578827,0.003610506463140441
0.01547568572219013,0.07438814748137838,0.0012099475078525665,-0.003398795742442753,0.05255734743730435,0.011134168856771135,0.018228038782987416,-0.003244970199414071
0.019049072227457785,0.07838218156753905,0.003128952878343923,0.003627235479087849,0.04373953412664897,0.02554434108489271,0.03425432426299286,0.0360798769196232
0.011444662227141281,0.06695910344411053,-0.004604099915208766,-0.016810645707905515,0.04166252655538616,0.010201024062616313,0.024654706853451114,0.03937728200277166
0.001801397180787741,0.05827166616685625,-0.010412364861295846,-0.01814624441935832,0.04018200191672652,0.012265345485030374,0.030425912041793665,0.029748891500780167
-0.007426512975480846,0.04518448705135368,-0.015278089486582026,-0.018352848838191577,0.04092178699409167,0.00718404870517748,0.025300151755860992,0.026089830789387952
0.0033654127131513703,0.04629242590605929,-0.012599776412225707,-0.018101581402624557,0.043088697982946185,0.012837901467219403,0.022639231963516554,0.022948765069932268
-0.0010257680847363898,0.06711802402359696,-0.013325320270417156,-0.02366532405228344,0.038283053430814465,0.010084406134805024,0.02122609623680913,0.024940800527863738
0.004838162935752441,0.061280282080366615,-0.011514547600438602,-0.02338106393221183,0.02963306483368319,0.005263482807014528,0.02000622814472366,0.04071647469790276
0.0055346930181569805,0.061909932242784606,-0.009887118750337666,-0.00994818493047093,0.030176486295968644,-0.006510618087334273,0.014766017784641195,0.021587370258451522
-0.0023011547314383623,0.05971068375459079,-0.011843330206232716,-0.010957885323071228,0.03308417050302557,0.0036331308553964937,0.015709726376379518,0.015538296550470175
0.013396035515662,0.081008887610816,-0.007552342978607194,-0.013929150467813026,0.032957071000585196,0.007422803639202446,0.016432356889032235,0.032423971782506396
0.00822596110027879,0.06351710611054437,-0.01876404489542976,-0.021268716069033092,0.027637274635147337,0.0045742381736002076,0.004501437309283272,0.01579336184956239
-0.003119186023792065,0.04800766106939572,-0.025468606824851147,-0.023912037401529657,0.022298331785137956,-0.007265765998048546,0.00385591762847859,0.00449636139899084
-0.0032154082481323214,0.03537018478611847,-0.03151842342363334,-0.02823985429443747,0.01683704298557984,-0.010802376252367723,0.011098430127971752,-0.006023636209016049
0.0037417000084613372,0.07616642980504888,-0.01439233143447111,-0.010653292433839478,0.03819364241060859,0.007843154987156075,0.015413511391690725,0.02075225101209679
0.004081384210700617,0.07162465230820768,-0.010269962125724159,-0.01491548255225795,0.032834301160589066,-0.007937404848626584,0.013754241691133531,0.007175954018726687
0.004086420653782055,0.08052936933082513,-0.015167053003631309,-0.011425481541798177,0.03225318806236342,-0.014756234360641945,5.84509979959959E-4,0.016636426696084606
-0.007593285360654346,0.05778308245744964,-0.0200637178604352,-0.01951291262295894,0.012928180093641722,-0.01210984846976422,7.100411943135437E-4,0.019370804352908746
0.006690660447734136,0.07404111953592918,-0.009817436571091388,-0.014280630910157034,0.03167658513053937,-0.008628776188359673,0.010796605823580838,0.018117832430131094
2.4219591102199564E-4,0.06910556852250169,-0.019445563315268154,-0.02373600373670272,0.024472291293398677,-0.006268589465385231,-0.002386077271494178,0.021533530590104252
-1.2352810918379205E-4,0.04775300418215968,-0.02076448000508263,-0.021600679559652242,0.027072931609208213,-0.017398983822422675,-0.004259627175424807,-0.0010752490294130878
-0.011773567246216789,0.043181179945760546,-0.027668819754454267,-0.02385893635580411,0.021336525920648206,-0.01951763777841628,-0.018403953270276035,0.001390611224468575
-0.00555826194610173,0.04527557372296798,-0.022096437078463926,-0.022605499844787557,0.022052946091330985,-0.006985271042389294,0.007702686049851734,0.005587369895113525
0.004135317898694653,0.0717496868865657,-0.013139431474603547,-0.017094124068521205,0.03072540581087865,-0.010590505518392218,0.010369383135262722,0.021989627439635517
0.003887268855290147,0.05317163164133784,-0.0228163335759642,-0.020971221035777397,0.025805493844377216,0.007431720744642277,0.0032040923520972424,0.04735624478056097
-0.00901867515352047,0.020929896528623128,-0.043748150249999895,-0.0433800793195154,0.020568975706173477,0.0013687101578023872,-0.005593944133210237,0.012541514512430739
-0.0017233818161841833,0.02679651968697895,-0.03936777097475697,-0.03856531823698657,0.019467029775290967,-0.008288492781616865,-0.006981479276671289,-0.0038361035449604496
0.011118847670951323,0.06054433637020193,-0.03213564017514471,-0.04277525793974331,0.024298449513156375,-0.0022156173309986907,0.013651649689083566,0.012065966457666537
0.0035622321180237603,0.04931315854208521,-0.03661446843921137,-0.04453412190195897,0.02592542483146124,-0.016629357601031302,0.001625039606259211,-0.003972219216025872
-0.0014800534885874358,0.028902819958079827,-0.03744030276034074,-0.04901607470180484,0.013524801455211774,-0.014230695133159216,-0.003958926319458536,-0.012342118678012338
-0.006299741238098991,0.031109535285489563,-0.041119684238176954,-0.04374395222822595,0.015410153038235992,-0.017065769151897073,0.0044466198093220605,-0.017784548412119412
0.014601556430742277,0.07085585856997483,-0.02485136726662631,-0.03432098905268549,0.02507787817005548,-0.004379714878337637,6.822683771446971E-4,-6.307400991911852E-4
0.002081988191108817,0.062008174565478316,-0.021737358693448856,-0.03575198480835578,0.018474361871218672,-0.02170705755811607,-4.864008777732915E-5,0.020382822918807664
-0.005013623291229902,0.06400987458213164,-0.025379036896181886,-0.03708950812639042,0.014586727143924033,-0.014966864121155284,-0.005239230128511292,2.785570055046763E-4
-0.006020492467556034,0.0503425823310124,-0.03531861015347392,-0.037906803318755816,0.008921100687017949,-0.013755338612086016,-0.010558965415591166,-0.024121167579426644
0.004910994094348285,0.08039862362483464,-0.020953976658259075,-0.02065843614998832,0.026559197246935343,-0.0057757867707244,0.004569131010079635,-0.011365819049357807
3.328335209757953E-4,0.06143496147564821,-0.03377422816985544,-0.032228839777220804,0.019274221800614676,-0.01379841966242064,-0.00909419195499054,-0.00870642681271687
-0.005073065950351541,0.05349090156115001,-0.029944668824246456,-0.039142980809183055,0.016260778638844692,-0.019672728662072807,-0.012904459652648168,-0.005640500408508541
-0.01247010476435095,0.03255763988301892,-0.039546349434287635,-0.038010516710241644,0.008613964967301185,-0.012543708007186058,-0.004061063745419917,-0.012707880755750542
-0.0022743398939677915,0.04762330374873807,-0.030491595778625414,-0.03487221362570031,0.02405497470000487,-0.01784800659227027,0.0043635389539098774,0.006449869807150335
-9.86791072994489E-4,0.05599384573743405,-0.034119796105382565,-0.03200550135198968,0.018912179922351655,-0.010154564424581194,-0.004743854478351101,-0.01185297138318911
-0.008191786710035379,0.04653545893613709,-0.03461516062902547,-0.04119348507076618,0.016699620624681853,-0.017809317130905476,-0.003288621677152272,-0.021581573062622282
-0.0063037733970458315,0.03422416009405486,-0.0386820821437888,-0.031787890727337065,0.011141471533432657,-0.01608023718955497,-0.0039055613992966328,-0.011614288642067346
2.8804794945549186E-4,0.051996266108606116,-0.028005319751092776,-0.0224441016984809,0.01615205198537323,-0.014699928642929662,-7.079646105404854E-5,-0.02094058540511076
0.010575476018196861,0.08023130346793843,-0.016738807835240666,-0.02518149685596412,0.019224541984548357,-0.008276585086515152,0.0063331118264326434,-0.0015966397071856978
0.006913280231451118,0.05611045886041224,-0.024515345374880676,-0.02410810046896062,0.014559957210026028,-0.015431951165342182,0.0016661851968211119,-0.0073136843097183655
-0.006198910109683251,0.0489930287608291,-0.03708358375257337,-0.0357429346861682,0.00395335796532796,-0.007923425634569993,-0.006503937542797125,-0.020234235298834637
-0.01755190752268606,-0.010377757204290147,-0.05835858668903198,-0.055873030050711245,0.011684856873188171,-0.00937467757094967,0.002415722473927885,-0.02312028697578858
-0.006362365269761221,-0.004553825161014624,-0.06316530680834999,-0.06563025894981722,0.02319344981992628,-0.004275252528322025,0.016128241691750953,-0.0035249229312140514
-0.013637040930011092,-0.022098392047089598,-0.06642759260906615,-0.06679264831437481,0.011948077189717299,-0.018479409591042675,0.010707147220691902,-0.0075670072464260555
-0.01013878776725643,-0.010201154324842627,-0.060288922127682575,-0.06935448832619838,0.015497120082418535,-0.01334111269090999,0.0037992473593800122,5.809459574298763E-4
-0.017388390525072135,-0.01696151457656083,-0.06440800850875399,-0.06912826635285099,0.007166687486637288,-0.003331244270104703,-1.7228320445491295E-4,-0.020785443217152717
-8.658225679319254E-4,0.03885697300498565,-0.04173250730661558,-0.051579506319203,0.02693125520350744,0.00668288956942637,0.02591782957027539,0.014315578269369368
9.97241383321484E-4,0.037478327066964356,-0.04661218000784312,-0.04884667510781207,0.016896090027610205,-0.004479856495685658,0.021680730125379754,0.015154121912428271
-0.0027884033022504257,0.03168073080670037,-0.04605403284425036,-0.0542769654465439,0.023754683992894453,-0.0066509025437255665,0.006774362310402013,-0.021251431952561795
-0.013488555762635161,0.013158674803370006,-0.05097191003525384,-0.0561027543999897,0.012929236139618466,-0.004206997999385738,0.013014043122571303,0.015485629648817324
0.003529595900094821,0.03028654926209318,-0.03827699350642232,-0.047600008920830904,0.024770463716642047,0.002514595317441966,0.013108832884240355,0.016815761383918285
-0.0010636204589884314,0.04904947339264118,-0.03660836404238094,-0.03931315142851317,0.028882441519244406,0.00702522285900425,0.03308114813273284,-0.007609849463693658
0.0024061155530583616,0.04678816018919784,-0.030532700584758855,-0.03628113041590878,0.025372583669454014,0.00892706666186798,0.026515370127944166,-0.008827794369898145
0.0012884757879242836,0.04015378936814494,-0.03767211683752445,-0.03941676777623832,0.020702306303688096,0.001683512658281257,0.01684554306622958,-0.015378665286613542
0.0017352433565973454,0.03806107814431847,-0.030481799279744214,-0.03825927524660675,0.027552705785479827,0.02448199109194707,0.04318515616804472,-0.011195376397454897
0.014092513801402503,0.06441395115415564,-0.025429637409190353,-0.035323290722489256,0.03709506177925295,0.01524306428370417,0.05351695818936029,0.018663001923965274
0.01064517726587283,0.06619327605692756,-0.027875197404314815,-0.03153461428967966,0.030011899257493722,0.019229275443459384,0.047138836813244454,0.021686805961663416
0.018558405374926843,0.05823650916762132,-0.025645952418782574,-0.029566098329429826,0.03536661554105108,0.014554348265305567,0.05621113598268062,0.01274380942855171
0.005840964642298027,0.054892531297864935,-0.02361738175540217,-0.03191549694762776,0.035064034945283956,0.04221188690216104,0.06665256175694881,0.027910156978447224
0.024901274792098454,0.08660193811280748,-0.012322281411258929,-0.012238153825949026,0.046554151125693666,0.04504512347241976,0.0848830294423821,0.05642240480611993
0.00918512202395417,0.07986587327325166,-0.010512541936944057,-0.012687715108147219,0.03950903880015565,0.04182945044176223,0.0750965619598295,0.022085369477140532
0.005362657131827757,0.05803816979646486,-0.02126381055761755,-0.026112972052736712,0.027872937395079275,0.02875359499184309,0.059179475062432714,0.034910075021321145
-0.008000834430486551,0.032858219332581186,-0.03244097662527597,-0.036412135021753486,0.032213850035718146,0.01987833702774457,0.04049052457170737,0.003078933948174754
0.003533021439962092,0.060249757358759135,-0.028421073830278507,-0.03650520070629652,0.02677759217238299,0.023552015991357877,0.047356616274491524,0.05024262339628085
-0.007537797916695995,0.03282521326527284,-0.039837458430200576,-0.04977438414467224,0.02067195197617432,0.009021627392513847,0.027894434582073552,0.02615410058328351
-0.01251853854503869,0.014830618651933546,-0.052104176908618766,-0.05585180025697621,0.0065984837170610265,0.0028648984892196494,0.023866726613578127,0.015744252084990744
-0.015277288895550195,-0.003443328425544684,-0.05426272916140005,-0.0524403953577154,0.012669311206911409,0.017122256315710547,0.023109730452091547,-0.0018702677055219483
-0.007588418739836367,0.024819201272263215,-0.04577744905568352,-0.04977199698992377,0.02864481411303763,0.020338007520751836,0.04075493046648986,0.011277614588437141
-0.006023397286225282,0.022422166256106532,-0.05395094449286913,-0.05276626376225986,0.023267533704317445,0.0031686147765954287,0.033284597560136624,-0.009846634560037716
-0.008694540034970055,0.010152781851186022,-0.054766903707793385,-0.0561321318079043,0.02664232585217142,0.006475749621365859,0.034943991133344815,-0.017919345388115647
0.002483994563025804,0.00874112162855326,-0.0523390078408904,-0.04613446662840095,0.028632930597360325,0.014409580452668798,0.022715150887143844,-0.016633755002308726
0.008734941854319679,0.03404528628461315,-0.04615387223217643,-0.05080240994755063,0.03992499111364152,0.01616160756566926,0.029477865283278414,0.01967713741866657
-9.122528571705273E-4,0.026576621234302652,-0.04916440590916147,-0.055177922910973294,0.021327920242016157,-5.938603178904124E-4,0.01821507095127152,0.0016501088804187184
-0.0019803904938561446,0.022965079361286715,-0.0509145652964823,-0.05191032297786892,0.02919378555294324,-6.836511879382325E-4,0.022295761569657492,-0.021255709093175947
-9.57776685903457E-5,0.030776308685689896,-0.04418430314859156,-0.05104332437781974,0.030647137869046732,0.004284397326921833,0.019041788684023734,-0.002054501201503828
0.012033761383282887,0.0596401973257155,-0.03427540088726276,-0.04507546487477011,0.04566151121190188,0.006343503477161331,0.018156830830155173,0.012878333552505634
0.006969447326871944,0.0515038407147538,-0.035888758645450686,-0.04285097006276284,0.036831904610390376,0.0012609466014885191,0.005145596260170531,0.001096183361113939
-6.797754580310293E-4,0.04740321027429374,-0.040421303566137566,-0.048539753537709104,0.038943750194819805,-0.014627490772413399,-0.01417254764909921,-0.027203476605787705
-0.021924358025741716,0.010886954302906256,-0.05779958321270843,-0.07056165424140336,0.017183925204425975,-0.022985819268550974,-0.028595414959456007,-0.021853501539786713
0.0032634550464511005,0.04171035898751427,-0.04583927242873407,-0.046274830333922275,0.027399041828873965,-0.00813661991904808,-0.02053366246126086,-0.025479705307512163
-0.007538768047457745,0.031722509707872194,-0.04533639257392438,-0.05800319693136437,0.022672112513537304,-0.016115683797687155,-0.026090349951348006,-0.024791367996243242
0.004575839456652381,0.04598185869933702,-0.04124458400629288,-0.0423043143610982,0.029311939141845742,-0.013322057520222336,-0.01292859462297507,-0.012774734798957823
0.0065303464537200895,0.036220087808683445,-0.04402200114168521,-0.05112470426002355,0.02475404626344794,-0.021905228299093023,-0.02696769242527921,-0.010481005660366936
0.006774916235163779,0.060824779452721224,-0.03209401858585092,-0.03953106975957002,0.02685360778867428,-0.01521730637390196,-0.022473237165093467,0.003533468625346789
0.008089245498353787,0.07060096349481647,-0.027211593338771323,-0.03143341015278582,0.02906401830431158,-0.027858843095841107,-0.03891870376846724,-0.023626028621482924
0.005209479001507322,0.05763081007632674,-0.034169593091374344,-0.04688204930895071,0.024089202417942202,-0.030304002997124838,-0.05764983341543226,-0.032213610236689276
-0.014568195493731756,0.022055851687838007,-0.049852563235875585,-0.05610849226360708,0.009518781623467802,-0.045099872345024494,-0.06739496668025859,-0.07166356260455375
-0.008770646593528551,0.018679927069376902,-0.043964258630017634,-0.047681567245621004,0.015945450082468903,-0.046166238617032715,-0.05879217929753376,-0.036282012908633386
-0.002685415697461264,0.03939412099155572,-0.044641619841841736,-0.05136779224035087,0.008907039229677264,-0.03785043136002119,-0.05361553335975474,-0.053095237890277154
-8.644814082699017E-4,0.03781866358102367,-0.0461819539540157,-0.04892733354615768,0.012437767893245907,-0.05578748432953521,-0.05632704870017766,-0.03719172931784237
0.0045442683389758575,0.039753941924455374,-0.039456212180312936,-0.04500070388086183,0.026236492020627125,-0.037293633883095256,-0.06781989250676629,-0.04048581213187956
0.005742784848259618,0.03748035236603733,-0.036048231489149624,-0.036835138496630934,0.020800821091473187,-0.0396325287752616,-0.058569430063767004,-0.02815167302970574
0.019276681461892663,0.07420583536800125,-0.02333637699146361,-0.026580681778262144,0.03565107077486088,-0.025883157987233424,-0.04957653296272734,0.009922801690165062
0.01112158048527791,0.06848944133852101,-0.027310128068082938,-0.03306752822912004,0.03128147727530913,-0.03217856457393577,-0.060444350511530166,-0.020106006659235173
0.006681777420650164,0.04207620665252935,-0.03431748401484203,-0.04765429526910341,0.022237109443013412,-0.0582496021687745,-0.06654270206911439,-0.020428644432132298
-0.003334203436120626,0.016245964683234075,-0.04792358387834109,-0.06025518151557481,0.012073056810648495,-0.060657840037904046,-0.07612721199851256,-0.05108525526011481
0.0025210514505970417,0.017257820489678943,-0.04152105685136345,-0.05077858119070152,0.011114111028222245,-0.049607051720294774,-0.0613851267676063,-0.03737402702476033
0.003548443344198828,0.04544988120261453,-0.0342472508836956,-0.042294741193570524,0.025396165419738957,-0.04901164297157535,-0.051135023016482616,-0.020702676619170555
0.006590619636357299,0.05784660441032544,-0.029781014145022922,-0.04127599924948426,0.02939591993512169,-0.04537959803248729,-0.07128930449544227,-0.016156923589153684
0.013967414966288519,0.04061199008963662,-0.037471406977408174,-0.045477213404278224,0.023091021038666216,-0.0355061574180965,-0.06415036041788032,-0.028819127559273877
0.0032781708893634396,0.021184554562867424,-0.04408616713410358,-0.04666885842051772,0.014582806136574058,-0.04576569454194133,-0.06633187903134714,-0.037636022996756724
0.005501564976930435,0.04498513014732468,-0.029514834408432344,-0.04085364520467925,0.025736515583115085,-0.04204665828893203,-0.05804577013877974,-0.03176641427220318
-0.0024448388265541693,0.020911148660065097,-0.043267207376595854,-0.04635867030164913,0.01570174944849798,-0.04877373368962719,-0.05489781861465153,-0.03139280060724549
-0.00341250439066636,0.02574067199923769,-0.04363975202417567,-0.05075648401449029,0.01792504775951152,-0.04490556217056514,-0.05896327370569667,-0.03657610430639548
-0.004056822707116301,0.005967421643523158,-0.04777748275301711,-0.054432621313873435,0.00730238808435048,-0.05169511954419571,-0.06884390267233767,-0.06480644878800233
0.004203783147711412,0.024554971906168826,-0.0356666258267883,-0.04242420897302556,0.021181250020281185,-0.03593652849891556,-0.05095748475605304,-0.039453279750389925
0.0060460316352878764,0.059655166697612956,-0.026811272929946454,-0.03631356293887943,0.028741451116377312,-0.02800318850072053,-0.034321485904356956,-0.01185125864331429
0.012402191254065055,0.04400226717473616,-0.03022194357832583,-0.04195705384777272,0.030829759299569458,-0.02290784268668913,-0.040705030380745175,-0.03677137726644746
-0.0034298454436724603,0.03123949261265032,-0.04026883823070095,-0.04570259365822253,0.017103119141045293,-0.03618922528353266,-0.046023467685379224,-0.04697604499909175
-0.008753975663434742,0.005103236173590143,-0.04798126217694347,-0.05579773091510359,8.060650687497433E-6,-0.03215930280665169,-0.0504853789425483,-0.05271375989525279
0.004605671212276493,0.04885695535504063,-0.029803639963331,-0.04157067877082473,0.032718078366137146,-0.014038722223226375,-0.011281012944466177,-0.005705070023307001
-0.012560288963300024,0.039887923652731735,-0.030890171205950546,-0.04941867896980697,0.0347511570535632,-0.018383702587022727,-0.016182327588976246,-0.028670018167254795
-0.004354207879828333,0.029239247919334754,-0.03536737835191955,-0.042138646770485996,0.027151296533836418,-0.015565057161087546,-0.010041681615785813,-0.0352574680088929
-0.0046376336601518155,0.02570031034918251,-0.03156836215548002,-0.044089849638113805,0.02585888868323863,-0.01406048781245013,-0.013371946894429887,-0.04851310257110005
0.0036630501201913687,0.05215319762988752,-0.021728598412440753,-0.03259359432147482,0.044947856778534745,-0.0012817640006689871,-0.005802071379331263,-0.03202137492999265
0.01568571535186902,0.08823878365925092,-0.013977586290511552,-0.02369537383185729,0.04978710120461748,0.004534728072910594,-2.242125499132208E-4,0.0025097100380479243
0.012784944340600946,0.06783691977352972,-0.011534525257935167,-0.028668950832702562,0.03290305973144429,-1.312926136739684E-4,0.01241339949966037,-0.007478518335757508
0.00975919097261245,0.04179911346124809,-0.026622537707914718,-0.0367647773860023,0.022348468947288515,-0.0070600098798588185,0.015803413877791987,-0.027472194142387583
-0.009091762202003091,0.019151631942926163,-0.031927481636277434,-0.041071527527112774,0.019773668341082178,-0.010899450300967875,0.008445525463447961,-0.0393501809086762
0.010511171740576761,0.05889446835176206,-0.019659211378428586,-0.03715297893791135,0.036075826291312355,0.002685591911130491,0.025887998064735723,-0.0022978549675889046
0.013677164484748419,0.06322724394815911,-0.01798773628326352,-0.029693976959526393,0.029245256802678223,0.009820669201721224,0.020575605727680357,-0.027586381666265966
0.013008692514335977,0.07081930779276892,-0.017888958158332424,-0.028069378709354498,0.028329520727738873,0.003426643645690977,0.018309222906096177,-0.053658920429917135
0.00178808333505561,0.047437433891081696,-0.02100714185217839,-0.03224959660104988,0.03010426446608754,0.005034201517169313,0.010345162059745625,-0.05309558359882968
0.007679321632799843,0.04998000451815229,-0.020185036554942727,-0.030354480043599155,0.03285803856764576,0.0043583915496855025,0.021174340156304188,-0.014977837971225712
0.007039642455470499,0.06179624142939965,-0.021078478928174896,-0.03201882601306574,0.039236439026810795,0.009571898756110074,0.027093662303670888,-0.02252981690073837
0.01623106411877278,0.05039993804960804,-0.026367515807567257,-0.04598712083589361,0.03145800244942628,0.0022716406979540814,0.018544761879970766,-0.019927126060121366
0.003847620439856233,0.040304222559255,-0.027015640601657308,-0.04186402428001547,0.02597325066176868,0.003764387024221744,0.01452018739351735,-0.05159493613992027
0.0010609580691637041,0.03300054683576963,-0.029476508504439596,-0.037246792735398326,0.01657738572761964,-9.168016100893239E-4,0.013658837261259719,-0.048116282321786746
0.017723184691275207,0.0782271368061523,-0.013600736005359063,-0.02761735768430255,0.04521012091362719,0.012565253409448697,0.020710156870817713,-0.02799270143821508
0.018257761789385256,0.0787822147639331,-0.012928450878392811,-0.027680048796255016,0.050236401445101116,0.01735319893508389,0.03168235111938678,-0.02387116858239626
0.011981465618220598,0.07201272116877308,-0.016657314597014694,-0.034380896709688,0.028201946791503556,0.019878710669790536,0.029735573981879565,-0.04320749187747156
0.005859274737165649,0.060731007193453604,-0.0205744536349485,-0.03296175001012503,0.03629646435419754,0.012067466235017591,0.03297475060064467,-0.050712054557743524
0.023267482178364822,0.07595532172222677,-0.015246308389468803,-0.02962377228663507,0.04944414669502665,0.029060827619389763,0.040470734193742995,-0.028770704430882928
0.012462667791412745,0.07019563927418232,-0.02645306322364539,-0.032533691481279485,0.04221486334299348,0.03006900445896358,0.05060283477770976,-0.02109931232661011
0.009565101165317356,0.06005357838844824,-0.02615928373590528,-0.046202097363951776,0.03895091634423913,0.01950274956941657,0.04469426122431963,-0.060012753955829966
0.001142233336862987,0.04424203450071599,-0.03340587499216049,-0.052484939540670024,0.03689558186746534,0.012114695278727296,0.0393906640452627,-0.047079239842483654
0.0032942792561862326,0.03871536065214276,-0.034092208873328166,-0.0529033757425784,0.03357805256169851,0.032060674868660224,0.03710457584201615,-0.0504950065282002
0.029263465549836037,0.084435832074511,-0.01806845877300666,-0.03071369324141913,0.050710559034967594,0.03468893198223148,0.055108515624167444,-0.056472907707000156
0.02450042003901401,0.07518083070692701,-0.01842156089640779,-0.03714712804782482,0.04292867065230861,0.0292741477800216,0.05600783449902015,-0.04258992891589375
0.02499511985206268,0.0748429761316601,-0.027026165068406525,-0.03954236662719395,0.052065866048368215,0.03422786275057473,0.05199745082621866,-0.06797242705225039
0.00798386086132586,0.036493613591576005,-0.03607295538552403,-0.06188336581041585,0.04000771530505195,0.028800630052168694,0.05112934703464987,-0.062210302732954255
0.008096154559436151,0.03274836340523104,-0.03735157143380797,-0.0531265153364225,0.04411327177831369,0.031651772772374166,0.04228472932488286,-0.0735855999734953
0.016690589789374242,0.06643352274313086,-0.026523012342153672,-0.05084961498248225,0.03928826067113308,0.033992393407469436,0.05515207496890112,-0.026897908041901335
0.018113367814862974,0.07410551631126765,-0.02746571678461556,-0.045470315155388706,0.04178360951013202,0.038019286639466236,0.04606552696397474,-0.03606305345774337
0.024984692314088917,0.07558749998346023,-0.025357917677205435,-0.047471581979570236,0.052727260818515864,0.03643914858171289,0.040304350520224935,-0.061708378350162366
0.01638443190078621,0.04732551793760416,-0.03160250453475827,-0.05175470844602542,0.04730648985740438,0.03593700529082792,0.051015462877015465,-0.03477385424589069
0.013392706248915537,0.061620820853709235,-0.030710974923489166,-0.05202246788225191,0.04499876107429375,0.03642354407279598,0.06518850896515078,-0.04479584340899954
0.018887535078629676,0.05196411224334286,-0.029349269763181383,-0.05403704679481707,0.05105511168960853,0.034511355392935594,0.06142090328532862,-0.04027726851136288
0.01487862715582115,0.0543212588692287,-0.03523380649952113,-0.052592555348537254,0.050501650193162995,0.03231559152323616,0.05770008211887947,-0.04790411675381772
0.01856391543873429,0.04997572800198316,-0.040627225912160496,-0.056205021830816264,0.04020324925214043,0.034859374379512614,0.05369496150084585,-0.05932265002167638
0.00910974628494933,0.03170968937733763,-0.039920321960151446,-0.06078781645510633,0.037609803754473356,0.0316522805847784,0.043353834570051306,-0.058126855824449195
0.025507540868207324,0.07937397887162695,-0.02576028071396484,-0.044703380633446324,0.0620513948912457,0.04368367513078973,0.0573651846243853,-0.031270230216437364
0.015227199628308066,0.0650529786645971,-0.033168878694975944,-0.058992767817190275,0.05010618713743862,0.035079733539521485,0.052984631216193206,-0.029126802784239736
3.4019250137742006E-4,0.0299943499989289,-0.05152081886852805,-0.07725455593607507,0.0385995352497831,0.035520141803767336,0.0636357345368887,-0.03969717692717203
-0.01021006700495041,0.011655944730363106,-0.05889536999128108,-0.08119982457944608,0.042550565664344564,0.029527905110211673,0.056908744632500056,-0.04373426705891283
-0.008099411984804569,-2.341645750682789E-4,-0.06142645252554581,-0.08009689655809783,0.045539668577496396,0.033693556445900226,0.06188103844123022,-0.06470167802645932
0.009464609048576746,0.04579032474908869,-0.04877937805694731,-0.06991720954144412,0.06617621226918043,0.054506430644952926,0.07966535879123432,-0.02458997002862773
0.0016382235211676276,0.034011636900823934,-0.05059815187520351,-0.07970659363154711,0.05670003300558467,0.042168432676496136,0.06926317188164219,-0.03188121468761414
0.009807470385524675,0.014173382292716257,-0.057238010173068746,-0.0842180524211607,0.06100174399529713,0.04643643937626217,0.07250577733031137,-0.050115487655516336
-0.00772600580406363,-0.0025351480664235083,-0.06370915290225862,-0.08837735059124653,0.054052115802240445,0.035331359902188865,0.055355960792905695,-0.06119745615487187
-0.0015974643977831279,0.01575304406708641,-0.061273668858465746,-0.07832192294092216,0.06869582544407668,0.03909992430655851,0.06807200064848001,-0.03678243455157406
0.004298893992394064,0.031982387445769936,-0.05668069882404484,-0.0785622711885325,0.05772881890138981,0.055143007881040935,0.07958796836916575,-0.043468196439785674
0.01637801168372255,0.040915902531553236,-0.0479662312622439,-0.07346403227320164,0.06492665122813941,0.053741307109973796,0.057693166250959695,-0.012801527901440804
0.013591917469926607,0.05378333971113835,-0.048132187516169905,-0.06668287727073591,0.0705668062484565,0.04458899257657907,0.07988000459285646,-0.024687136784495335
0.013314730533195726,0.04246044276683336,-0.0429829419847004,-0.06487905560485627,0.06200645163147081,0.04806548000607984,0.06314704958220306,-0.038793939279381955
0.01641497514511919,0.05765509429526875,-0.04123088422738666,-0.07198318237672846,0.06865803826413601,0.04268279537255682,0.07447503480286409,-0.029173285560019198
0.009224460998813203,0.02908439336355691,-0.054780784405538165,-0.07781966516112353,0.052360565181059485,0.0359084599720591,0.054073344844168945,-0.02162563616484053
0.004252946858954397,0.023735882875769797,-0.0539749206762726,-0.08147291872843623,0.04666295580726419,0.03320044736030272,0.0566623321815297,-0.0352056494505782
1.5934921415772192E-4,0.01224485306270737,-0.06229047047711093,-0.08658233126456033,0.04239539046258767,0.03665368055848231,0.038559812679618076,-0.035959011412879716
0.007171303712634748,0.020060356626758563,-0.057459258582205,-0.07447432353303839,0.05267237187545704,0.029294615871543667,0.04779797641138206,-0.0231066702786421
0.017935830391152447,0.06126871122703369,-0.03305190935675582,-0.06193638253008572,0.06577665858933811,0.04415340017938507,0.0728016058625062,-0.01149651562535214
0.0214181698843756,0.06424568530659513,-0.03697374449737639,-0.07191928304841205,0.06609383885172919,0.039034128604224616,0.05679565164791273,-0.015599696583175237
0.018513704913608865,0.06227617477642485,-0.04697526650302124,-0.06954264465146631,0.05390414746106799,0.0302873055115238,0.047321950347669166,-0.030356633829562486
0.004640911786170832,0.01124242861114435,-0.058514782718631995,-0.08298697047980269,0.039794360167688524,0.0065926972056386274,0.027257762185124542,-0.07346538107618288
0.018216195933683163,0.04427665517915818,-0.048590976082576745,-0.08065902561330957,0.04967257426198687,0.016032878001828677,0.03944594445671515,-0.06645502393586843
0.00470083119896862,0.03952427197305097,-0.06013823256255293,-0.08247392302300362,0.04688091360946623,0.010487348950152891,0.039855487338286,-0.07111622438467814
0.01132702383630553,0.04741452553663546,-0.05584483131757693,-0.08753505637353572,0.06003194672531987,0.012902489031185104,0.03431115237824668,-0.06264408217004962
0.013696253286965403,0.04738940377527542,-0.053740489702042496,-0.07811246759588389,0.05641705133665383,0.008514498880018687,0.030382411795674476,-0.05354739032835683
0.02075821313417633,0.062153105098801925,-0.04553664252712815,-0.0688498786438945,0.050575462462355246,0.020693574056128265,0.0391570744546319,-0.03997882261259689
0.017603831200668336,0.05866191042668507,-0.05110029375227389,-0.07505678690021376,0.045279747456952894,0.008913628344452898,0.02493354929293707,-0.047183242483343345
0.010095254124023482,0.05270735207033619,-0.05697225344431725,-0.08337741122018912,0.04861991612691486,0.006118087530829006,0.027760356613351977,-0.04887330381265053
0.0030891488010958107,0.030485007991452134,-0.06421189509021794,-0.09734741306569697,0.04376997444857575,-0.00221051665854353,0.02000665340861672,-0.06753281518906537
0.016994069039563603,0.03908501090395677,-0.05758341681884083,-0.08286067678844321,0.04086164167150118,1.0294451043910743E-4,0.018327777559074485,-0.0451057192368915
0.029096358583763242,0.07944260597460236,-0.04510528258681768,-0.07360833701136393,0.0617279912867495,0.018267151190059033,0.029669985686509203,-0.03407647278206852
0.01861257492349824,0.06455961041297759,-0.053302763097924734,-0.09057934903097167,0.045420279269414256,0.00589408641806234,0.02710083065636559,-0.057159658014494956
0.005981342942199872,0.03881609978016032,-0.06569872107802145,-0.10079756270718446,0.03384586833928624,-0.005207434332345374,6.326695557347783E-4,-0.048107274950263935
-0.0029392949051333743,0.005321913045275255,-0.08082195144510633,-0.1123024055340344,0.03588368153493931,-0.023485645244252704,-0.014678058319851119,-0.07489658441619432
0.007541355249615557,0.028902625799816402,-0.06636466535323464,-0.09954855222444778,0.040285803505026696,-0.0068115923080469135,0.004349620632790314,-0.04309472113880228
0.007356399291014054,0.060318264242868354,-0.05664178126378243,-0.09586066024987533,0.04036831495119941,-0.004957889444147061,0.004193259015200666,-0.03636121425120181
0.014420692189102169,0.05812032599201272,-0.05596680229455291,-0.08519455787089945,0.04489671446390117,-0.005732607946664504,-2.031492167406719E-4,-0.027140631961414367
0.010634081508174877,0.04181018868901177,-0.06398473301005238,-0.08913338812400327,0.03924420968676568,-0.012190528306069927,-0.014960843375731666,-0.02555742617236947
0.016627735704151412,0.04190450869669504,-0.05008615640691343,-0.07629033089920999,0.03271790308674687,-0.028608764301134765,-0.004467408249521042,0.012184683248767144
0.020380566694989027,0.0653678388233127,-0.035344312061917425,-0.0717059648736736,0.0566966188940998,-0.0034005781826282546,0.008635517110605378,0.0885482275493535
-0.00708104515363137,0.042073280926124425,-0.037937864341664025,-0.06335122142691932,0.08519107312510217,0.013270947451583118,0.023805001559276603,0.12198143167687764
-0.027229386594303972,0.008492817988488669,-0.05268144036547893,-0.06673331512932316,0.09736123933134201,0.027534218719472765,0.014127674138126321,0.1684704113483597
-0.03944833020493677,-0.043266926387082134,-0.06977095085228467,-0.07617898977527596,0.10439605592733144,0.02155908732690192,0.020745923830979198,0.16502383078245625
-0.025965162990013314,-0.016218982688862852,-0.06604827487184832,-0.07160832265945985,0.11060581973920071,0.033411679502866075,0.032207268613854215,0.19846140780991184
-0.041271529896522524,-0.04746216067034269,-0.08512054669194694,-0.09464822095587883,0.11175757486012887,0.02269229139214892,0.028971797120739964,0.19358262976427185
-0.05679039343624326,-0.0755356296970737,-0.10858993309758079,-0.11533448336505243,0.10092364708173657,0.02044492995107011,0.0027852084016268728,0.18648630987530038
-0.0599340973584192,-0.09458555957214458,-0.1145527266105097,-0.12122683094674266,0.10220673386315969,0.01557553253161665,0.014171737151865878,0.17077094695618192
-0.05877266736997146,-0.09528322336121084,-0.11806651911371757,-0.12342155077710495,0.10161432910753354,0.021273599668833083,0.023560898074970388,0.15569635039758237
-0.042423556997933105,-0.07051847281657687,-0.11181948679117269,-0.13093477643108464,0.10146096079653134,0.023281752027004304,0.01342377804905403,0.15726412620183508
-0.043342624929546526,-0.07135407159082305,-0.11830900241106744,-0.125142841746972,0.09807107949939801,0.014094313827608571,0.004721469703488028,0.14000641802645108
-0.041549550525451465,-0.07909237671224406,-0.11560998580045517,-0.1288808024816023,0.10097820018470068,0.0034044437377968896,0.0074331399770214465,0.12165363260004168
-0.04113918937901984,-0.07361160423708497,-0.10869660689003274,-0.1167553842557074,0.08930492313587064,0.012890501679758888,0.013074716150692887,0.10606192304410367
-0.016550746360476938,-0.011794765835797555,-0.08746718615154979,-0.09372342695668752,0.10421887701089304,0.01873673405879219,0.022588140555182046,0.11965424820771757
-0.018573280097415327,-0.013278038789664093,-0.08795381782101987,-0.09699408792250569,0.09856252086735123,0.011946210993468053,0.022379986128255248,0.09605681865866667
-0.015525782967571284,-0.007592985456509146,-0.08539748193573823,-0.09782939483017204,0.10124004073538118,0.0029689608915654943,-0.004298910517304128,0.08995025572731633
-0.010747612712762101,-0.016534080815826146,-0.09271706740800677,-0.10590911266182508,0.08494287586365695,-0.008805231168481023,-0.009304019056973265,0.04961444188735947
-0.007183813781887138,-1.7813419439023515E-4,-0.08487744714490446,-0.09789144639465702,0.08807327153579013,0.006984289068987463,-0.003283914311678962,0.06528760692643729
0.0045888011335567585,0.005227674337105698,-0.07936031956848454,-0.09460990632545714,0.08623944497351044,0.0029050240368729257,-0.006582222654930542,0.05718623321157649
-7.471338073152953E-4,0.007980854117908654,-0.08046804807063958,-0.09152514828726771,0.08243508299253378,0.002660636235265979,-0.010644970107460497,0.0412617059680695
0.0015833852830391655,6.916491665903232E-4,-0.07618349932515114,-0.08871980057791128,0.07526429764577293,-0.012201269420617611,-0.00945308714031862,0.03365962033769728
0.005356021805490053,0.007530758881524296,-0.06928077086335595,-0.07732439928561441,0.08235624932649267,-0.010482253509921694,-0.02353231377687959,0.027168548556453585
0.023500535740766576,0.05335533814829168,-0.048810203232574206,-0.05716131053569806,0.09306818407714859,0.00825733497938174,-9.181738852247569E-4,0.06523211521804767
0.027928050757674676,0.06037466917175262,-0.047552804531994196,-0.05912517542414615,0.08199474540312782,-0.0010507273610588623,-0.012376893656635045,0.06635220748189755
0.02973478033227547,0.06498625301402441,-0.046553799031319676,-0.04976295146246132,0.08225912582517944,-0.007160732723968567,-0.021180740340052247,0.03500424229120174
0.031038496767523502,0.05389564592088897,-0.0458770436190376,-0.04469193491170601,0.08063296585303166,-0.008549749065189708,-0.02696132700175206,0.03549158743008509
0.038044835059186634,0.07769353620227476,-0.03287521515217068,-0.03709504157511902,0.07802396492941027,-0.014040927629279581,-0.019349347679034495,0.04639052740984113
0.04036312462647049,0.08945984469276161,-0.026243639794598428,-0.03930236075280051,0.08871890329158152,-0.012858636346916766,-0.02420274416267665,0.05745525269330788
0.04054837496620738,0.08588326078427533,-0.03263722058453462,-0.04590673523386235,0.07864148701427459,-0.016666290651727162,-0.02345001864346225,0.038774903210395506
0.014138475722044406,0.027492821147252267,-0.053848570956466335,-0.07006880198985972,0.06924948812273984,-0.03363684001236756,-0.031908086751005274,0.02054105675451929
0.009634169054688843,-0.004554561129061562,-0.06717008225139458,-0.07713786956399082,0.06694672339364288,-0.03354267942740699,-0.04759196531956009,0.022887264795273858
0.03485080335851108,0.04804413584206459,-0.05007031881992277,-0.06124722254596925,0.07092490638270439,-0.014056180542731906,-0.024382508965411023,0.0438311939514238
0.01978764951986107,0.03988497780613963,-0.044074733420475985,-0.06206979691448002,0.06325453406622479,-0.01912786367524756,-0.034043070535678024,0.02382167035599978
0.020858279108481915,0.04680157505202052,-0.047862402300849635,-0.06001273877969724,0.06388925089232787,-0.019826048474334067,-0.03654525747322169,0.02059092381883694
0.026233111376348144,0.033257798599957034,-0.0518096227749157,-0.05835415023330199,0.058504835350519,-0.027756260042929696,-0.04333432464054172,-0.0011908845006032675
0.02399542131672845,0.03214890862130151,-0.04930051401896516,-0.057285641315049166,0.06898691859385109,-0.022516689517529453,-0.040345391018087845,0.017056614862418475
0.04353371161935284,0.06795746023972259,-0.04086211602858476,-0.05070059618529621,0.08676260374876463,-0.01729600381539183,-0.032576506727344655,0.01683980132353138
0.03486450727310295,0.058118089684428144,-0.0427996377398907,-0.056693722173715745,0.07294546772325487,-0.0159941291651134,-0.03515440509165782,0.02601894881977568
0.02848964493438981,0.0543384340734029,-0.04653731211435421,-0.05997251780507723,0.05742855422585828,-0.016787153021442652,-0.025355414299199904,0.026317364285969615
0.02089697887498963,0.01933057654068954,-0.05658656803892213,-0.06954138123343943,0.054522141589544985,-0.030465458337198142,-0.03154725509872596,0.017557299344995368
0.034779156807798195,0.0453016892531799,-0.04722579243449402,-0.05371871874086201,0.0667619234717866,-0.013065501588894605,-0.02354350351429135,0.021057661437415234
0.028885547056424987,0.04794553304319927,-0.04756535853555551,-0.06180922629384077,0.07053642960770164,-1.6784908147508183E-4,-0.020099375822207326,0.04360672520049166
0.029770744251670086,0.03985133050295194,-0.051461525438412356,-0.06309041605639136,0.06551304353270253,-0.01718596914227631,-0.032406324282431585,0.04571470100815411
0.01997235105618988,0.032860505019096334,-0.05382327869589928,-0.06897353454040821,0.06971013950918649,-0.020478913344465555,-0.02486104131899856,0.0208165702208996
0.02438211080774898,0.01575390300566133,-0.05791245460882733,-0.06768910455395755,0.0575625649736949,-0.006370735746487611,-0.017304056413567186,0.020403497160425464
0.026186520979833657,0.04595622995676062,-0.048603075892444864,-0.05887865651643357,0.06910061793392624,0.0032382351348882107,-0.002685212478290243,0.055074937133025866
0.01945846704061304,0.025421680938814344,-0.05883610636581712,-0.07803750958501272,0.06896875968997558,-0.013106972246475605,-0.015440953627930383,0.027316401219470526
0.013256056339044581,0.009457567119330098,-0.06673585940652085,-0.08332923842803575,0.0609075193927752,-0.012756738257699764,-0.017921071755021726,0.02226489164480111
0.0051471859026038826,-0.0025918519206055935,-0.07475574579087306,-0.08597989833207326,0.053329813335444905,-0.010415214802672467,-0.022569023636434888,-0.004149189947525981
0.024455016137183278,0.015512484173710718,-0.06257505718761243,-0.07809273978782905,0.06140391444690935,0.007613572498300145,-0.005731278172124564,0.028369394528402415
0.02625325079769537,0.04116494523443642,-0.05506768786337606,-0.06856465257811568,0.06619795101199374,0.009581329239603649,0.004956715175431928,0.0294414289754678
0.018150252606103166,0.03118689666791682,-0.06080670667670099,-0.0716388403870054,0.05984498046954042,0.006885154435340428,0.010415660562753495,0.03749298026546223
0.01568763466275597,0.021958120317798514,-0.06804352597674676,-0.079270526001975,0.054280888548291335,-2.056220128991158E-4,-3.6702285302928615E-4,0.020009022112137783
0.008177538609293936,-0.0012606722320750163,-0.0725333073108266,-0.08288234162685944,0.05430923562360436,-0.00976063944582991,-0.004419060659085047,-0.01835016624372696
0.026269971759863387,0.0365738257701744,-0.05713253830004706,-0.07004324864260325,0.06043671731481906,0.014351545876557376,0.016148402582614626,0.005178935756151538
0.02222089704913281,0.03522151702143435,-0.06007486909157855,-0.07871960634679225,0.05838087425510301,0.009552247307932112,0.012997463079525729,0.007219484318803605
0.029422023940838017,0.05005862693477514,-0.05506616022588565,-0.07387523394607763,0.0736490873357467,0.012946691045331188,0.0017248683242768723,0.02222479359873245
0.029980627937493114,0.05039282643352218,-0.05259933571123111,-0.06555565810558457,0.06612258135354564,0.009139426531355101,-2.6321868083236267E-4,0.02285441824003873
0.031190331790078442,0.04418675085857847,-0.049683748638590604,-0.06631243136786165,0.07167537599412167,0.010108227707794579,2.3943686078221852E-4,0.014979784656558208
0.03894001714634304,0.08001330918210889,-0.043907575967617504,-0.061936351775636986,0.0754347740255733,0.011181833235402776,0.014494787232222544,0.035655771822310764
0.04077428553474125,0.06874661879536917,-0.04409785839779222,-0.05710787906119913,0.06002868145252205,-0.0025997529898784608,0.016510434111699,0.004520185360326242
0.039496071766517385,0.06218849544556036,-0.04546444858196117,-0.05945100705009092,0.06503648731167273,-0.006453607346162422,0.008083758097751166,-0.009411830694576996
0.03715862882821995,0.04375032947972321,-0.04915399260402072,-0.06113666401155714,0.05770384012779154,-0.011936410121106926,-0.008279184638549172,-0.01803968243979349
0.04510260056520219,0.08202567776224681,-0.03672656824625691,-0.06002578497736706,0.06688679617406332,0.0021312807155451385,-0.0061502000111980214,0.03278211721105826
0.03836235969336589,0.07441884300650681,-0.044130444009706206,-0.06517418130906547,0.06835118801542042,-0.005696583252933006,-0.0024417133998777467,-0.0059054322318855745
0.025144113339803167,0.041608992864958116,-0.06030545599669214,-0.0849202131509485,0.050275481086709914,-0.012668246131498327,-0.02122127068992185,-0.015389653629799183
0.023470402424171737,0.01540754195641457,-0.06825194528386343,-0.089052968651296,0.04344624667254747,-0.010148156766108269,-0.02196760179816025,0.011571845556330675
0.025119603010638272,0.03525045787221416,-0.05949690286892168,-0.07892725191476595,0.05295573019925587,-0.01044973097264213,-0.01580963551783278,3.3961755796683816E-4
0.030167078026758203,0.05874567570808444,-0.05805057072262602,-0.0728267714398611,0.06278701725729223,-0.021666912119181973,-0.011208198779327553,0.005220746855161023
0.03220202724396517,0.045790392118326924,-0.05902092760876191,-0.07648626916448062,0.05762891937948862,-0.010865162263621905,-0.013820267655749712,-0.01893794398134054
0.026845101795824552,0.041660532777747415,-0.054840672504716845,-0.08295115214767333,0.04744264385153321,-0.016498198313634707,-0.023088979198916195,-0.03074997065836214
0.026356051098360426,0.0458302693155736,-0.06291825531661241,-0.07961319779962982,0.04789235483406622,-0.01510507436554662,-0.01866230469650802,-0.03436622413540745
0.041166503282409596,0.07497784765480861,-0.04643229004133936,-0.0694365099903963,0.05416857520528093,9.3887708999571E-4,-0.012845008110631533,-0.019820064068630197
0.040896072125130585,0.06657098580792513,-0.05556865848278768,-0.07614381246038396,0.054875580726200635,-0.01169919224161959,-0.031800355711815595,-0.02349119891023569
0.033512730812297165,0.04979233006507318,-0.05603093138720218,-0.08261272602800378,0.04334670496183668,-0.022503640429844648,-0.04233759253395289,-0.025438686068043375
0.022449298677051102,0.03634090493566547,-0.06503935877587905,-0.09379178376945072,0.03712201345497041,-0.029896072142496226,-0.03204351461911542,-0.03246922261526974
0.015816343445761376,0.020526735119103485,-0.07257471514681768,-0.09266543200923237,0.030398262258101685,-0.020428971120795947,-0.034371875317689086,-0.026107324482729857
0.03783532545214485,0.05023529309847537,-0.0647822178733577,-0.095315441192694,0.052802317519990837,-0.023446389010478928,-0.028624674792192602,-0.01442944404064954
0.023667585027373306,0.04481028160507297,-0.06697315874455645,-0.09267098503682701,0.04397553903034192,-0.026438201771362652,-0.035759172960256755,0.0021463908970349634
0.027024627706887277,0.0356068814585867,-0.07082484525371065,-0.09736440516716696,0.048366302228900156,-0.03394200279782,-0.04119314257595315,-0.010432945891313546
0.019503511738010036,0.0062662611033781285,-0.07096036358051958,-0.09626167558035607,0.04678381961934768,-0.036421025455306226,-0.03993332493235828,-0.011087369172619045
0.029565413558927896,0.024970510885492344,-0.06215227799938072,-0.08719749186041305,0.05278175770383712,-0.023933782476652208,-0.025340943941938286,-0.022135090626069904
0.035824587988994606,0.046954055503465375,-0.06624930276471695,-0.08848301868004024,0.05284492310558505,-0.03210343412863823,-0.03443167046149781,0.014260614325613055
0.027054466268182323,0.03647399934448406,-0.06764266645685954,-0.09785394424954909,0.04080510443016876,-0.030733334640196397,-0.047870139264546765,4.208333536984724E-4
0.00836259993707586,-0.006134988088817527,-0.08761298682271515,-0.12034129751778277,0.04219715077028883,-0.029763169883581495,-0.04157175268693196,-0.01531252369275149
8.842692565358234E-4,-0.019660864001478415,-0.09227430516232364,-0.11971999067930826,0.034271617997964764,-0.030381465411192885,-0.046834100673417284,-0.02729068870793127
0.020714121095763486,0.007845099423218566,-0.09211680421289442,-0.11311685398124598,0.045403593760032855,-0.01781215671064013,-0.025649909240268148,0.013742277113698718
0.01959190251224981,0.005661814686746051,-0.09412528353388118,-0.11407619516259741,0.041854462324590704,-0.03277632281894192,-0.041386485383940394,-0.03750088812530602
0.01211124817226061,-0.012135383732915374,-0.09469659632877785,-0.11812978762274366,0.0461462566435093,-0.031284754852490854,-0.03999366048749012,-0.027994670110421508
0.011549387166256182,-0.03432512273374628,-0.10057675429546144,-0.11975109117496875,0.024188738421704572,-0.03791708449673578,-0.03865767329287688,-0.04900688543010469
0.027482651796070633,-0.006478797122334652,-0.08049206311065597,-0.10903859343771387,0.03781242630689821,-0.04000404037129366,-0.03950056005659304,-0.033795392769179915
0.035330040551381156,-0.008257273086094795,-0.08897197595559954,-0.11630343347233316,0.040850831500455785,-0.03442337598559879,-0.0456456131984167,-0.018030814153034556
0.02594120964348214,-0.013665753279440912,-0.0938240540461601,-0.11578528265213836,0.03261753993186533,-0.043403697556379975,-0.05267367620376033,-0.02400743245357694
0.017629956543491903,-0.04088052123748683,-0.09797491261467083,-0.12085447753608654,0.0283697605413757,-0.046114498467666624,-0.06751106303609619,-0.02860356871098905
0.012822339656904035,-0.06415018243712242,-0.10416881095914675,-0.13131540993460117,0.026291110479209474,-0.04993738558732692,-0.04807755666128963,-0.03270855490654064
0.02475482239796081,-0.0057865277460820395,-0.08431318070068808,-0.11034892320064806,0.04415497611377285,-0.028145564835897655,-0.05012167119933973,-0.02052883984608246
0.016417659016251914,-0.028172150113464703,-0.08813657081879976,-0.11195424017988818,0.025662534669338856,-0.033258560740914885,-0.04824999209350424,-0.0014458540180243944
0.02371067657895448,-0.02248258363787328,-0.08222134813502921,-0.11197577878679936,0.023028946970818434,-0.03924164758632077,-0.05343464761747496,-0.016732737858963592
0.015978051733430292,-0.03065383196741995,-0.08878454310941669,-0.11054278856195147,0.03056090412976964,-0.043114902891299316,-0.0533147596660941,-0.034209911243145236
0.0372153644722777,-0.01161222761456036,-0.07105990280706742,-0.0978563059287008,0.043367531389921075,-0.030197821540848883,-0.04080447982568438,-0.009443734230484
0.03363520874538011,0.0013890873747821177,-0.07306906690355681,-0.1053013510400262,0.04094167851818988,-0.03228022431630475,-0.04581948367990312,-0.014449638556578506
0.03542473846348168,-0.006123573359639676,-0.07763695784454197,-0.10616350816743983,0.02738482964142385,-0.036074857079922064,-0.055330565448657484,-0.044619898981366195
0.021103813750011993,-0.02542705840955299,-0.08399594039358776,-0.11464949999137679,0.035672274619325,-0.04676270505508385,-0.05729747819663751,-0.04269796724488556
0.017345891675405862,-0.029967799186455955,-0.08658988572475224,-0.10397174055281151,0.02937070012226998,-0.04366738271777958,-0.05959634897719657,-0.059015668801009155
0.038002461059161975,0.013170854241474331,-0.07571490876370017,-0.10345040565890577,0.042000182683050606,-0.028274904796335414,-0.0348412510068292,-0.00815022377944766
0.02771644637500099,-0.006938254010165314,-0.08054735594396674,-0.10926289038261328,0.04120967139909198,-0.040344889614212835,-0.03766767117794075,-0.01812588841063517
0.023539454522464927,-0.011510453221208162,-0.08243721583122703,-0.10288068517085791,0.03400578582794928,-0.03351618166118493,-0.052224161943463,-0.023488147511328588
0.013028780415153558,-0.034741780130560326,-0.09050506450431862,-0.11187359477954528,0.024474010671466657,-0.04444218280978798,-0.04534986202826261,-0.04432336149964927
0.037494730109492405,0.011028028726142114,-0.0703091018095151,-0.09624444890506582,0.04332062344581667,-0.03298347243452988,-0.0379257736689393,-0.041981882374888764
0.030666430526390436,0.010811963347098814,-0.07053370548004978,-0.09556480375839273,0.04015185625838195,-0.028392485241123037,-0.037449009332601604,-0.020228904262968535
0.03854989642269996,0.021051050748645963,-0.06861697721164753,-0.09164477328354996,0.04052417358387789,-0.03586756701715403,-0.043023160891028304,-0.017151711983297013
0.027031671808928393,0.0036713071056014147,-0.06773513989581889,-0.09172451355705867,0.033605219496092915,-0.036191549585109076,-0.044843410228706346,-0.035732837116707605
0.02406462345062204,0.0019761176215792116,-0.07287596576297721,-0.0859413698738576,0.0356044912858835,-0.0294278376757172,-0.038692073229433376,-0.03445710495906165
0.037666748032608666,0.012545839980919684,-0.06741870008448374,-0.09272927013369305,0.043911860050190224,-0.02103313534216472,-0.02877372082221102,-0.01227244957142225
0.01731593453852703,-0.010146558956229408,-0.08236040742575668,-0.10363355763862286,0.042393195218810555,-0.03913893733296409,-0.04112654822447502,-0.041604051311981055
0.0183240563586036,-0.02657461690833587,-0.08666923185782358,-0.10498484158100485,0.03333684705034975,-0.034711639959592276,-0.03649244126634335,-0.04962511236153394
0.007345628232729967,-0.04188245628059991,-0.09210543749878239,-0.11093018235757783,0.02802685058081536,-0.03688984273851139,-0.03646822539907479,-0.050932260998820755
0.02779498568012648,-0.01621496784371704,-0.07277170767670167,-0.08882188805142696,0.043831638220036086,-0.024264889248880192,-0.02615881564775776,-0.021834303118657777
0.02548953986177339,0.0011212652417953457,-0.07300977342859971,-0.09075484900011917,0.04290075991774273,-0.009648140787745564,-0.013761268213947634,-0.012752684396364525
0.031523709176914605,0.0020032747061619833,-0.06978993495185015,-0.08958917445028439,0.05177807783336407,-0.015081988657683497,-0.011281047601680756,-0.0014615165948930946
0.026021491852435238,-0.01624980091259124,-0.07741824298704417,-0.08717194254265244,0.02530109370100514,-0.014222764838740359,-0.025880804264349824,-0.03976965883280902
0.026172859198613514,-0.015178826846004622,-0.0704871692740316,-0.08091572532378365,0.043508917385135175,-0.014956941882708866,-0.017828328270788552,-0.04427055921184949
0.039674956507202735,0.02361580621137867,-0.06327734950448317,-0.07873831589664011,0.044367002238059575,-0.012173694743618912,-0.005834771635845543,-0.034752417801691915
0.02956058678061829,0.007751881186601288,-0.06493831291087167,-0.0816187847460369,0.04305139712166265,-0.014811442678737253,-0.017179760463897208,-0.03666226350634226
0.03091289500449793,-0.003452834799883858,-0.06588027369346804,-0.07617917975885771,0.03558014795616146,-0.01806582601028864,-0.025753253758573756,-0.04073587973966058
0.03823105923991722,0.014083704242076672,-0.05825814629168313,-0.0609538361268253,0.03362312727502406,-0.01540115399159159,-0.01916756368058929,-0.05856323872280879
0.05088985348695626,0.0590942832236317,-0.03266420221982821,-0.04847557829699653,0.0533023446198619,-0.010643192580659835,-0.009165183248832367,-0.02719336566035319
0.046695657558171635,0.05069174729081029,-0.03991810177743653,-0.049591202427188716,0.043829226420818025,-0.01837927205119998,-0.009913858878972658,-0.04050376042187579
0.049379351444003364,0.052399607731812375,-0.03988469859010621,-0.053115473562355284,0.0429081562814225,-0.013267748191619093,-0.015333309350865475,-0.03566809814647793
0.04038480148625796,0.02243745026210079,-0.04631078934335068,-0.057003457604912315,0.03213940506893743,-0.021406149733021695,-0.02067793085488214,-0.05914463151542525
0.0459322041529946,0.04100600573162369,-0.04109519965339362,-0.05314473148793467,0.043026218272195646,-0.02849725685455704,-0.03200220691771917,-0.052863730774543226
0.04228080342269811,0.04335428923564507,-0.040846653497116026,-0.05636844947197266,0.04953660228735262,-0.0359320664339244,-0.030647437456061546,-0.04158531530630714
0.04567149895512236,0.03765787658635459,-0.03918771860057028,-0.051646263826109276,0.04718808835721471,-0.027822184993845075,-0.029661707145747198,-0.06103090857502147
0.037910109077557784,0.032826062248215916,-0.040796687957535965,-0.05567635812119963,0.04249572854167475,-0.03343571029681678,-0.037257476730529565,-0.06183999873446091
0.049091471241053425,0.04456628756905564,-0.029037324577092488,-0.03938947926382046,0.042436953676373027,-0.032013250298038476,-0.02632122348321722,-0.04213665589441962
0.05429493493518501,0.06981598123401256,-0.022294958117826138,-0.029687984523427566,0.0454475327940496,-0.022640757608677113,-0.03174455523481134,-0.03873746839725804
0.0532631031638688,0.06604827949820552,-0.02232951435788627,-0.03594805340243292,0.0475756484052414,-0.029593423531680967,-0.04258131618369731,-0.030974989084877058
0.04910574028676477,0.046885055158815296,-0.027844331395639448,-0.044940127554575486,0.04421781896526167,-0.04016295629007725,-0.043817920145395144,-0.00951409475352442
0.042210462507182224,0.03181554656067478,-0.032348445291423555,-0.04219362375411944,0.03251336660247651,-0.04273271514875287,-0.06086886609676697,-0.02224030999332962
0.06261987749387478,0.07079974273906059,-0.020409676547375244,-0.027758245655957765,0.04763084335591282,-0.03272424372236367,-0.04673549174834365,-0.017568476946487856
0.05595917803601294,0.048256126831833265,-0.01959131976041976,-0.038083176948775235,0.041712393584558326,-0.030822554325170996,-0.04249945979420719,0.011544677651788156
0.04299189616967298,0.04790581980181469,-0.025050385892535564,-0.03355882331766493,0.045047706841672405,-0.036276005244302495,-0.0396508344719734,-0.02792784197508741
0.04234046140823767,0.017628755588188758,-0.02986939883954743,-0.04382908318032256,0.0418282830584318,-0.02543410845422509,-0.04621104309631396,-0.03250002882808071
0.0539056264258953,0.05690377966464416,-0.017660135095938997,-0.03594507464096498,0.05326429075443911,-0.02458413235906243,-0.04090738061896134,-0.013440606009087598
0.04476209371526651,0.04803227394137039,-0.028451671207819735,-0.04874602326861046,0.05093633729382158,-0.030962115403427876,-0.03701618359525114,0.0027031958087315386
0.03761133090033457,0.044640073775401364,-0.031645418377799175,-0.041187531304513365,0.0437278661643834,-0.043737980322865654,-0.046777370486511406,0.011183228642367702
0.04005229807698482,0.022543770039352304,-0.03137636383002378,-0.04354883638614725,0.0382202831809266,-0.03544443282491678,-0.04116433849115465,0.02645187269193877
0.04481453764955958,0.03897428416703733,-0.021183302603472672,-0.037708144461440635,0.04088141728850032,-0.020001351500964413,-0.053001006631387244,0.021722673128635323
0.051650523758659236,0.04551195811951766,-0.025264537894544848,-0.03226423408489941,0.04677864103917193,-0.026500384140832296,-0.04932829311346331,0.040633914583280105
0.041879841892369575,0.03873806307845077,-0.025520026277256195,-0.03788155141393882,0.039117026865634605,-0.03730815617369527,-0.04480005098589262,0.03613619264996491
0.037504003511725836,0.02835191845186875,-0.027561505086817192,-0.046701371769012845,0.03790054118896564,-0.04549569919823844,-0.0524259872635558,-0.0023326386497075553
0.04003388114798503,0.030821729694437243,-0.022628860184292336,-0.045182912215085476,0.04384179713062234,-0.042646389164152004,-0.045204612161308444,0.0037661940776041007
0.042191550384000555,0.04510010734575122,-0.020958422574673098,-0.04427291065236817,0.04276515526101232,-0.030254808602914907,-0.04611631100816078,0.006786755932846673
0.03511445118981178,0.03927597564829999,-0.02154298224650963,-0.0463793964153168,0.04214085864229467,-0.03980815203531597,-0.051168173308851185,0.030428131972953833
0.04274347102568254,0.030651640642182672,-0.030146867539496403,-0.04944067915295113,0.04145629898506131,-0.04971130449887084,-0.05149962233932401,0.014938913719730879
0.03665915985175975,0.025197987926631048,-0.03481420713884081,-0.05239328442124759,0.040395937631405185,-0.03662713707838309,-0.048089373000695095,0.0014873759949908482
0.05190781415402027,0.0631093857869704,-0.017236365285862903,-0.040861521450842445,0.048473619774538915,-0.02624688426862036,-0.04422382526284269,0.05751541076474547
0.04579222953119885,0.055541516515203206,-0.016672532405084275,-0.03937655358185587,0.04451331875413456,-0.04524392714927319,-0.051006889184369214,0.037903232781245605
0.043694020325745445,0.05449370424013849,-0.019274008122892435,-0.04615645029139675,0.047328675976836834,-0.04276331824005511,-0.06578425023649226,0.03651018895982923
0.036153155622464954,0.028293223537737486,-0.02894716357885061,-0.04419124621963087,0.029145145497271454,-0.0521612026634927,-0.07199848141551979,0.001995082861253283
0.050906989481553304,0.04481488358178303,-0.0210159598646475,-0.044635430566701315,0.03865157111289289,-0.046901346586912876,-0.057881395010064764,0.010749304576146696
0.030339618176258316,0.04570997206749378,-0.027393647418017784,-0.05368031438733711,0.03614551370522138,-0.042214922923670094,-0.060729229420544484,0.037965506419353104
0.027804001937794462,0.026482827031289076,-0.03257794175459551,-0.05837385666195992,0.03025572819537559,-0.05420942403117061,-0.061671373631325785,0.02870800629942703
0.030139196322357363,0.02073747039148224,-0.037303557859428696,-0.061539260292235345,0.026973304498000207,-0.0435506016785503,-0.0703953766581398,0.017124497278732925
0.030366210225357466,0.0022877822325704,-0.037663413405713594,-0.05903599647980191,0.029787764313072684,-0.04504949317490275,-0.06190672617227814,0.013809522386961657
0.03943554841261343,0.035540213738997295,-0.026940956045609494,-0.04845371285361232,0.03432998808509604,-0.048612263915602624,-0.05495225162850788,0.049728029086987195
0.03519260300408017,0.027057465770061094,-0.029714779900759842,-0.050183383339291725,0.02993356376840844,-0.04245047650494519,-0.057106526864748694,0.02840795899121793
0.03436734980977022,0.020853429018163335,-0.02548689668912011,-0.04798323555936157,0.024076943679062587,-0.03989158984279015,-0.047248337558249295,0.007262599310145235
0.025884570985920174,0.011627820296246323,-0.026319317621233726,-0.0439567860424394,0.019430171732417876,-0.05386332881077349,-0.062022509873316437,0.0074892465319702
0.04074864837866129,0.05438922757558025,-0.008873615607909086,-0.029982858915487492,0.028222225790848987,-0.029780064670920047,-0.034689938358190904,0.011407704681869066
0.033768826886024124,0.06067292175838147,-0.01313138122919135,-0.02944963663446711,0.01844185270612206,-0.03702233554648009,-0.040901985211824615,-0.0052616765922255835
0.031011609069386804,0.05957272193306178,-0.00811617508986605,-0.03474427959401832,0.029374869060719528,-0.04403235084645957,-0.043529148642176566,-0.011979644686364112
0.031001279438497644,0.03536183951233857,-0.013585912003447081,-0.0326784189062606,0.01295666234376487,-0.0535267390561495,-0.047087566257631455,0.010069664672300043
0.049304174046928544,0.05459163361922736,-0.005545614238508395,-0.023347641394353594,0.019077275078232994,-0.049559900425271426,-0.04770311461768092,-0.03050304740933132
0.046916237407726734,0.07593441284027272,0.00354791191156831,-0.01682133107660745,0.029852714167224917,-0.045966556289947336,-0.03742796908808279,-0.003665814670632617
0.05479461627367843,0.07969504823977286,0.0031880875015951374,-0.009495998737193107,0.02204138050055328,-0.0453991591243499,-0.043538553156447356,-0.005576489028636673
0.04851728427936138,0.07030988990816493,-0.001100688461430899,-0.008427986606239717,0.021816473978650535,-0.04235217798748871,-0.05226348712340674,-0.005357045975458141
0.0419265674654826,0.05468069734375842,-0.006056704543701524,-0.02222720199352563,0.019779066870001243,-0.04463224218154021,-0.054604966850375705,-0.013746828271870052
0.059602025455780076,0.08576201210778144,0.0067965107825718515,-0.0043779927776224,0.0301059355196877,-0.025497952282135656,-0.05084204785959176,0.0029230792842889555
0.04793420927502777,0.05898947792936291,-4.0615159110066976E-4,-0.01621413158528759,0.026319818591167544,-0.0375404550340672,-0.05028884273129508,-0.008327791619754471
0.04401367813968218,0.057140889585318794,-0.006349394375268399,-0.019498710194198382,0.011822386830421222,-0.04403481119610171,-0.048116803197507635,-0.00372639409269059
0.038913871382333064,0.03285315121685148,-0.012211485523167335,-0.02323919993053181,0.025449468694203153,-0.04649516808249497,-0.057163045426734775,-0.028208968042164818
0.044988798072416604,0.037062300611449724,-0.005068951275867108,-0.018794720273649663,0.02436738514512602,-0.04079721809931331,-0.04088502388383369,1.6120036095333036E-4
0.04608864455901534,0.06150061541944683,-0.0028216386003679286,-0.016447358138529784,0.030888448640350237,-0.025775721537238838,-0.04261827243145939,0.017162187534348537
0.048588894294043374,0.04793097270757553,-0.005317290702726024,-0.0174447700510637,0.02313917457667756,-0.04115303485602561,-0.03399379401246057,0.0029948467366472655
0.037698029189953,0.037950979068545526,-0.011692642336635192,-0.010475415904548726,0.018680860693145698,-0.03834616559493816,-0.033621581702434504,-0.0030095170347244756
0.03874901540042083,0.026393613859509498,-0.009451282607618064,-0.015687504062853103,0.025614156685828282,-0.03038392756163291,-0.029751325872899418,0.010679173386087423
0.05096131090739846,0.06259745168175737,0.0011726439942955883,-0.003734855680373529,0.03573394868230792,-0.016378110793622263,-0.01605184667108547,0.019534515979714076
0.042400559947452114,0.048276785857860466,-0.004893069160310389,-0.008666510365646682,0.029081233456781257,-0.0221054365872993,-0.026246004550937906,-0.003756487193021183
0.03652804435824534,0.033033648352438647,-0.005469238167574286,-0.010415133867777395,0.02336243891652876,-0.023168811977276604,-0.022340772483782054,-0.02235328902372132
0.026234088485098554,0.016147315664544595,-0.01700542563645025,-0.019481113785652628,0.01876273652774324,-0.02649372218668373,-0.02586664887915149,-0.014905565061314291
0.050405879273774455,0.05508753373934962,5.25035481819053E-4,-0.006417018232482845,0.030368781955276633,-0.01565105752584561,-0.006808001222616125,0.02899423184235951
0.04622568113334789,0.04669395172052195,-0.004140835353463402,-0.013589096860207359,0.026188336963709914,-0.024010153176240584,-0.022191479306973554,0.012049580496847971
0.04521297664053259,0.05287497005958327,-0.006205111993007828,-0.017870268670760484,0.03866411447790033,-0.03042035326624571,-0.025804582181345626,0.0018514405447538776
0.023840262598390036,0.02034021915610334,-0.012906902743330662,-0.025881110845743575,0.02257513094346543,-0.016669982772914798,-0.03853480705694971,-0.031900928751468334
0.032843119303340905,0.03347183826108994,-0.0036787660068512136,-0.014391174390736191,0.03223893549035959,-0.020269231943866924,-0.020625483607293566,-0.020580660402450896
0.03790510426582327,0.047750703867482674,-0.007823207905842438,-0.018717827729375115,0.024267833108657693,-0.013214911845773872,-0.005818781589396738,-9.742480303944842E-4
0.025239166133517697,0.018508526014595007,-0.026234834302856398,-0.03898866801945718,0.02720884203326746,-0.034724763697140865,-0.0324019361777996,-0.020320447509687936
0.019754035907026485,-0.0012959497571414372,-0.031306255916487814,-0.03608370732841863,0.015811730292998212,-0.036876080809528984,-0.026482449753765906,-0.008301764201270483
0.01303644183454407,-0.01638044379507201,-0.03864025999740595,-0.04064100860303802,0.018163956199382412,-0.026163277379413676,-0.02414251935467243,-0.01956583805491626
0.029776659192158054,0.022533332967446702,-0.01862578936342071,-0.02879661862861029,0.030199668013056558,-0.016042277472004516,-0.009778560285547074,0.014876320524912959
0.01813614260246205,0.01570409434617335,-0.029207153070809136,-0.0371109605600359,0.02606420562709455,-0.021055102786417822,-0.01640063073856902,-0.008828434435322233
0.015038660899701706,7.873113915800195E-4,-0.02994356419659342,-0.04119412144084165,0.024222664175853177,-0.021811741087811386,-0.02533861725091005,0.01185863442278616
0.004986587189728701,-0.01451075771535437,-0.03781708392397149,-0.04742507925589628,0.02231195586898587,-0.02841410271274328,-0.02047605505311453,-0.02967741438345135
0.028935235418376854,0.014216687120698563,-0.024346428283175355,-0.03193472029848821,0.03510961719440581,-0.015779726610212295,-0.0031991736740660517,0.004937261177954013
0.026594455300541487,0.02976902259529247,-0.020833422933590966,-0.034007703611559185,0.03475587198163409,-0.01259421383591629,-0.010008939503656136,-0.005441265144179266
0.03088434011978339,0.023072009594640407,-0.024451106507738345,-0.028020173361895762,0.030478896813662292,-0.011165772327343122,-0.014219135137281121,-0.007821622367268752
0.02253270789146184,0.011826510214234873,-0.02706102836172324,-0.035600841608935785,0.025882896308330267,-0.0169326862644851,-0.022090441123316436,-0.02087820393219207
0.022972224082655188,0.011494606083556206,-0.02216647142607343,-0.031769097909376744,0.03166300183357812,-0.01554397599388551,-0.02514734708806175,-0.023965315540893102
0.033920631866197135,0.04454930095305204,-0.018936202386794946,-0.03687075153512403,0.026597113201226312,-0.018132835786130428,-0.011531303058615345,0.007764221506623148
0.03195486612473558,0.040801109933395724,-0.017661974079234467,-0.031976035334600056,0.02550269712877144,-0.021116548130005092,-0.025845977029103493,0.006169035270553391
0.02719610449454673,0.0331156270227638,-0.017663643772485242,-0.023559863064729028,0.03284348792037091,-0.023856035499972773,-0.029038407448123034,-0.02296370224703945
0.029593150718869577,0.02462693060637599,-0.022131539919531918,-0.03341129549653907,0.028758116384556234,-0.02445103906744647,-0.03345367012258386,-0.015626904703189774
0.04103963912031077,0.06869319966458277,-0.005507150882847596,-0.022451481226754482,0.04026099970065346,-0.015761728955617078,-0.007384924662136152,-0.004869723536985947
0.03935703757099312,0.04480786135897525,-0.014780343409397075,-0.023381379446003395,0.03313506031358479,-0.020574723907644806,-0.0191886162147008,0.012856924890645802
0.03667446927084774,0.04197846028436625,-0.014225505232434455,-0.027591226462689182,0.026959893916878887,-0.025162766849248022,-0.03108810080818444,-0.011598327276808462
0.03268771904883705,0.022890109297524178,-0.02467314814211556,-0.0380782538461059,0.02248425782344419,-0.02479150517510126,-0.036340808507643055,-0.024696252574918955
0.03600596152770243,0.05144297789948473,-0.019770695728448005,-0.031205883335575755,0.029955624918883494,-0.017839299324179478,-0.02273060735923547,-0.003746263795163101
0.027053717429929753,0.047026582519529174,-0.027771057839747468,-0.043299449624177394,0.04034764042646502,-0.03772641031418325,-0.038642599797926856,-0.00489176670954614
0.02717189376379746,0.036416725540088644,-0.03244861744236134,-0.04065451054779046,0.031004745859917172,-0.04397045841019644,-0.04915605912350959,-0.010407268482927959
0.026561871719148873,0.035854799759067975,-0.02850173824054968,-0.04381718395155237,0.025026931422267053,-0.04431131548083302,-0.05645238722567875,-0.021596708156941168
0.041771476181353344,0.04751899126456071,-0.022296068942469775,-0.030558966347942137,0.03736980349944196,-0.03563119210027135,-0.0495599220446163,-0.00699528069629837
0.03830171245517178,0.05149983130228776,-0.018067726131206236,-0.03961785846419842,0.03544666335896005,-0.03742656471285018,-0.040414373020703095,-0.01005388689534043
0.03628279370045175,0.04731304496725736,-0.026641036740061484,-0.041059553073182535,0.03473519370494192,-0.0480066769257398,-0.049706796404906155,-0.006237943535677927
0.03161685932659337,0.032899732504939036,-0.033496936943185625,-0.04551433700160315,0.03043113493188577,-0.04327286865519191,-0.042205953615287735,-0.0153321617516348
0.03453756113413614,0.0383298899927055,-0.033220569571888126,-0.04548105904639122,0.03637247974143912,-0.03340394871231523,-0.04314924929829986,2.0890817220660886E-4
0.03739988040017604,0.061575919236752236,-0.02113128119277727,-0.04547833419355437,0.04197150621057261,-0.030167678947449546,-0.03407906785888593,0.01850441123834181
0.0406782189744826,0.052341643747783856,-0.026600764842821062,-0.051008641782357346,0.04037986172556833,-0.022192028761344504,-0.03079854995596471,0.008302270460509504
0.03801754237267448,0.03174257239798474,-0.0354240361354982,-0.05296084463476563,0.04530396990011113,-0.015496938157658674,-0.04236986486793415,0.01404796617453445
0.026008632282382517,0.022424096756216174,-0.03851056279511095,-0.05656798496021466,0.03649783571523016,-0.02318200434604823,-0.034683789023604125,-0.005821477781125868
0.04202531497339366,0.051948420748837376,-0.022406993490931643,-0.04755076882182551,0.05548498482964757,-0.012155379405118525,-0.012202092423028742,0.028801955781388375
0.0354548214649972,0.0435686451032908,-0.03195882527146556,-0.04245754892741587,0.04405591078693374,-0.011018710374211671,-0.017759050105787905,0.027741677880324316
0.03343525582281604,0.023710063337534514,-0.03817945003047745,-0.058535881274214926,0.040616373557289594,-0.015608364121727404,-0.008790541543813144,0.014060268507027759
0.023345832055494713,0.011323765234007273,-0.039738494861933135,-0.05289504301072658,0.043718427706391005,-0.01455776926033788,-0.012737150826222857,0.011229077287141303
0.039232608447181024,0.04857519844288433,-0.0284708091667496,-0.045424805315159314,0.0571434094728683,0.014984567991538583,2.3795357486412137E-4,0.0549021587255639
0.03664780008021941,0.04011304235229565,-0.032298859558423876,-0.045795826146099096,0.04678108047978204,0.012127423137395728,0.007963868627359448,0.05684517123627764
0.035942122618063614,0.04210025259413169,-0.03545573619304312,-0.04733119623481925,0.05467555682338521,-0.006695829691331295,-0.0036592924909725727,0.036760774370855544
0.034758639435957306,0.031819585451649514,-0.03076878978103658,-0.04136757003770914,0.047380763057884925,0.008795968120328073,2.232377981992953E-4,0.030534730215992865
0.04668606780047453,0.05838180008165133,-0.02338777743770257,-0.04198041582797903,0.0609787915193008,0.0227869768579843,0.013836358634598213,0.05175892657707102
0.04159615340325703,0.04816497032072984,-0.027922836338741958,-0.04226718616525763,0.058465990067198124,0.017964532471353607,0.013551301912223902,0.05817641729310065
0.026157989270794102,0.035836831194959576,-0.03601402906269257,-0.05079877116680128,0.048148701597784054,0.018658162452967236,0.02416105271785447,0.027063594479625325
0.030814867408311592,0.03201123765103045,-0.03214572819115058,-0.04611568108364574,0.047268371765062205,0.015450340732899371,0.020480130970582437,0.03892164624856541
0.044335636288710054,0.05253483487500294,-0.02330752405874566,-0.04787916374823487,0.05811448809049999,0.026225573408349183,0.036356556839172494,0.04749522393407501
0.050133590192772165,0.03586858911141748,-0.0324300940999897,-0.05255955765933693,0.048446169453140064,0.006929708265185437,0.01625604327500342,0.06199389523648235
0.05921093045321765,0.010453488258373849,-0.028978662911120986,-0.045424744101164594,0.03881844522626279,-0.009460690224174001,-0.005489942151289187,3.2512509345760553E-4
0.06008756522135492,-0.009811703504036375,-0.03542415907460986,-0.04292382046981636,0.013078172681270645,-0.02037751697560098,-0.013913220164242464,-0.027406411438032283
0.06874398733666567,0.03218104391938818,-0.025408398281012712,-0.038281232531883695,0.012368312494041538,-0.01701623938312824,-0.014601932010306493,-0.026498759659678538
0.058040285781377265,0.01896475121715155,-0.03341633558862409,-0.04202496662089223,0.007621894625324408,-0.01008344057502629,-0.020595046321743436,-0.061774611562638276
0.060119884719828036,0.009199128596596481,-0.03888150197161424,-0.045682975851805224,0.0063255109928356725,-0.013213591894720027,-0.03238278315041687,-0.057308599194565844
0.04812204700445218,0.0014961098400952041,-0.04399118832698981,-0.05454337097739193,0.007784625044514168,-0.026968005181699384,-0.01712390593611861,-0.06516826465010145
0.06558703031801107,0.024878618576267983,-0.03163805774077951,-0.046883820106745834,0.008850403342924288,-0.02099102859894365,-0.016506848299172646,-0.0432314489852157
0.060764792841132446,0.021783677720115985,-0.03751338307739766,-0.048815621488872064,0.007534610383013635,-0.025047745671222994,-0.014638474953792351,-0.04676091763083015
0.05868788219689359,0.02285914719542669,-0.04312079009689357,-0.04298496171372012,0.0010099252808236036,-0.039413255032573306,-0.031014456715861078,-0.067509338786733
0.0590262580014371,0.004364722563778139,-0.04202968746300569,-0.04495669083537404,-0.003191426180744503,-0.033097103914150494,-0.04042584073001111,-0.06697911832022954
0.05209564061018642,-0.003214327637524608,-0.04829846439282241,-0.04588281962602515,0.006129444936712558,-0.027153266258313907,-0.033924411910325726,-0.08587860943224204
0.06528680347951443,0.023960614949932377,-0.03376834815336246,-0.039859076234441036,0.00902003530581673,-0.023628015304796586,-0.02400987771603159,-0.06696631758770723
0.06322170042183874,0.01663882382445463,-0.04563068428971895,-0.05107291067618706,-0.005111552113065251,-0.03429200626402744,-0.018922907976332656,-0.046404636101584865
0.051027956712890295,0.012161444362145295,-0.044778827446148375,-0.041407232484403915,-0.007921405995503207,-0.034530114886909824,-0.01679923686890474,-0.08893671339958645
0.04872141509218313,1.1491892150406048E-4,-0.04603634327196283,-0.04885330742118948,-0.005270898799691076,-0.03954276793208754,-0.038535477843616044,-0.08778664786679254
0.05656617866417263,-0.016370324652021574,-0.04804077829207054,-0.051270217205291756,-0.013738458810083358,-0.03935799259956772,-0.044735014855920976,-0.1214591509822261
0.07143792713811398,0.024597754310180155,-0.03643148632405803,-0.03817161639232179,-0.010118340554611057,-0.03755135758259423,-0.038532918653822384,-0.09517158900700039
0.06285858536789124,0.00811414199957758,-0.03878013540540258,-0.039314152297233486,-0.008635829621313575,-0.041105485647351586,-0.04282850555348639,-0.0649612722379501
0.052945561002312985,0.002101383911765179,-0.04556524118281033,-0.04039418430992585,-0.01226636293436442,-0.045259303405200374,-0.03526390567619776,-0.07308608400650335
0.043825218763868336,-0.017527980131716227,-0.06615301366316044,-0.060106863261140064,-0.038504886846516505,-0.05916127821065246,-0.059312428272779334,-0.14668677343081402
0.03938420093335452,-0.013971980957679942,-0.06705621471671623,-0.05685303535406341,-0.012569984102037421,-0.040775937589491815,-0.0322708631695287,-0.09820692926305599
0.04250562771925676,-0.00462055598074401,-0.06972593116801874,-0.06910882477588176,0.005017257018110335,-0.02704077001109158,-0.03974488141899928,-0.05981938900837159
0.03415456497724071,-0.00896259574510514,-0.07599088045768511,-0.07488676101958038,0.0016958937124412997,-0.03738215644350238,-0.03685088555854448,-0.11091793670448213
0.0381126589311461,-0.018867435153528542,-0.08012867524458862,-0.07716570496825056,-0.0011907330396876373,-0.0325272513636786,-0.028233016966079955,-0.1089704593576632
0.023518966728527133,-0.04309314360898731,-0.0901312548136654,-0.08644908498676296,-0.001289170151187422,-0.03403081867766684,-0.03285659001882816,-0.11506173262614441
0.023539075964951927,-0.026129700386566954,-0.08201529730149588,-0.0784590272100952,0.00809029661935027,-0.01478882661706334,-0.018411721687328488,-0.07403825692343936
0.03475751002208616,-0.0011073770621360932,-0.0731729072574774,-0.07212548128761848,0.030345420642369055,-0.008461045737221477,-0.0021682103677792934,-0.05739264443395258
0.03391038611437344,0.005423296960019986,-0.07297788394374918,-0.07868397420326034,0.02845693980318116,2.989488606829031E-4,-0.0018328140335512643,-0.05305252800331406
0.025425021543964043,-0.0026512232448372996,-0.0723226870316372,-0.07770140361176092,0.020131563285942407,2.886710773907302E-4,0.0035006697843504952,-0.05784099836190222
0.025476918729404077,-0.0203495257184452,-0.07624309947762054,-0.08199263486870559,0.02333211118515477,-1.4708151285759403E-5,0.012606164107606304,-0.06059217500368108
0.04626672201592934,0.021267459411197266,-0.06602585393135195,-0.06679191412241496,0.034081052784223874,0.011419077904232501,0.03162797016970539,-0.0320770110223612
0.03473753089302587,0.009444101617202608,-0.06986643088670183,-0.07328888489439882,0.04020424341204045,0.011018578813803876,0.019833709508550276,-0.009187592165248433
0.03226224665867043,0.006602972332764278,-0.07045416013265121,-0.07464481888515401,0.046138317869366334,0.011815590563951088,0.021492591009824896,-0.012490645623929464
0.023677090306640156,-0.017532590439901255,-0.07840630879431829,-0.07555055881392374,0.03546985992860956,0.0036125040460846377,0.01421951894242347,-0.03881771755954523
0.034416303965442346,0.0034553778295573576,-0.07025156610789968,-0.06715088682127737,0.03943594992695377,0.01493792520242454,0.03238929799305024,-0.038328198657420355
0.03300447970973657,0.006401779358358082,-0.07454865128352861,-0.06708287041534633,0.04449756271828809,0.01677636529691634,0.028028764222623976,-0.022758957030395877
0.030615373646550773,0.0021189654337680137,-0.07305470544764796,-0.06866070338034508,0.050745362327419885,0.02386809447477331,0.019613858472047486,-0.002858634205876943
0.02086528070526894,-0.011680108455287838,-0.07668590301704376,-0.06860855713110671,0.049907199877066384,0.014728571474923327,0.028547581736032394,-0.01432024437933064
0.02768399408067151,-0.019188952550846943,-0.07411791653778803,-0.06729084993189623,0.03985336277049685,0.020043214253273912,0.040445495880570725,-0.012753352165679493
0.034135373082731464,0.017771475412399228,-0.0654504182382375,-0.061208897206029955,0.05527560244350882,0.028902053509995636,0.048875432246441496,-0.00846016790837525
0.027549978938527342,0.010056913378574605,-0.06436735002339355,-0.06040226069332116,0.04752543093245726,0.025984350954115654,0.04501165396077671,0.006247269066843558
0.025708060533328657,0.005410457836511546,-0.06785629111963559,-0.06396852069880175,0.05261139028334904,0.019885768981704514,0.04573116305971007,0.003710460420554769
0.012837228502097588,-0.02252387598956719,-0.07362918265259609,-0.06433706562236197,0.04230837476531939,0.02702263920582266,0.04702332354007378,-0.017445388580129072
0.03350599146608929,0.006169788140130064,-0.06335524166485632,-0.062266276028240405,0.06518534710907109,0.03815528349315781,0.0512676856480839,-0.03688091574449919
0.03083318595571199,0.004837899606655526,-0.06824853260477906,-0.06396737195837074,0.05793414619066853,0.039238774215982306,0.06064651278382417,-0.019181347361723784
0.026397749441046142,0.004170857251053821,-0.06636416136557087,-0.060414201970843635,0.06639246665269828,0.04603425950896264,0.06775244779843603,-0.007619355837978351
0.01928470450879432,-0.009758789732872516,-0.07275904453572314,-0.06430893028649304,0.0654699500239342,0.044345979142240144,0.07198222237694901,-0.014120847432477233
0.016265561095162046,-0.025877975195996338,-0.07239537028799287,-0.0707326443515271,0.06249071818470939,0.04484223186919952,0.08044661507017824,0.00841565326563978
0.02418187161035736,0.003886765327608489,-0.06860726117543209,-0.06163640649837472,0.07528315190979336,0.06502507559729212,0.09257539083594202,0.017226088895390637
0.01759083747236688,-0.013668006606682543,-0.06988671345721965,-0.06064714852716066,0.060963987632673335,0.07095379679197109,0.09961312923529902,0.03744442837145617
0.007910316583873738,-0.02746586493948198,-0.0777900507835902,-0.07353284942443263,0.07726157869979547,0.07203942484427234,0.11096510448791008,0.045695978004678596
-0.016911299200874513,-0.12884708479354676,-0.11870675878792077,-0.10146119762358212,0.009063639639009222,0.030133775835936766,0.04598852673408659,-0.05100596129652352
-0.00892920824437776,-0.11301623826292659,-0.108888794733966,-0.09909813500286425,-0.0356970316552733,-0.00806990256972618,0.004828410991243497,-0.15288365572208581
-0.006140027327950156,-0.11894634042948445,-0.11005917967979487,-0.09207101296027215,-0.041008380024193186,-0.02550497291724736,0.008540913940049919,-0.1402334129583221
-0.0024594677780440445,-0.1163755924891452,-0.10188226997706172,-0.09598679869842394,-0.03539806620940898,-0.0069852639253851585,0.00843701936047625,-0.15170941243920655
-0.012286374795361942,-0.12742616440944798,-0.10058748952272516,-0.09075016716182836,-0.03954971316979517,-0.01599351356278625,0.019684986994644674,-0.13738105986246582
0.004985631216099253,-0.09360783459567008,-0.08413716136541383,-0.07567285407859167,-0.03405232758838161,0.0012438995360123063,0.020718255063079272,-0.16648948822447912
0.011364099586327196,-0.07154687439432234,-0.07850637463175103,-0.06804582988428087,-0.03376984665929231,0.007910284019029063,0.03487955288230331,-0.1328462305447459
0.014578874689813748,-0.06168863084783006,-0.06359303078908768,-0.05080785588338908,-0.019132846304259883,0.009028662926019832,0.04172134336688256,-0.1607087753056807
0.015411690013652236,-0.06267862722787404,-0.06527384523071669,-0.05438721182036628,-0.022443974209131853,0.02334922441610287,0.04951497269196407,-0.14624874082509862
0.021762846972447507,-0.0578465435369392,-0.061182388746055166,-0.05130858576593653,-0.027848756792026686,0.03295277736819689,0.0652952287923076,-0.14696245950638334
0.04055423195303831,-0.03577295614400982,-0.05853241496298167,-0.03992725619380822,-0.015345725787391738,0.03665859867112421,0.07814228339193967,-0.1129632728009023
0.03393112268579162,-0.03658747038106866,-0.05744956369124676,-0.03745059163944676,-0.021285511159036367,0.042109581201534574,0.07426596840721122,-0.10966530124742914
0.025126936231280587,-0.042497194245572245,-0.060273504570357316,-0.040973740518531095,-0.013275407070228548,0.03092501659056546,0.0816036535405738,-0.09650384727785298
0.021062936450026354,-0.06294244361065575,-0.05870705085942634,-0.039629931500785205,1.189185111374918E-4,0.03985056058264803,0.08534995427182693,-0.09847361176376433
0.050498538906029095,7.060009455923346E-4,-0.03907780426588409,-0.020312597655101676,0.010422541669840512,0.06439573267225589,0.11051437141402083,-0.07170681967397403
0.046172036391188095,0.01069721352402085,-0.0347614616239766,-0.015612763600551636,0.019057350540176966,0.06618425341586831,0.10492733839737266,-0.06275158750565385
0.04924165039364176,0.028122502109178465,-0.029503787198851394,-0.00905828093065918,0.027374026516419136,0.06198333320911882,0.10869887193379497,-0.07548650354183767
0.055126825064172935,0.02262811303443789,-0.029678891107889332,-0.01358925130683145,0.023159154251631373,0.06329327559081167,0.09909483806689624,-0.08225651151835853
0.06084264844766193,0.03736711844106639,-0.016937605308385437,0.0013667295996346838,0.027704941702653352,0.06642436851230749,0.10630201307251723,-0.08756812608653256
0.07231051384176493,0.06667362527850229,-0.006022483764715764,0.008790397273312996,0.02823768961890757,0.07792392070226717,0.13216123761933746,-0.05114313338931962
0.06910813621910146,0.07312852449735413,2.6635001422311357E-4,0.007517290308743713,0.02163929752481773,0.07782992899675863,0.12425360473264913,-0.038951402039542435
0.07643306011660722,0.06582979218301777,-0.003126710362249996,0.003279654003088724,0.026855237208416066,0.07034683969578708,0.12342631813667285,-0.04190611566635902
0.06256369137812423,0.034394405015651754,-0.01624598684897229,-0.01388017053751666,0.018503164569791418,0.07564278996959611,0.10984865710316424,-0.0665144935592549
0.0632976354851994,0.05059003737464433,-0.01708933483665795,-0.02056303391607731,0.030090700480153453,0.06998107439059731,0.11401422861889736,-0.02585239445477549
0.054049133017714045,0.016912507994633938,-0.03034706554036798,-0.03389915396870502,0.026200653961967274,0.07045997441586674,0.12072284829071225,-0.055812470439043624
0.05428200472032428,0.02593000359448564,-0.025384847182894195,-0.03153341521138273,0.0347788991197144,0.07495785111037356,0.10853176156631598,-0.05144278596038339
0.04848179837107945,0.01637321136860321,-0.034541765328899424,-0.02703211001576366,0.03460580735035967,0.061704902037473384,0.11283572117117206,-0.033873513552517324
0.06407680690401138,0.028070659527582684,-0.029807207356861903,-0.0263094160150611,0.03613165731922393,0.0798635086406839,0.11943626153709846,-0.021646482606218688
0.06259377080379107,0.041203481919398446,-0.023323261655335978,-0.024156534968720972,0.04875597766763782,0.07664901037928332,0.1239391100129206,0.00782595793975146
