0.0819331462494387,0.09027686870153834,0.12841767268867146,0.13266438372513883,0.17009918637939928,0.21691611789244827,0.20657136394264383,0.5063411636417663
0.009761495008947352,0.12171799117927878,0.05454997233952702,0.05405089842356358,0.11975240319964317,0.1454759161408231,0.1407789538397388,0.5810121353331213
0.09371574047806273,0.10280758531387515,0.14408665313029714,0.12955928290978697,0.17993059316952204,0.21606574884486618,0.17726496156379895,0.5559714999969056
0.10324962257718992,0.06865900189944782,0.13550809565490257,0.1493609332687099,0.20987548239061588,0.2540615235338761,0.2593857410686709,0.6192722749729489
0.04443948509037279,0.08468886086393593,0.0758587776084977,0.08663046066871027,0.20514541103965914,0.21981101369719772,0.19051439168313367,0.5658372719267605
-0.0029281448151195024,0.04092299587868018,0.03399540163061989,0.025366351703127562,0.13211564038941687,0.16928154688151598,0.13066214945243068,0.5388387247387227
-0.04587951155595858,0.07634190614884201,-0.010268127799581984,-0.04097348744791627,0.11857698963344648,0.1092900842259771,0.09020502847909835,0.3808394817028346
0.07310227886748892,0.06853033635606236,0.11709647558068714,0.10554035969836223,0.23799996717936187,0.22496542803590328,0.2120473928335354,0.4362345688663342
0.08203402699095382,0.07952537038446937,0.08699228929365947,0.07816149380631063,0.2024807534121216,0.22600291184632357,0.19636958358591916,0.4920672921903584
0.0827328636591475,0.08240898967159858,0.11069684712124024,0.0990893487053045,0.20744445830075162,0.1834660994767195,0.16085997464358992,0.5563916590172541
0.06303720908644868,0.12577251894127803,0.07239510463173975,0.058215270281976865,0.12428745905269666,0.12753752541051458,0.09670381894850026,0.5710944107229831
0.10352078248325416,0.05255174576972306,0.13782005909829217,0.12120256069372988,0.14933052631381674,0.13913012780800094,0.10130356213853561,0.7016710375795886
0.16663283047970426,0.07319843429853118,0.19198689857311663,0.20437381191053336,0.23426092687550668,0.2338386464856,0.1839807446737251,0.6998718070077677
0.1864721107227278,0.0658998649699015,0.21541794636850764,0.18594224456042116,0.23774338984508347,0.2038600285445458,0.14326331191703687,0.5875980438541917
0.13812070405842422,0.06447084291422367,0.16335370040242303,0.1429475372267568,0.16714177825676388,0.12458845622423469,0.10144372348427441,0.7024757659289342
-0.033787853036115076,0.11666393530275165,-0.0214651733864501,-0.04684534707479314,0.1060826020425971,0.08580436000145332,0.0234459401403106,0.5856007219258763
0.09284361802489839,0.10340958081479655,0.10421582898294564,0.09830197564100927,0.22282175744221672,0.20726761462681983,0.13905572630150045,0.7512440336150892
0.12207885201988698,0.09776383366148517,0.1385138642676149,0.12985927270171144,0.20681201089313153,0.17737232942332737,0.1540329995231722,0.780902618780117
0.15475530015083663,0.09264929635281922,0.17048157448251264,0.14447476727337455,0.22917380191923828,0.1948249957247096,0.13081780779059118,0.70579090762194
0.12673117325491282,0.10798739063840294,0.13504505522025836,0.11568838845010945,0.1312921958742638,0.10793582277534791,0.08254630186867212,0.7512547763836536
0.12390380784779538,0.10219837437793895,0.14131061566959968,0.1281796986367807,0.14026337233721697,0.10447872993972403,0.058322517760716674,0.8505960814559269
0.2083797648597335,0.10264571677822952,0.22480709657453155,0.2233611195566048,0.21567671572905087,0.24371380788584301,0.17605701492263187,0.8738088240950255
0.16241187358194414,0.11716323022657878,0.1613117882121994,0.12523117400922312,0.19132574178862174,0.18114865564297888,0.12396257153811152,0.8811350807868111
0.15589267458315328,0.12874788872171145,0.13774425228018766,0.12199344400514399,0.18835884217333426,0.1392404977215304,0.102985080126051,0.7012739323359913
0.09180385569145401,0.09435722627286885,0.11883514271034731,0.08083422622134405,0.10284857680996853,0.058584006747069206,0.014564766710116226,0.7276197103153343
0.21408514407810045,0.08367910556803042,0.2246053866467306,0.18776451314566503,0.21521467892938206,0.18690707311691618,0.14572094767664398,0.8796297033295949
0.2298307179641165,0.09823066586762123,0.2374281030477318,0.23746067961841963,0.17167925642001672,0.1697300114311227,0.151749386448089,0.8575617827947908
0.22355584481222163,0.07804508001792489,0.22160407010737143,0.19731425093710664,0.17498410281740476,0.1828825237994446,0.1236915606247313,0.8494423318418356
0.1500328879204341,0.11007996627503334,0.1417127522362111,0.11520070921277883,0.1155373750414321,0.09708295820925958,0.06710908405261896,0.8088859858348976
0.2171140858792566,0.09753545402754131,0.2215144672713361,0.2052167723696072,0.160538137889992,0.17007332926929408,0.1321849631034531,0.9749563852299521
0.21996507442860758,0.16135025966762953,0.20922829600141613,0.2073007634083293,0.22932022879778227,0.20350651994017027,0.17305370923096483,0.9189943405569482
0.22622269774350157,0.13512021941021332,0.21923203479392914,0.22924775476900489,0.21102712041716035,0.19234971334790946,0.14187474301044295,0.9594079496054749
0.17574446415095107,0.15986395490372068,0.15956208507892575,0.11248818069031202,0.18103406843967682,0.15304108400353192,0.11265723068916801,0.9292094216179375
0.06409561240629331,0.1868507951866687,0.05963996512586451,0.024620023742429355,0.1285589902201352,0.14190657146459038,0.08754739795844659,0.799340480768134
0.1615995221837866,0.1867853676487026,0.16270295382796585,0.11129346739964666,0.2618948213872405,0.2744964772116309,0.23184470072513363,0.789854529011765
0.14627629836250433,0.19604622663308832,0.15328524006181843,0.1339113200682687,0.24968429982473014,0.2582301307680786,0.21848871093385994,0.9471910337986313
0.1550818919083554,0.22994235619973186,0.1542161408852302,0.12956742194910487,0.22832524456688277,0.22881779656351278,0.20179478716962712,0.9398571265193383
0.1053961563934186,0.20230237115797547,0.10645567676315672,0.09577066093977843,0.21410213588926294,0.18080676206177784,0.14423688624339823,0.8919962049599284
0.20443044077039194,0.19726027556116907,0.19730935614953327,0.1953992621745416,0.29132188119012953,0.2685960308743914,0.24697001412191866,0.9951485003470647
0.1950454370163166,0.18215971383971577,0.20059953796822014,0.19457709960230182,0.32976544211511,0.2672672039322207,0.24099286039344278,0.9965080757364659
0.19298459717664296,0.1958373017742042,0.20243272833786616,0.19937839238004726,0.2546115882269461,0.2546092741731365,0.21154951066962308,0.998489757116787
0.2010255640971099,0.17482815049585956,0.21509441570593688,0.21380814816754382,0.24563320310156173,0.20065391327094556,0.1422838225637592,0.9831415450951159
0.23546494950924324,0.1748146277669697,0.2620951300837572,0.2545207431328305,0.26712166649101765,0.24047811352388054,0.2019744129201828,0.9510493218326831
0.2629030762407071,0.14537880853200244,0.28781445629704155,0.3100797647203642,0.31333467700701295,0.2954748186436472,0.24957615615545314,1.0567249911540797
0.27849635392607663,0.13084616419570916,0.3049246521476326,0.302004847258008,0.28900194804376955,0.2786106729676677,0.23696388960899512,0.9353351484699219
0.24379036418682393,0.15329111807887857,0.2868837056874091,0.29156452932521537,0.27046198286184175,0.2624869724291127,0.21233665870415916,1.0714537029765911
0.19065372248976198,0.18166333239842777,0.22797056911622124,0.2205070008691785,0.2960498566554123,0.23398629836238116,0.18835902374166835,1.0179505782654015
0.1853572297071758,0.18228679897709255,0.19080420125271944,0.20103152997882306,0.3306171705237923,0.3364504607208982,0.2737115262886686,1.1146113705187315
0.16153224077961303,0.15747910315629238,0.17662530725127845,0.18017675778558145,0.32404590268732925,0.3247921393127338,0.27488369001244733,0.9969298477649424
0.13545067807715905,0.18964722745475288,0.15442533940135164,0.15244204871075298,0.30000842883046014,0.2603303992020325,0.22858978949050604,1.0555672302578827
0.11700975991337798,0.16827976109968393,0.14784750941256017,0.14178693693805347,0.26172891972039664,0.23713311623585717,0.18631558497479275,0.9837457345394752
0.24570237185002347,0.17069879910459274,0.26740350642297017,0.2750309338789319,0.37476165438946635,0.37566933285765064,0.30892015455715094,1.0151926418083186
0.23966761197457512,0.13774230655199424,0.2694678226991742,0.28588851265992815,0.38083981111593534,0.33361586661128867,0.29981858558839247,1.0150008893897016
0.24128467330970416,0.14961674063457434,0.30337879670477647,0.32860979872896623,0.3364224723408931,0.3111366647914455,0.2718349091865863,1.1073793110842716
0.19554673684428503,0.1607649138516286,0.24271857525500723,0.2538842468638017,0.2662155146947633,0.251787580635748,0.1847174793288891,1.0003893468099159
0.2126400795238128,0.12619430521704994,0.2561913114075895,0.27703084425342317,0.31868700822146784,0.252557485501269,0.2187851993931179,1.173306826816531
0.3007548270569598,0.13230791338380996,0.33145574507591274,0.37155663099272973,0.36830399657894597,0.3321111357254516,0.3037665508702111,1.0663875811464072
0.2561666767487416,0.14614290004237218,0.3064830005313408,0.31440138828626774,0.3710386491842133,0.3419836213859503,0.2791951550707879,0.9789698087575439
0.24167154725279413,0.13573266482322754,0.3001160207147185,0.32327261024315684,0.34643321399285865,0.27990509425884136,0.23824528005954737,0.988740886307481
0.2375835732973293,0.11480958058886498,0.2911922011720673,0.3087682258124669,0.2990426657245079,0.242744503663261,0.18010055730144459,0.9910417230836168
0.25163778800520736,0.14152252982587546,0.3076874422763745,0.33947601688235846,0.3636114641982004,0.3200595987961969,0.277207309463827,1.0071211738163754
0.27246196960731,0.11015975788329042,0.34940830055284955,0.3824911368005547,0.3736426364031828,0.3472768075823733,0.3123566677538766,0.9477428698903195
0.2963830904063536,0.06681072882237626,0.37668529460400524,0.43186740116366373,0.36237658178143456,0.33810969131289437,0.25831491713056043,0.984324802986086
0.28967382862547497,0.04833770818966225,0.3555249696156507,0.41707884042813004,0.3098477550674485,0.2896019820937025,0.23446573301016807,0.9054726430154308
0.28082522843424257,0.043066840683406736,0.34912746459939403,0.41055086231813903,0.26952794538521907,0.26838386751915305,0.21212000284267496,0.9920581856688042
0.34420797157651417,0.04470915310722749,0.41903661082534305,0.4883737577066619,0.39776348519436777,0.3922683053821365,0.3473127596247903,0.9577382238049647
0.28513363339876496,0.07359328847580261,0.36353134504021695,0.3998430076433035,0.39731083957516605,0.340744940934797,0.30500877229830564,0.8978652331473427
0.22583504394154727,0.10892806908248916,0.3038164043670909,0.310001570671749,0.34096059744210405,0.3086125182938987,0.27479406198859535,0.9374209687554018
0.17192050292487177,0.11778833186303504,0.2525054684909208,0.2586751304605015,0.2886122499986031,0.2759499903783357,0.209014286501179,0.8940277581426865
0.21873555824455063,0.10546440140328113,0.26552902991289007,0.28414944864876474,0.3499679467904741,0.3389986928143164,0.3029369561523391,0.8241474547916344
0.19170172691343396,0.1495539350326175,0.2425032453556761,0.2481412582888118,0.38463064899029753,0.37627317937082794,0.3279453956416908,0.8165000460824892
0.16283204491709818,0.14054567855518543,0.2166649748319677,0.22506264443803123,0.35942597992508263,0.3534230427998375,0.3015462004977824,0.915644248512854
0.13518248947612174,0.13923922600252522,0.1869977907418884,0.21105078282277734,0.3075056101403939,0.3124732343466459,0.27785899489373556,0.9417967631116353
0.08226036510025492,0.15849392016995645,0.16451371458985112,0.1432996696260724,0.2725198491596914,0.24916594100166695,0.21345346589431352,0.9112050593808697
0.2039984983843772,0.1537757609597143,0.2528806716410076,0.2722444196393121,0.3969206917808098,0.38164790371625756,0.32525403322396595,0.8788325602399644
0.19566287117396663,0.158973622056167,0.2594374060924555,0.2482141517173911,0.38536591659535285,0.34760098145390733,0.2888256848616775,0.9537899586531856
0.19995770741444624,0.14060009134561552,0.2365122442750658,0.257275429906272,0.3323372631443978,0.31249744077890895,0.28265495668355406,0.9725979402933642
0.21216403701487477,0.13800080243018714,0.24885288276824885,0.2621471980682355,0.3336829867264081,0.2654110828684107,0.22023855600881123,0.8939434012941169
0.19472759303152032,0.11481640474957028,0.2635896675474484,0.2694520948753731,0.3056612994625293,0.2637748288834948,0.2047127710414267,0.9000004875282528
0.26671269226409355,0.10668794268272008,0.3288320893595462,0.33117342921147797,0.382501412560464,0.3485485849248461,0.3356535345704064,0.9136468219553403
0.20071817599838188,0.10428127564731933,0.2721641918156578,0.2701278020128927,0.3467343530421809,0.3421770391290823,0.28856074759002864,0.8586039702978534
0.14398731950313443,0.17743817842617196,0.18338510630342522,0.1808184051872438,0.34048679060055004,0.29604890912368786,0.28175104520938277,0.9574319480064852
0.05436202034331067,0.13927540452096826,0.10980229834450055,0.09753373597640495,0.28478158772999923,0.2537448877972562,0.18834737842460633,0.9418558668333643
0.16665121281366738,0.17079467691412176,0.20410628991526414,0.2035093291231729,0.34955973030159715,0.3371775131655025,0.31211274408921097,1.0254731555984913
0.18325519836066237,0.13851117825464127,0.21738107371795157,0.21422254027849535,0.3700245669924909,0.34835591537662325,0.3221290595369647,0.9951064242096491
0.18760767432488987,0.16043423494506176,0.23929095231376418,0.2366576751572901,0.31225568048508556,0.33308296288938166,0.30749027717075234,0.9581971741536449
0.12881311376784038,0.1455860921365147,0.1793684667482736,0.15992623106596052,0.2818444835979717,0.29774685234346115,0.25950898687167523,0.934655742861702
0.12370046044162517,0.15502155978746662,0.1637988196790703,0.14380733868078352,0.28808365200215513,0.31745633413086904,0.2579446724298142,0.9523539831193699
0.13063378549632304,0.1448763189372372,0.15433309011845703,0.1309613941986113,0.3636968779488242,0.3609286722633642,0.3444801467828543,0.9359368532525537
0.07429206477970231,0.1791940930371586,0.12078676748888416,0.10347645777263778,0.343057051983329,0.33417015108721876,0.3111296025172159,1.0155343006541901
0.02901881651582473,0.16397999915236974,0.07102970773310531,0.05689819220107406,0.25842351725523144,0.3127394492914108,0.2713717274772714,0.9807993645130104
-0.009552030222198738,0.1713410442404014,0.029359023210477262,-0.008170192800809764,0.2470374195407303,0.24144493035146428,0.18822260810795402,1.004870827697638
0.10825131566390023,0.15537417890295377,0.15619275598698187,0.1393764667722848,0.36530537034317795,0.3999712667480698,0.35379327199916777,1.0363998936157146
0.11671036821525936,0.1598800424254766,0.1792255322024742,0.144838040236583,0.344470542014276,0.3557599553054091,0.33755621574845257,1.0253973216104209
0.12157540283338152,0.1437250613802173,0.15802014056027988,0.13777603543288428,0.30984211681568624,0.32644527381209165,0.3008349865199244,1.0189434528800985
0.052653124988227745,0.18313338498036064,0.10370090928765825,0.06933684592383318,0.2613339705873525,0.25765636150765314,0.22004347477145822,1.0791828911091845
0.12408282206364771,0.13962577107437305,0.16070227313147045,0.16033616812470725,0.3101872072596502,0.3267829060444641,0.30166534442674137,1.0386035869206869
0.14123220349977283,0.16807300150541157,0.17686432539450564,0.17269299739922386,0.33416506125798395,0.3737322753550264,0.32434305196228075,0.9846863323514004
0.12499439300830015,0.1627770173269039,0.16688297447166395,0.15427437280228873,0.31338858546007525,0.37059935304954145,0.29001881542585806,1.053016739054612
0.11094436410769946,0.17020554615674116,0.15605376362868373,0.1159828254922614,0.28725965683315646,0.28550369284024746,0.2372764381691484,1.0512633871504424
0.1353615380546836,0.15997039304376412,0.17445520930329994,0.15353033493638765,0.24132757423289966,0.2684521433614855,0.26296986909991904,0.9498507113783814
0.19977036924092365,0.13219742197694917,0.2501082229833792,0.23179184177223752,0.34716694391343905,0.3745695730158516,0.35636365990730207,1.006800393055479
0.185426588307198,0.15742202150062679,0.21400696900682692,0.20803351849220836,0.3265050894735141,0.35390436612669834,0.28471344078875715,1.0884908041472183
0.17449222078547222,0.1539727121867633,0.20689229479164223,0.19340443258523657,0.3114141595887028,0.3281727577822438,0.2887380137574641,0.9677329322414158
0.14783417683087458,0.17534436327797634,0.19257097745161478,0.15404471398108552,0.28075570686386203,0.3012641226898418,0.2771317446617005,1.0337810922707233
0.214635043356238,0.15278904545996572,0.24378332095054908,0.23127912205734266,0.36469579802752794,0.40527541192808697,0.3990906187553775,0.9450205483508682
0.16037054181855523,0.1950327909971222,0.20112448045245057,0.1553913382919617,0.357406141346296,0.34521712206931154,0.35042895304396304,1.0143865432800239
0.07634301594930461,0.20780532414684633,0.09194460731579074,0.08939003331990006,0.2878436557898164,0.3282595215581991,0.3192031529823886,0.9274388044479289
0.0052431119703065,0.17596600497728704,0.06950283648745763,0.015817547842569356,0.23443265022929308,0.2810209084562807,0.26483664255533224,1.0207247541576825
0.15253852491662534,0.19689652065347774,0.19576410491697954,0.18805222556627896,0.36832599897232715,0.4151348458511223,0.4061038138212302,1.0166623493585776
0.1418653377800536,0.20838802917379756,0.17649293787535422,0.16722326879094704,0.3550064907022204,0.42757913072402715,0.40724779764530694,0.9503012604497258
0.10761530139570365,0.24046194071495214,0.13553796938686638,0.13242729604359824,0.3460578260234535,0.37081983529318013,0.350805523315685,0.9693045906647447
0.03970419799053303,0.19351645150716842,0.09074253822655917,0.04935040882722273,0.30543080685904733,0.31972214358598156,0.3005714958050678,0.9384324744860345
0.14208047733515997,0.19024960765501428,0.18897219183603606,0.15375484759063654,0.36517722236816863,0.45348159188733267,0.4205946194709176,1.019563377210754
0.14835797701830894,0.2265769936235681,0.18458282334594492,0.17553099389407228,0.38714769280206573,0.46081315032217396,0.4242884149171056,1.0462111324586103
0.13992623439103766,0.1689509266368693,0.19641013844916694,0.17730831859655877,0.42823197222670717,0.45714558138818767,0.4282159583042126,0.9149261105580113
0.12776895913384984,0.1486474401442133,0.1687453331285831,0.15744670334484281,0.39284648789865895,0.4130238168561664,0.3952502368592487,1.0689314577478553
0.16667961355564304,0.15771067325139465,0.23201000664936458,0.2112506219552089,0.41662664260894605,0.4610746300082813,0.4309602067944718,0.9836382649203133
0.20293995946521845,0.17506340297919284,0.23925746688422306,0.25751437686564826,0.4834789297478885,0.5086202225804615,0.4853932437364887,0.9114892365415668
0.1518352330016934,0.1584639679962517,0.1981550191216019,0.17674657181554781,0.4318931241858104,0.4725717973407681,0.4227157543385459,0.8415509597557419
0.0971084381415011,0.1685670648037132,0.14285514060500648,0.11043178935529532,0.4013736329069325,0.43476736490366674,0.3965228289686332,0.956327143942176
0.10022590200032792,0.16509130141485176,0.1363822241325044,0.1385815778161318,0.3810868136372193,0.3989145804485577,0.3942065728213513,0.9561172128419507
0.16700501215849603,0.1770034662164649,0.21629481759484456,0.22689239325224556,0.4726519142917371,0.5287464374049609,0.5205256259820468,0.9896655454165132
0.15117356693765915,0.1276959147331889,0.20826610205604207,0.21546765194250916,0.46253671857956025,0.5170063037923638,0.49333344171804155,1.0465118583100268
0.15391136372473713,0.12769313326596027,0.21196172654044657,0.21048426820466815,0.4365456303893621,0.4808739930494713,0.46891195546059905,0.8438391274887505
0.16546151146358473,0.12223495659497285,0.2015805026801461,0.22041265814615338,0.42820681891462065,0.47692419977426365,0.46826494737555646,0.8954358356629532
0.2205262769457796,0.09497581554659508,0.2651526162379646,0.2939427968264588,0.49727502409577967,0.5864628713585072,0.5708775831489916,0.9490604100205375
0.21551104727074427,0.11114973359931737,0.2481507431404561,0.2749097484420955,0.489742870763198,0.5448514025479653,0.5164362207172634,0.9621034825893835
0.15964860590930097,0.10214249671713982,0.1956720305673736,0.21443258503900728,0.4755615616078513,0.4940350415032718,0.4424993503776431,0.9268775043700586
0.08239799943217033,0.0638540482420414,0.1431293158057021,0.13587965436759533,0.37928779424993253,0.4270359259511414,0.3794925664852676,0.8443347910701301
0.1883904166346658,0.09414459997881494,0.24131041298967587,0.24818954808547872,0.4996266959895644,0.5473399608046282,0.4956502719575431,0.8593645321599936
0.16482311812257835,0.0777254212458285,0.2311526159762768,0.2354449390621235,0.48995905597663475,0.5449618782794124,0.4839747303582007,0.8277572665864648
0.17121233072732664,0.07778541143778482,0.2117681171836116,0.23194371020429114,0.4948648791505955,0.5277610091067977,0.4904117133833329,0.885261481048186
0.12474504511244228,0.0799800249218882,0.1526456836810789,0.16337195742627586,0.4310947252976746,0.44870407952637487,0.414743047311412,0.788329139116964
0.14497323877294802,0.09697788403416019,0.19148481709560286,0.18875819609589573,0.4275421910124459,0.4607202798502094,0.43903228328189486,0.9432619304517749
0.17411842567249747,0.04030887578926262,0.21843965973818608,0.20508648857828068,0.4899562721249428,0.49683213341060795,0.49524780025042214,0.9014420480720472
0.15520325903179197,0.052219178739836156,0.17915874925464756,0.19545739714921156,0.4243388847518621,0.47638935494469786,0.45930856787594887,0.8555264491982657
0.09748186486673466,0.0369085629527075,0.15410898709389326,0.12934156726022836,0.3920508767807976,0.44942679791275325,0.4183022785251489,0.5567200008844911
0.05855903018486407,0.028085565453129013,0.1058875046307713,0.09776051944716735,0.3940157124064884,0.38095781762079284,0.39367733365613655,0.7432381176967287
0.19101145295490446,0.049354445045556056,0.2215942259642609,0.2505666517265946,0.4872383739810856,0.5334429795031083,0.5176044011633366,0.6732908722772105
0.18196903655099608,0.0887850646357302,0.22793591917516495,0.21358741979513515,0.4985758583606022,0.508483901747484,0.4763396314836118,0.7357628714001704
0.15824677491002245,0.040055713707713755,0.23039257031144278,0.19625580999037265,0.44348508205103393,0.4663104870484972,0.43847941749254593,0.7235667093926419
0.1117548158207168,0.05101038788133518,0.16095774937115717,0.14535677893030732,0.4223487494992475,0.41053519513300857,0.3394494047579167,0.6089501945291946
0.171060341391098,-0.006554873380514725,0.2234229127566711,0.2176561704181166,0.450866105869455,0.4119214979197525,0.3815142192008953,0.6713891285940554
0.23020461880197732,0.014021455943358416,0.25918651407587706,0.2742845133894345,0.4904991525066471,0.5003856643482939,0.4506179272592375,0.8878710745886782
0.2322169337637042,-0.01307671844430034,0.2860543752128287,0.30817600473457146,0.4527172227634721,0.4640905995693402,0.41827674820197347,0.7434116905173019
0.20816800612243916,-0.046574935889342,0.26871889099754454,0.2434611853639943,0.4133987926151496,0.37892176236566383,0.3613462956092492,0.6353734796497279
0.1416857555609955,-0.019001619521785047,0.17447317472359655,0.16294371983217995,0.3630851074401418,0.36090995014285976,0.29079229112612887,0.659700948192112
0.22990226922017992,0.03450375859764472,0.24972916201867548,0.22423037116739528,0.48862643554753843,0.46427247224083845,0.42850073113791487,0.6408684567548965
0.2034414340927154,0.00863583729745354,0.24299207633357545,0.2197314075355783,0.4336604165286065,0.42063756419119613,0.37436294707049295,0.6589291772182793
0.1697177247619831,0.023194195073819462,0.2115231684124696,0.20616836897292973,0.43085190582660265,0.4225250031181454,0.33881754870783987,0.6283005728573434
0.14569969044476197,-0.011166203327007773,0.2060420385789128,0.17341274630738265,0.36685564078523636,0.3272886053414939,0.302468344547249,0.5861655948772517
0.21757659863440498,-0.0014069298696843075,0.26221646771843043,0.26179726710619533,0.42914181660318734,0.432855560167637,0.35665786784960146,0.6200002974795241
0.25168324007890064,-0.02059902760561702,0.30776997989673294,0.29892640301013035,0.4522885272378281,0.44788232245310217,0.40173116679214105,0.6070870872508488
0.24481007739572164,-0.03047711864537339,0.2917940703194978,0.29087548467969565,0.4414009156803944,0.4228307758996845,0.3642404323276658,0.6489140707985397
0.15972122579155848,-0.001866287146976459,0.2062141339363193,0.18088082206186126,0.38570813829124734,0.37207827042328007,0.3093575347276981,0.6934643844173193
0.1251239635436317,-0.008035032802958152,0.17592963470932604,0.1312483201792415,0.3479277509676095,0.34948589630376065,0.2886567656370342,0.5664873720044701
0.19999521792633546,0.005241357380810665,0.22173373776924343,0.21339800583696344,0.45023226878261013,0.4833420133138699,0.4236046225134199,0.6660733556062804
0.14413246128798324,0.012997650414733846,0.190706882669093,0.15629638012424657,0.4514668399563522,0.42959880985666,0.37737614556675214,0.6721722429134896
0.1238268827371612,2.645849973518459E-4,0.16031109921598607,0.12761116430802805,0.4238229625326943,0.38579482229890566,0.33057056768836174,0.6973028490074349
0.05366223873753979,0.008935736663587294,0.10384135199579127,0.0728057650105608,0.37573082605188574,0.3512633369726856,0.3003391504844096,0.6524059168480735
0.1806838296944757,-0.01706723119885707,0.21869395971966113,0.20960870839601745,0.47239162200825857,0.490502007780657,0.41207604298168465,0.6894373093904553
0.19959808281153302,-0.029742026153491793,0.2388851907314358,0.2319430278496255,0.4589018811091547,0.46502789725740756,0.4176360193856189,0.6222539171296073
0.18225778674822213,-0.03042121865110972,0.22599070178546388,0.22734455851750293,0.44243810436454517,0.46870600634411574,0.3937738294629941,0.5814628384224819
0.16128658557746722,-0.03762592861248512,0.2003416828043081,0.20238453509827706,0.4216886892533155,0.4032214968239718,0.34866970029007666,0.6076219780049089
0.20450269608184043,-0.02786075227709712,0.23916714296071503,0.24039024852530547,0.4361904393225051,0.44478682679726345,0.40767305862562125,0.7060580047945955
0.24361381037638768,-0.051639002032258276,0.2815649169303838,0.2631541507264778,0.490224359544115,0.48442960675989805,0.4321532892691275,0.585887986731758
0.18465489181452127,-0.034126837713849674,0.23599118930698257,0.23418730771289603,0.4341337937340251,0.4325462330938234,0.40391429716514604,0.5989853554852147
0.10401965983666749,-0.01601113368072398,0.14156406722765555,0.12898290242651467,0.3890140804214528,0.3949431988127807,0.32544516678321844,0.6369141398633026
0.10367119394286171,-0.018229895857121158,0.14463245645188894,0.10463819460765315,0.3684729041892373,0.3676108642421959,0.31101094983625893,0.6929988599489324
0.1692160536725629,8.461381468124788E-4,0.2183244243565212,0.2035737825311735,0.4363790815167317,0.48964234385914,0.4389616821047314,0.6675024028274718
0.16504362872464,-0.0042758750402111636,0.1985063045777442,0.19270854782428756,0.4274676884293204,0.44894962491038265,0.4311776855860502,0.8171697566731408
0.1828227798997713,-0.027810089901501803,0.20945797789312437,0.20190668657595812,0.398141309445927,0.4505576953242402,0.4120495020047761,0.6062072254224844
0.12633694373933377,-0.012130516063412169,0.17230417105516763,0.1530229238276925,0.3983141185714754,0.3969534875159419,0.34852458245450096,0.6609952254799362
0.21427146662127874,-0.03253318976704887,0.23981065849204355,0.2313119712671781,0.464651065032447,0.5040423139981961,0.46796930107757023,0.6905849696239265
0.15353522684487886,-0.032257881111727234,0.20319223909609319,0.1776656018798917,0.437232895180589,0.451214280722429,0.435897570169856,0.5819982001546025
0.1146395065438795,-0.020659784397481413,0.16738761929205084,0.14740817691191724,0.43019320301536096,0.4357250366015767,0.40759347179566313,0.7175844088971267
0.06452672445566639,-0.0109582299960691,0.11088707771271986,0.0854261615709772,0.34862973600565683,0.3511014660669144,0.3209511558873613,0.6329431798841767
0.09893051034268317,-0.027021085087037117,0.15312984022686257,0.1279343854923867,0.3964311642798247,0.41123496447900193,0.3521906040058074,0.6044680076799654
0.17556525836152057,-0.02149956836466287,0.22496820571745152,0.1776608794219884,0.47199258343215855,0.4725300149029712,0.44222639366498356,0.5959830191375259
0.16516453854847338,-0.03372154298969159,0.20495091828030956,0.18776022984713672,0.4531163336300729,0.46407885894548934,0.4311713625977783,0.6182701733329592
0.09611823545194317,0.031538417568701065,0.13743223575774152,0.09822072618221821,0.37902299393868155,0.4059108554218699,0.3613326574319429,0.6431068200972762
0.11212054689990024,0.011452291837323136,0.15332726520840567,0.1385841065025798,0.3686247695065573,0.39767144475706345,0.3561524578873697,0.6634817901035435
0.18945573821797393,1.6024057842245078E-4,0.23544884374977024,0.21606066911453012,0.46433241842630324,0.5014384864841409,0.4542621429222372,0.6719851832070206
0.20886876540849306,-0.04309963866619441,0.2574168709262968,0.24091915792087207,0.4467665747985454,0.4984492268987343,0.4619007698659511,0.6144785172655567
0.180440210425072,-0.015699826902778557,0.24338605619222467,0.20649974879140967,0.40024097732500824,0.4437768488965342,0.3954296145538936,0.6604229652197431
0.16212245468344924,-0.031046917621804757,0.22744044388489104,0.20695989723715763,0.3781241984534879,0.4300113966634847,0.3902319785565355,0.6621672957323381
0.22603050366498334,-0.021434516048812188,0.2556939747724963,0.28443291783392105,0.4803003630574149,0.5108732655718761,0.4714869261987549,0.7146630545326473
0.16129315919628004,3.5161944759646733E-4,0.21966017900661014,0.20805060977026524,0.42701715514609023,0.4460713418945936,0.4201224144459929,0.5826286332077443
0.1824356820616695,-0.01090319486176336,0.23620740675013643,0.21456314860984066,0.437743990556056,0.44213847429229197,0.3904800110164122,0.6314037744348157
0.1275355763672815,-0.006183241730188396,0.15608286433317178,0.1582797714735398,0.3716509042551705,0.3832439996878865,0.33525712422043336,0.5542254261935352
0.222918589775384,-0.04015441112906245,0.27158390108905983,0.2797143667968515,0.46566771959581504,0.5042611290698601,0.46993791249213523,0.6817771775889102
0.2346562656785287,-0.07648737992729736,0.2748972800567768,0.27402287103036566,0.4492090860361423,0.47324346950368806,0.45224401680708715,0.5472439885594632
0.21411309205127368,-0.0471460659685698,0.26419418012803825,0.25066453365620867,0.42515714218059186,0.4646135613016054,0.4208316805614651,0.5474808454447978
0.14829661153778578,-0.06593458311781729,0.20363019490191753,0.20423091565679755,0.3580827238150313,0.4260199532748335,0.3819993629579081,0.5051547154687214
0.16848690903812302,-0.046269412976291925,0.22520544716030721,0.2059464681211737,0.41532423545630787,0.43920813196947683,0.4018796237311727,0.3614950438180897
0.1639716241618151,-0.016389994691895404,0.2088239818147137,0.22221032059695628,0.43937175463673445,0.49156768411003643,0.4527294344866746,0.3632975926632444
0.12542763027584003,-0.03055772572965904,0.17092968934538263,0.17851356107868827,0.4016608998147321,0.4539968869705798,0.4232439712772008,0.3565793325635152
0.08640621158702926,-0.04098644156407752,0.13015007248432817,0.12191735375685667,0.34434309415428804,0.42357449245381923,0.3946602116150827,0.28594269198086497
0.05654135914366542,-0.05104395186552345,0.1356683710742642,0.12764098854522424,0.3248446509779764,0.39140463555542077,0.3955608714468436,0.3140206886038367
0.15249625486771923,-0.07181549267453632,0.22529489351192244,0.2159283337556624,0.4193971245583949,0.48811747803066513,0.4893159190479534,0.385077817680146
0.13152234834614435,-0.06104586125943339,0.20545048119425655,0.20963061114178438,0.40501404620222764,0.46314426190497326,0.44412003639678704,0.22667326192930476
0.12116320313602863,-0.08109158241821661,0.18350130505739562,0.189441531776816,0.35974229592531126,0.44837848011061804,0.40053001269573324,0.2633922970125849
0.09528159473177737,-0.08782740350279208,0.1639722144315255,0.1399441319990487,0.3064656445300459,0.3734942755594174,0.3567379116244115,0.25290116279844493
0.18994893106022598,-0.07423264209861712,0.24421804816392842,0.24356451206043053,0.41922991718647823,0.5006912985491349,0.5105170733440031,0.3295221261370972
0.12858669731572447,-0.06946430667413922,0.22395123200596503,0.19098420710761843,0.3917305274666375,0.4603439212144377,0.4666095927150192,0.3337816552433591
0.09836682807606627,-0.051096719840595634,0.1835467301646942,0.16208990418692368,0.3664991726933773,0.45252301896491,0.4552275557052741,0.3745613494429703
0.03700259435951707,-0.05413372035675013,0.1282907381452214,0.10789941968373597,0.3155801336396897,0.38409693530421113,0.36916907757358525,0.3266608421942425
0.17809912424233482,-0.06044350793882953,0.24193232241793666,0.2297854801446108,0.3940858621025925,0.4987071912777642,0.49159997167542,0.3552443217258047
0.18073811543956456,-0.06347666129291202,0.2393001782386334,0.23882180143244014,0.4163417214464778,0.5075803855097337,0.4887174376403873,0.38771316687602214
0.16095612563839096,-0.10580271788637724,0.24359236234136447,0.23778574985715614,0.3806225879505179,0.500037127999273,0.4928886949764827,0.35367200582330344
0.11137119952671319,-0.0960932497985014,0.18200671433377996,0.16720499639270875,0.3561523568900389,0.4414778113421398,0.3936874819509445,0.22014976485684898
0.1285442406319911,-0.09947678084945495,0.2020003614417901,0.19137621882833142,0.3812983994749009,0.47404976609219096,0.4527725466862855,0.307164949011694
0.14537091404567873,-0.0928016900729374,0.21229757495065685,0.19850447542359786,0.43497347403435616,0.5099375150436485,0.5333150740774173,0.3641688573872864
0.10536502112307923,-0.057916510855626546,0.19024812978772462,0.1673479265342229,0.37174130149622997,0.4972162524237598,0.46272201024748905,0.3621592092157233
0.06336568066769065,-0.09064549182417762,0.1425408435521336,0.1251395791946063,0.346433799377245,0.4383256449805291,0.4492624192162866,0.27127471558864186
0.05786026422618781,-0.05929212330528479,0.1492787705860381,0.12225171736244915,0.31039751281773625,0.4270820581373631,0.41301951932412917,0.2889114429736349
0.18091894712694018,-0.08344509538843671,0.2571786474452604,0.2529034031972071,0.40708196578735606,0.5340535482395625,0.49701541948160494,0.32908427669927853
0.1387618050936833,-0.09284837370578694,0.230289291375774,0.2323695743320649,0.38711604899314334,0.44398108154672866,0.5065842014025116,0.16781267760066096
0.10512002590125512,-0.08328013022147426,0.16403076842192063,0.19061879667803158,0.3279176052914498,0.4206612071669236,0.45317327466977525,0.2575173278723755
0.0849903307040776,-0.08133545860739798,0.15526306053451125,0.15053048460387627,0.31066491955743586,0.3868797683800362,0.43448785470811996,0.3081227946557282
0.1828161667200959,-0.08846437221736277,0.23229232896183594,0.2408290458295033,0.4050128733158822,0.52257246910518,0.5094206245396915,0.3664891225292828
0.14596484163680956,-0.0655764577523653,0.20317628671995722,0.2014896780895574,0.33635701127883505,0.4793438071959849,0.47990008721856614,0.37154925748279366
0.0971910206847437,-0.04732399674961899,0.1352965168993027,0.12202789710608249,0.32091482892263307,0.42441186536002196,0.4318715256895777,0.3545441052528142
0.04146962751253876,-0.08608496468517142,0.11974086344745784,0.09153411707055775,0.26908633774963003,0.3685836433134267,0.3848217335389437,0.3171474472071178
0.18041684443274011,-0.08085714874756204,0.25435839605083405,0.242266738710968,0.3963671172392726,0.5047678244893314,0.52490446746418,0.4247977347303687
0.19654688913394203,-0.059159311086851955,0.23497762836740846,0.25211020461389083,0.36072890515103506,0.5000084299377385,0.4895902066808943,0.26812945145503553
0.17013268302930287,-0.08627419432995126,0.21980172976119317,0.23184793641781007,0.3466771574434022,0.4437578552068925,0.42822724552056773,0.33657178522479864
0.11297797247759012,-0.08846531115990125,0.19149705288553448,0.1772637476171305,0.28378544088104324,0.36549147203054666,0.3893896811324333,0.3672133386473869
0.202811159233217,-0.09408855194142385,0.2614757695932821,0.24854805866926144,0.3548579896321139,0.465569864897841,0.4874461842465372,0.44856699633624414
0.1612002841118466,-0.06302756077766387,0.24585651346716642,0.20202754894804686,0.3682230749896652,0.456374479266421,0.4908548983420742,0.3727736787688577
0.14307005849325685,-0.09090619196850229,0.20259946238347426,0.19312713332608783,0.3594005324207994,0.45990308328280105,0.47295426623378584,0.351128829333091
0.07897779985238033,-0.06004870885340879,0.1621147601584336,0.12066778598676069,0.302120586627317,0.3790913934170578,0.39278674984715695,0.3118909374819295
0.09919189212052318,-0.07478370677915043,0.16250326026827283,0.14647249074709276,0.2916559350870347,0.4191321796665093,0.40195387849811326,0.27620394964854367
0.15223241645610913,-0.07778906961290584,0.22139573040037505,0.2007184375253277,0.37682277741056963,0.4769173186179338,0.4959069783155078,0.41114183681278094
0.11786251883029425,-0.07575088041382663,0.20047667079280146,0.1786669214761628,0.3191100824474984,0.4234914433570748,0.43543629210697965,0.4055792917076423
0.06425095796503744,-0.07393824720107856,0.17361280611136795,0.123442082054373,0.30617859823908117,0.40182071413130405,0.3731804385565045,0.30080052087326026
0.08274206966683705,-0.11709302689035472,0.1839871817051532,0.16223729617435265,0.2574363690233358,0.35011737425231415,0.3582375500222035,0.3401926729273112
0.18427608219142877,-0.106674164762765,0.2621656375045549,0.2817579279789284,0.37634877978708225,0.45685475978877116,0.4778740932302872,0.3790162601034935
0.14238396180197546,-0.05343948104534081,0.24363923666341739,0.23251650602381563,0.34772271022633616,0.4317901527869098,0.4219145568642974,0.34702269144745995
0.10417584869614163,-0.07933940781474606,0.20400827330451962,0.1774310059550269,0.3147283948342443,0.39345102917859215,0.39427171843211106,0.40395506933816355
0.014372874983156075,-0.043166392264148964,0.09161362649002415,0.10036763532422635,0.2257342962855178,0.3190258081253073,0.32971866552141416,0.33677144249687735
0.11091672256036397,0.004903690865833367,0.1930797857483612,0.21664298447144376,0.37703183183433175,0.4641877195200103,0.4694714013570861,0.4368058505790169
0.08391368516277975,0.01733714201901957,0.15699508155754197,0.17513879433103277,0.3555205791381202,0.45958875848971587,0.428872797455028,0.3705256701994521
0.07838786535333529,-0.00421176695978872,0.16240298107680826,0.19999464334272965,0.3222456501467894,0.4124702540350805,0.40461302014721706,0.3068659297329949
0.02653984275952694,-0.013446866715217616,0.10241252459052895,0.10858587353265017,0.2945805482037177,0.3188571495097559,0.3324233625500712,0.3512923295720784
0.15268667645071704,-0.04280329101213894,0.22172611785892327,0.2246665589297687,0.36105549822720046,0.43781966572106307,0.4276960576737535,0.3733433210397635
0.14958424345042456,-0.03519693778033767,0.23281489077312684,0.20537435786622957,0.36422838844703614,0.4509773211760984,0.4287595806352905,0.2842422405086376
0.12666539956726497,-0.02907198745231143,0.18824170364225498,0.17683499163850758,0.32617698633270104,0.41733275795899116,0.4110375615751347,0.4346399148479854
0.0402369354491664,-0.03032783696096067,0.11377530362381925,0.09260650606222992,0.2776982159480339,0.3377502623738592,0.3165505913113826,0.19014986024213315
0.0893691309884992,-0.028513203145828454,0.16136380226918431,0.1565348029741853,0.2998824145001798,0.36885719368238074,0.38468206223159757,0.26446253711279466
0.16467548068526058,-0.05677295469713858,0.22781068743901942,0.23763326987884256,0.33763105408488725,0.4478720607864708,0.41858449116085333,0.4187591013118619
0.14517282227359699,-0.044118648830621096,0.21518372487572757,0.21909079833874165,0.3246791734363468,0.37831505557464523,0.3824595132519118,0.41462463885925677
0.10844501677477232,-0.05033991569177396,0.1857463560171059,0.1841497213697887,0.29493324777458035,0.34580687821946854,0.35011769426007616,0.3765129459289655
0.10092817041301443,-0.01967421202501209,0.17465001218434903,0.17199671695660892,0.23227907473908704,0.282911776699227,0.28250770246511886,0.34217258776233306
0.18352909182423016,-0.041806361639205376,0.27033945525481917,0.28188525342668747,0.35933885367750557,0.4341577403248658,0.41286132218104643,0.3756393959290539
0.15998994389245677,-0.06544208879717214,0.2389646689653073,0.23667636998890876,0.32780592301144185,0.35921697862779933,0.3451449262342982,0.2877774236283613
0.1328016041328157,-0.06602551183623719,0.22932565765434335,0.23165999003926768,0.29437201885987846,0.35889304203216077,0.3001213990765607,0.3203849087530938
0.11926507240255665,-0.06540367171800038,0.1955441895995327,0.21767796352594337,0.24465165205156036,0.27878497356364984,0.272727004272043,0.27762235186342477
0.2169062060551027,-0.07556560648279781,0.31398795778123084,0.31085435843943454,0.3885488329837096,0.4299426743895563,0.38596685349371823,0.3065693843652018
0.21472965152848095,-0.0803793234671684,0.2830770214297402,0.29959215461661065,0.31619276574066835,0.35390757387358607,0.3303573901268106,0.35063675813115286
0.14384233304917668,-0.0459512504557593,0.22859096613585195,0.2027454045012147,0.29155053610359677,0.3181384887609437,0.3061285231639583,0.22697654472886844
0.04164569939759486,-0.06232040352989299,0.12919430693393952,0.10472014606651414,0.1852078960869787,0.20076096962827233,0.16405178464269937,0.23773272007728158
0.15905675808954237,-0.052032484348404164,0.21673786047881957,0.19448736651883095,0.30970577539564115,0.28003961652081655,0.22402447010788784,0.15885387749375798
0.12170715905871733,-0.05134283535955965,0.18266080300066853,0.16196693479580132,0.27911318474951424,0.26411679263914883,0.22002712549332787,0.13514941119374904
0.09411681125448891,-0.021501393733030172,0.16734420081167567,0.13274067821477498,0.26515842571164144,0.24432244245984225,0.21184621788772395,0.14235147499442405
0.03673448461193243,-0.008966135820097957,0.10311368569977984,0.07627252895853645,0.20998442828338154,0.1969176449325296,0.17113475062594938,0.15187862427232934
0.17437950358794163,-0.00914876884700566,0.20973607633862323,0.1877315411725323,0.3297285325072806,0.35393779552558924,0.32521299437173223,0.3355453943533156
0.12494646467938429,-0.025366234574756584,0.1996988720174094,0.17087548789709442,0.342939638774607,0.3542242449797264,0.302235498808476,0.409763058284681
0.12158264474552079,0.008870268833784523,0.1811025184776655,0.16000650892723486,0.31123323042179796,0.33567221468675434,0.29312571964382605,0.4311161970377137
0.09159274986475925,-0.007751545661508156,0.17220041508800327,0.13793413540934413,0.2942010817347836,0.30675641955106453,0.29462756434909926,0.40393003449121234
0.1710004554142063,-0.01762701070354048,0.23808650571752255,0.21928225251274364,0.3609513562128405,0.4036761867116877,0.3815452688411848,0.378851782808058
0.13948479013608123,-0.023257271892098516,0.19594377659065207,0.18778305318303132,0.3499732841249755,0.38845621231728555,0.31743905068282585,0.38597097993672413
0.12548885454537348,-0.03317205376130807,0.1939619977516036,0.1616477363005968,0.3304726825125575,0.35528356136188194,0.28872110884364377,0.49481064160549626
0.12395981851480475,-0.04725026985286578,0.186207255535575,0.18321737903645796,0.30389816678951775,0.30968284115639627,0.2809806474565745,0.35381062310250383
0.19715374923562567,-0.046340446779388235,0.26383215013915634,0.28317584493922465,0.3738623857817226,0.4280711777680623,0.40298191477325435,0.4520279983132464
0.1929934089473918,-0.03822916811316371,0.2588841926776432,0.2576172554842844,0.3763319112462096,0.40219141849714646,0.38276431454285476,0.4606494914141062
0.18144933329472138,-0.06906168136145016,0.23050572739783134,0.22635756983113664,0.3380839192974665,0.38506892034886553,0.3524158215655735,0.5303208315040856
0.08644892167793845,-0.04675880751644713,0.14102603593770868,0.12205052132117244,0.24483107407043872,0.2765196892348937,0.2617424003869745,0.32623396634951807
0.1354057552057514,-0.06297608732810399,0.21187941817570602,0.18514024548737584,0.3142981771355163,0.3419023724647812,0.33500414632771613,0.5127075874780305
0.15955775055722893,-0.03836962864584933,0.21390440884420117,0.2010774724649287,0.35012642587056103,0.3867424192981576,0.3933075516364056,0.4928738672278346
0.16858570304911025,-0.0812549959818726,0.23963105678996838,0.21639588673598262,0.36491476321859173,0.38982380421533847,0.34909312668199605,0.44019506820405546
0.12575069915574472,-0.08044217323453991,0.20977570734668632,0.19935588213135425,0.3072403629410137,0.35120121465660187,0.3199265967187446,0.403170252076461
0.18401747197825002,-0.06688092146015992,0.25618037950308165,0.24955159987098954,0.3579807770263437,0.3898377877820155,0.3723865225032229,0.38143529985917685
0.22240135650903217,-0.08001288226206019,0.2684297154926238,0.2653909459481797,0.3959341375096686,0.45774316614538163,0.43757893462483577,0.530362870709567
0.19232186696023432,-0.08018429676909647,0.2486288070822803,0.23853713600595108,0.3694756586123843,0.39154319606735966,0.40485876273332916,0.5151027973761486
0.11530352088474302,-0.0410316976627171,0.16618844454651277,0.14509184399900596,0.28650373763969084,0.34953813182093435,0.33311827295503227,0.5246283874336861
0.10639598729501372,-0.03452405017280092,0.15264895160900466,0.1432745225185045,0.28448054961554864,0.34359610602739754,0.3279028755327282,0.455077081569997
0.18354764330430626,-0.03847071733741122,0.2447990973308678,0.23616132233695336,0.4004816427301937,0.42926940201444874,0.4621257662741732,0.5968074218975026
0.1664184320815763,-0.050091784835981694,0.2216707063906647,0.2000069658554745,0.35899749513191104,0.42021923912263065,0.4094698011198925,0.504277747944978
0.16676766851980485,-0.04850808048298078,0.22685344430962903,0.21558353095146965,0.34355557583049545,0.3914176376685309,0.4144782846130557,0.4811405290258038
0.13180382263056858,-0.06096439695615362,0.1894891355844843,0.17987886053964638,0.323486849710967,0.35310848756928315,0.34354643022554077,0.38229912396767834
0.2456798828229561,-0.06333326989210046,0.2960746231573294,0.2915809461752433,0.41567326576355373,0.4853729995345094,0.49245227066336295,0.398409892042534
0.22921643059567604,-0.06190832127125817,0.2904985173280333,0.28746451894404285,0.41535904399378476,0.4773134825591814,0.4609593106760688,0.49538928214965355
0.16413502795556512,-0.04021171547221019,0.21951604837785602,0.2156558486084685,0.37665193158937504,0.4332917644484944,0.39164793941653114,0.4083136987924388
0.07809647239739037,-0.06431070442518289,0.14216386353421506,0.14688054845889179,0.3147612521767512,0.3595364607895236,0.33975263189325605,0.47900464993473996
0.07195391114453185,-0.03324247438659298,0.14133974639596555,0.13656205709434574,0.29688760158450817,0.3364335845016543,0.30484410036918247,0.42506191758186723
0.18963928967624757,-0.0501975742560174,0.2420180314218263,0.2449962928514572,0.4053586151316056,0.4846133905397407,0.4453887464539211,0.5090509391337648
0.1895609113573037,-0.08240972659786497,0.2476438508772281,0.2559372440476877,0.38064297657029833,0.44576032277022726,0.45787391756520984,0.4510653855706393
0.13103839436085477,-0.05470286599879223,0.2345210670369574,0.21589675530900435,0.3695823368324065,0.39024986687385926,0.3919121389572154,0.44275832766643086
0.08070476737049725,-0.05233882514218629,0.169483398959061,0.14478220465882266,0.30745119408265376,0.3219318224065565,0.3199389312097403,0.3972022180010619
0.15587226682201596,-0.05591942543568934,0.19717350616710286,0.18531607929026792,0.3213424607696803,0.3797527024200803,0.3714047730809238,0.4603141373487995
0.14030168153132092,-0.006677607645722978,0.2020692668223725,0.17912433042201364,0.3561121109098451,0.40760194862978877,0.36527589648383973,0.43574128558153674
0.1034565967745144,-0.05178644865565078,0.1767513556296334,0.15592012426220808,0.3408688621359352,0.3691064960273887,0.3412156812283709,0.4588996011427817
0.06100997071643317,-0.025203099773948783,0.12569693214820718,0.11478218459685537,0.29606264913850927,0.31708190426561617,0.30691652920934903,0.48945695957591834
0.0952485781284822,-0.050308343227968504,0.17220319350411373,0.1653309200747357,0.259997659137523,0.27521107926085464,0.2829065181466475,0.4411889642651011
0.21308944532694654,-0.06166066970967767,0.269582361785554,0.2683676926414412,0.36890187062491203,0.4206683695036526,0.3924871013225638,0.42559109145901053
0.15731846310595918,-0.049433321159772385,0.23560058161368577,0.22855169826956348,0.3359942248896908,0.3386527335427813,0.29927938027281015,0.4878571050683996
0.11604820410759302,-0.04520668340982517,0.18292582400450128,0.14786878469263198,0.3192706990178168,0.30784667028535256,0.28005488158271924,0.470998784977425
0.014978901030016933,-0.05456404061512101,0.09463626927430649,0.07107870476984407,0.24192191884842826,0.20682473835203666,0.17825008170317272,0.3814455092728249
0.14999460858176183,-0.0789087064508622,0.19912420542012957,0.1816553513969249,0.2885699006064944,0.30433620088579577,0.2510679585596333,0.3451409994730829
0.17590207064925076,-0.049902486678857716,0.21210850251124452,0.2013531844412072,0.30888266413539617,0.32543267583177,0.26879917909226547,0.44116748522427407
0.13391714870718946,-0.02195933556680875,0.20956614785409247,0.17707494319912764,0.2778744109435982,0.31743145016970276,0.2535367147810233,0.47088319325593214
0.11042318549024874,-0.048677635865743994,0.18199584338087202,0.1661137865951136,0.24057648608089743,0.23997510028105629,0.19147629711335987,0.48607374302679707
0.15742276657837098,-0.07287723037200708,0.23217653732386934,0.22928874416672507,0.22721388937479825,0.21855862121434946,0.18951397024818525,0.4344640946070979
0.23629434944047087,-0.12506618814195075,0.3001274411048638,0.307759795010652,0.31940165291918626,0.3491081586606169,0.3023185211586925,0.40344084418096143
0.2106742077589384,-0.08065484225215025,0.26265788785944455,0.2542901566835262,0.30906641788113426,0.2973097461611063,0.23690321036876144,0.3838888955189505
0.12289579934932347,-0.06466698173996152,0.2106608557882165,0.19434475864978035,0.2889971132874176,0.2749041688187454,0.19535015778052936,0.40401388325119014
0.07605014168607857,-0.052776991283436804,0.13588212177527195,0.11424324700908141,0.21519357994786378,0.17301672674657154,0.10206017355366395,0.39636306357497375
0.1778466713855622,-0.07656268249815881,0.24097581669150656,0.2308232808448291,0.27282614377674913,0.2713723973805847,0.2120393983351471,0.4272317120461905
0.1901174563544242,-0.08118301153050562,0.27959386285342597,0.2434932871378971,0.30048272419088834,0.26588354762455524,0.2352954409231397,0.5014079430502342
0.190501452204101,-0.10777350788103318,0.2686908371198823,0.2492132656167763,0.2851280896866562,0.26362263677447745,0.20621143831929892,0.6156898345605442
0.1417135580898464,-0.07675628317314924,0.2083217938444401,0.1830628156725704,0.21959015243388785,0.2057469370228598,0.15499101304083204,0.5014586592255206
0.12844902873328448,-0.06483147765438692,0.20436730706009254,0.17199815848544928,0.19987114160681238,0.17995467935141818,0.1265955913632588,0.37854284187401477
0.1891059619085573,-0.07663418096711612,0.24548955580161425,0.24417710004737786,0.29449798149622136,0.2907952597734947,0.20409490233848654,0.47862294132571387
0.14666382485382332,-0.058773987746299945,0.23532931638204843,0.22047356915873065,0.24832560706171142,0.21827134647003463,0.18684895876901572,0.39756868663673134
0.13507098322317093,-0.0688212097909313,0.19455743926340707,0.19214450107594322,0.2300043304486847,0.19107193970416997,0.13914474041509214,0.5128174379169864
0.09062563610723777,-0.07951792536650665,0.16610739914458594,0.14009424977054402,0.16825126186233597,0.14194644546275215,0.08646301847163311,0.4416410305443458
0.2164419899851015,-0.10250501088635071,0.27789272882334226,0.2732627433511851,0.2535014540004465,0.2673736576621715,0.22961901276896818,0.5305482065327438
0.23090111263383717,-0.10891721629094324,0.3085156995671138,0.2992719462199452,0.22738543577674797,0.24075717948732087,0.1788832649893437,0.4854416943664004
0.2161222750043826,-0.08959232167348379,0.2846375959140725,0.278043717890433,0.26557530135925,0.2094673120826823,0.16063612459093246,0.5298877826760566
0.17156229228864056,-0.09228972928294811,0.2366180926733802,0.22542631515106765,0.18228146341807033,0.15478154779642217,0.07390911841854622,0.5194438011187259
0.18985884762746613,-0.10338770934269671,0.2637858639040334,0.26170658252944545,0.20181712271613453,0.1548178241694708,0.12469342629806184,0.5259483431924578
0.22858402643678336,-0.07808982602316117,0.2906253792521129,0.2623549654116372,0.3118299830215243,0.24922411876465678,0.20089348466418783,0.5538255773209404
0.1896288861968954,-0.07947472164384795,0.2588264512922492,0.24895683800521928,0.27973261366959773,0.2403061826040698,0.14742740372684793,0.6902448652894457
0.17037702989110154,-0.05280617116254067,0.23601790657023075,0.22614684133297056,0.23590389259344338,0.18820732055747047,0.12391557588389736,0.556591190435324
0.14432295772419967,-0.07470108947751743,0.2235968328014607,0.20062550925205636,0.1971778052797921,0.09853659755370621,0.05185567492820305,0.5354225423458697
0.2507985803811921,-0.08803173562593654,0.33503666689296696,0.32518889100450565,0.2927263722309127,0.24151636510955135,0.1932749461937893,0.7536204737064487
0.2515538938745841,-0.04719424401374942,0.32891252295188783,0.3210329457781845,0.30788201680650523,0.2440952564560253,0.1895365863269183,0.6734501030821725
0.22576494286295226,-0.08339917897181523,0.31365422059039716,0.3159854466885394,0.26797584653856205,0.23402417985304236,0.17331693070095366,0.7560307693267171
0.15977873694139075,-0.02670168975060721,0.23125046446208802,0.2289428767115507,0.21970382902166305,0.1714645659651428,0.10860748556229767,0.6352460020047478
0.12173012197266378,-0.06300850492657413,0.19118246570219496,0.17498236338049927,0.18161810302014236,0.11501322351902284,0.06574972085320534,0.6788007205709266
0.23005614713961486,-0.05781760502692405,0.2903684260556472,0.304275273558164,0.30458607181409586,0.2697937854742466,0.1946401568211168,0.6058786883563502
0.23699974813851232,-0.09746344346350762,0.3163397842128914,0.3239731077539562,0.30005329873317177,0.22843219586530886,0.19017031272861487,0.6453922134389125
0.21266278018745566,-0.10303199233470076,0.30195647136734854,0.30045535545886276,0.2735615130788347,0.2158970610999392,0.16921449304823521,0.7216324166322503
0.15600472835420046,-0.05565213925046583,0.2532712219722008,0.24450350939682022,0.18697841295782136,0.1502069394452999,0.08372977760056233,0.5178798007330465
0.15399110079144962,-0.09060587472906309,0.25352147369158634,0.23356447870002087,0.2121178868836675,0.1474413425276754,0.0836677627621799,0.5976652510221655
0.20691357118111653,-0.031099224059067333,0.2828908418333616,0.28620121551492667,0.30982457722079576,0.25910443306669806,0.18757940961927289,0.6580333187434251
0.19568222901291385,-0.06353420719844444,0.27228255462372347,0.25123889556818285,0.2589647976716006,0.2321311871126115,0.14695139934012602,0.6471547533312761
0.15828081681567582,-0.07123992156692185,0.26173460912843594,0.23336726260595325,0.28161718651202905,0.18628746510229233,0.10551922109053911,0.6666492620873176
0.13398954558933265,-0.03462474173233861,0.22088927181623097,0.22673158633068774,0.2051410962050977,0.11415130669649544,0.06084052118290801,0.5982421720337222
0.23391867505245917,-0.08676754669809252,0.3161698025199481,0.3009124747954432,0.25520534287407287,0.22007972243078008,0.15575351940610818,0.5854639339809552
0.2132230466335597,-0.0863696995435589,0.2940380696166663,0.2754074482435829,0.3211790885106776,0.2444006178385345,0.1949276271435657,0.5970156574795339
0.167939113625294,-0.055742156024356775,0.24091896591817497,0.22179191250932723,0.2758297596485184,0.20998968169953386,0.10552324424443724,0.5955600745473854
0.08943814332914578,-0.05501556302649008,0.16968695616879736,0.12933769855461813,0.22379967263211753,0.1393240102213376,0.059820467486216555,0.5205878290758136
0.04322942274423373,-0.04036678321985995,0.13971935620758105,0.10791975493541044,0.14515979084726388,0.07833697999772608,0.019244208505131023,0.5845287697772727
0.1785651337111865,-0.06831027221927845,0.25704129733907755,0.2434498045317873,0.2876761837246785,0.25138763453696444,0.17644025249135914,0.6427932501547582
0.17178568422540166,-0.06751771836091142,0.22064108435000512,0.22786553627295675,0.2698274700651151,0.2241236517592291,0.14438317945216536,0.6334279216290419
0.13309716890661663,-0.015428495950820992,0.23195693685562832,0.22464196190928828,0.26879257690785774,0.20469772901085118,0.11297269175314165,0.6785508411844089
0.09133796657866458,-0.002608527524275391,0.1803304491203742,0.1626939639921212,0.2167547154320081,0.14611350854913507,0.05958065404464173,0.6177444073476913
0.0957115659107852,-0.044881477268923144,0.20181529470202927,0.16406784214641937,0.1863997740942523,0.13244123351191167,0.05289154400296384,0.5675526057034622
0.1826462594264144,-0.03177245565943193,0.2725041304294496,0.2513575528915124,0.33973836229906174,0.2751485093131615,0.17982453444268415,0.7359891435603557
0.18029649702477696,-0.053688789298471325,0.2713559828017272,0.26963715065995814,0.33332182975712593,0.24710444017861127,0.19188530173236915,0.5719086815568963
0.21188943283197328,-0.1085158163565307,0.2992588451769372,0.29695128540224436,0.2872404565503802,0.2568841238468249,0.1456494048816083,0.628950274143713
0.15486301520448617,-0.08985666272643639,0.2437510517377596,0.2461856053397271,0.26152252328782954,0.2013494428251516,0.10402106183935537,0.6490146026475789
0.19296728183877715,-0.08994743350773207,0.278537388225479,0.2677795967472069,0.2548385985858719,0.21401578028057383,0.1126126390131383,0.6258589297305682
0.15529916936647511,-0.04527166513557927,0.24970257664919865,0.22513187651242506,0.2852308529401368,0.24658918412633524,0.1679824245475418,0.5165917163666194
0.14426774441945206,-0.03328335484545538,0.2176905162612062,0.21233611530179786,0.2792634826403582,0.20917604578649276,0.12535670924739822,0.6016927129567571
0.09859759143750559,-0.03939644766329755,0.17837746307094732,0.17072513143136858,0.22834394245738923,0.15249307372741513,0.09956400628875187,0.48421593772797833
0.09382342067529782,-0.038525978984830705,0.19918782710334387,0.17318294874446594,0.20164753900944557,0.15635341804130343,0.09245759802393803,0.4858345763578377
0.24112224990682615,-0.08891699237827545,0.3015357981465563,0.32964294317410764,0.33841124399415634,0.31757060502501006,0.2172427096164798,0.5814171424349247
0.2321542507793882,-0.06705050631598988,0.32918200167022194,0.3549581276196588,0.3190027929619988,0.2868681281093905,0.21661255541956081,0.594158238861252
0.19974184909283138,-0.10657630041146515,0.31325932081487123,0.2949975341364419,0.29444806057826656,0.2442830003633003,0.1731379950983068,0.5891209463096035
0.0793833733415229,-0.06507616585076059,0.1571361109586315,0.14162117023955173,0.1596694341370021,0.1296985123864185,0.0532477004854303,0.5862020257160588
0.17565255371904095,-0.0594589070161528,0.2599929172476077,0.2512501494978053,0.2843645920666939,0.2662738370378524,0.19066888864511242,0.7634994493279051
0.18458304955783317,-0.060536420501959225,0.269512239493132,0.24283502894970538,0.2923880341600685,0.2881540622187826,0.1948969964782647,0.7445253773510557
0.18410421322808546,-0.09768823625346598,0.2755249657721076,0.2812285687002993,0.2851677469000818,0.2931029130876753,0.1974220580982958,0.7059575318711055
0.18296684570168828,-0.07808922580574595,0.2900886844119112,0.28845499769601973,0.2626632617701939,0.25834150378552057,0.185814994766112,0.6467588670202857
0.2177241326854165,-0.10575046541318191,0.307066440533061,0.2964777710211145,0.325257809940255,0.26495948164311284,0.20013502148249326,0.670482281013288
0.24072876539922694,-0.07822867370186472,0.3185497640655625,0.3052959002926325,0.3484079848387034,0.33529246672019636,0.2579506418423335,0.6812917942641252
0.18681650081958084,-0.08585686418222487,0.2732757195991273,0.25722915712255134,0.28628447624937536,0.2994366592229016,0.22612831814744103,0.6175983604583595
0.17556362517209717,-0.06684869714366186,0.2555030285646354,0.25106687038159015,0.2928195077972685,0.28036386553491993,0.19612319979954065,0.6816005819144836
0.1491314028153196,-0.06317165342735244,0.25112481864396013,0.2542380935486828,0.26986257168575567,0.25346859569182856,0.17878115374043202,0.5859736021279357
0.26243149246540726,-0.0921055804764053,0.35499194733991724,0.3528950691926032,0.3936674918855382,0.3805300447222528,0.3428874762635469,0.7265608744379707
0.23501992031122623,-0.08343707900354956,0.3308513753928813,0.332952592183828,0.3860290900426238,0.35050923226629543,0.28173934085509905,0.7612900788759075
0.16652219699899148,-0.08634044522087148,0.254348787746942,0.2569682471358672,0.3208693354016139,0.32028635992947124,0.2673386984131934,0.6012048353500693
0.08041131032678969,-0.05480394515253653,0.19149091455070516,0.17476156540697124,0.2746461203457819,0.27177472467838365,0.22946920549008837,0.6358153897355105
0.13322308867352423,-0.053281970094147396,0.236636501557658,0.22999889311128133,0.30939607466504426,0.2829374585620136,0.24545441981562707,0.5511355295104363
0.20843902190261687,-0.09630504482013899,0.3066573860854674,0.32136705608592825,0.3614029396102879,0.37424708187465583,0.318751886888905,0.6094707229062364
0.2029338701961012,-0.08732491301089722,0.31145953812471744,0.3060494786214146,0.34482331335632366,0.34049154644386354,0.2926647728449906,0.5633957726056816
0.18218972621926258,-0.03992947985945627,0.29694003799719887,0.2664811373902317,0.28942696890411584,0.2967583794414312,0.23613256192470236,0.4249756028918393
0.15509217430208933,-0.035043323692721215,0.264615651770674,0.2557863913944046,0.2593189847177435,0.2796355779595019,0.1885988522082729,0.23330281834157637
0.2306622159333713,-0.02704619655469226,0.37259426733338286,0.38485754116536697,0.42054277128536294,0.44270799487429907,0.37652119272697593,0.10293368480330672
0.15375446845610627,-0.06596522322316155,0.3428553085166858,0.38249882248987044,0.43621425227338223,0.4690115926580408,0.3910887607530584,0.01958775599386258
0.09014490334243039,-0.050127928544309495,0.3263911762193697,0.3721399522064942,0.4740254540483691,0.48234049727004547,0.44215989909361914,-0.11629127850852079
-0.026720503234171914,-0.019536081939187756,0.2474690763147499,0.3111865930209074,0.4202535611161926,0.43268044677366074,0.3913448337102056,-0.12578526151992997
0.0526168396463666,-0.06379018649591021,0.3223314935883501,0.4063949488517102,0.4929168249183218,0.5157244706504123,0.4577720274588296,-0.1452605666652535
0.033958578908548566,-0.015466811688774685,0.2818687920985238,0.374647269998947,0.501442246509088,0.5500287792131163,0.49618189824449144,-0.136028386501128
-0.032037771560637265,-0.016870565633932685,0.2308569086103084,0.2983045469817657,0.5004556637949698,0.5143647592531648,0.47411105829490335,-0.18861648703691788
-0.11303613601306896,-0.024059190249718497,0.1374988745391267,0.2104484979057627,0.4655337596941686,0.48135851619722153,0.4336027902954435,-0.14689833158237336
-0.1470667154102087,-0.03008214850702584,0.10339265630586432,0.17666772123148008,0.4131401255083286,0.4404964405274305,0.3966082736486412,-0.09502674609037771
-0.0072792157112298375,0.004428665297298812,0.20940056637982246,0.3053268298373319,0.5362646285442275,0.5773454512669968,0.5512733789671636,0.03260910160949309
-0.04735231924734664,-0.03040524349247622,0.16300095211362448,0.2150933852202178,0.48078546813167555,0.5370816834441163,0.49336257380795706,0.02832150996406363
-0.06391074457815862,-0.0020792179007697916,0.12523233841576173,0.18997513745972075,0.4437583203020072,0.5332960219993905,0.48748468910970005,0.10223130626285698
-0.08379092528349684,-0.007031981212280762,0.10550682710109523,0.14888753423981946,0.42163731006933763,0.49647392710874433,0.4228345132701405,0.1282088114046665
0.04669924963533368,-0.06249506427448408,0.21751171763574786,0.2642161605422125,0.4610475191258994,0.5639783330161122,0.5205262278809124,0.20102917855839691
0.08365493139595134,-0.0415818158853134,0.25518824030228937,0.28865304537490505,0.5200836535431079,0.599378016935114,0.5493145527838573,0.33936023705195645
0.08707336697992435,-0.04585902062206201,0.23419262701700744,0.26287366338685775,0.47356485726292374,0.5621020457672155,0.5184308658831576,0.30291547014553677
0.03696373743354837,-0.040231068751334725,0.19444124026573387,0.23159321557215357,0.4377007514946442,0.522048694145644,0.4554395227019518,0.4202235417601674
0.0508732212727535,-0.06783100500796405,0.18582277801238414,0.21429007010613266,0.42694777978270704,0.47941115665708034,0.4538575167773249,0.36506499972442946
0.12449144836393972,-0.01616499632970303,0.2576563813803486,0.2869400546711352,0.5271502427142136,0.5849079051717399,0.5315377876753414,0.49175327330708507
0.12024815911119875,-0.03396318636170326,0.24783790172178127,0.26271705972938625,0.48524467709787655,0.5429669867362904,0.5080334829503034,0.545705573606784
0.08611926111890958,-0.02439319320876784,0.21275627735609626,0.23528442351053885,0.46640296691174676,0.5358232949165653,0.4731727639431048,0.5138585836257646
0.08112941757947874,-0.018214556971256932,0.2313831729616134,0.23830274858896391,0.4115082450776791,0.46478456205767366,0.423226491001056,0.4691811761654372
0.2089632457946705,-0.04119658418824974,0.3341127014786547,0.3758558960548584,0.5071467882827676,0.5872203932449063,0.5369289093244177,0.4722827958414998
0.21543796247481287,-0.06764974804524193,0.352980017450444,0.38816970374763393,0.5250579452525852,0.576186232124525,0.5604662713522409,0.4274500735939606
0.20274073050474783,-0.06680135798814281,0.35823054224987605,0.37991618361630686,0.5032652096590045,0.5656627240298225,0.547065286957465,0.5077006178354946
0.1684814295015911,-0.06689562889519637,0.31968881129929394,0.3390607270669256,0.4424910591803176,0.5074833677614905,0.4780662884115721,0.43282850277611595
0.2109068263322243,-0.08555163037673548,0.3392435679744974,0.3837093150172736,0.4677464224273351,0.5361184070051662,0.4824053623008911,0.3943763996480994
0.2666390289304744,-0.09288874413445093,0.3913974884761547,0.4477569672046303,0.5336557208504674,0.6205651898676608,0.5905630247699872,0.48393979668491116
0.241729588095139,-0.08236673796454634,0.3687800956638049,0.4115217717739788,0.49094415304163996,0.5915122431774384,0.5417271473142293,0.4662024717755501
0.14579340157266726,-0.013264755969741764,0.23988434884402687,0.2644401354547244,0.44999513760666016,0.5411562925793862,0.4594622422639512,0.4658821634934999
0.031296675375894,-0.01241694762307458,0.15376033525508603,0.14534279130745814,0.37860819359133485,0.42132762624610953,0.4213429615582645,0.3689770201365885
0.15702250350248462,-0.0295523760911067,0.2868802876782926,0.27441582947266935,0.46921785450516523,0.5386163279262562,0.5089103582698861,0.4291157785203495
0.20432977087224113,-8.427732390129348E-4,0.29189796149403857,0.2970780829707641,0.4869382276947437,0.5604493623909044,0.5241833905426688,0.5150993145427283
0.18972128224269186,-0.021400813082374973,0.27806879071121743,0.2874890146160023,0.4374130726134267,0.5233909507294412,0.49207034787522175,0.4928975021853338
0.13571515477654558,-0.029045345572059664,0.24735447132795851,0.24380925885460816,0.40997822648091686,0.490542456086507,0.4318135637222405,0.5197552392328255
0.11391953728571828,-0.04646018363195204,0.21884024118627265,0.21715489083239037,0.33750778337873655,0.4179104552226068,0.3770545205476077,0.41115265919893235
0.21550747874935328,-0.029257158034641437,0.3409185072184353,0.3358731574759847,0.4636721912644682,0.5611996784506473,0.5363019513456811,0.6099654981659135
0.1973187318901408,-0.01480430981083676,0.2985518477369982,0.3038970976058494,0.4550594588078633,0.5187588618261136,0.4888786916221271,0.4750115330503628
0.18206075903256982,-0.03068494676409392,0.27209704833615456,0.25863322245900205,0.4486908220580868,0.49137168978532164,0.4622377793990203,0.42199730489964205
0.11411621586958244,0.00955663846214563,0.20410629379648035,0.20040825306812776,0.38120760388154246,0.4428181732688002,0.38543855506201974,0.4008679597956628
0.15409425176746389,-0.02585705653340012,0.2552439536074511,0.23276299461179872,0.41431136028783977,0.4828398114133506,0.4299042973658513,0.4346536941914831
0.21401770535660006,0.00534216790562916,0.2994858622030398,0.29184510257863194,0.46839379515987684,0.5218589590275906,0.4883839303963928,0.4266278080570959
0.18232109558311238,7.161701370452778E-4,0.2821786076677879,0.2805863519666089,0.4546461961152314,0.5082765983512456,0.4646187349022151,0.38385474532849745
0.1523368611694248,-0.0035079780910074057,0.2468489685459366,0.24639087797476064,0.38622515605462154,0.46852242353298684,0.41538620652413905,0.4603395981379253
0.08241342638651888,0.015914906284901848,0.22249763092298136,0.20334270367118584,0.34820254456294786,0.39173837980461196,0.33043992067735084,0.406316489975094
0.22507617988641263,0.014581953506238159,0.3248045674305486,0.3115003465798472,0.4865437757325855,0.5262492117024227,0.47177991318523277,0.39581087170291396
0.19415607750112665,0.037860721137605635,0.2963440775435712,0.27863405979562983,0.4415588194205922,0.5072007148188544,0.4473117235509387,0.47370690510670166
0.13341122149051257,0.010179322818753467,0.23951764117201935,0.24615417394641326,0.40836873080437913,0.4502144761788529,0.3948266511035318,0.435945404844089
0.07483226952719181,5.874674753063909E-4,0.18027120661913623,0.16631247762398807,0.3566222239679724,0.3846682278347419,0.35789237864352946,0.47373618576370335
0.090966982179996,-0.0076803765069715976,0.22716244043924486,0.23185582837790475,0.35127580556674404,0.39186555178708643,0.3556177553285013,0.37490719485417856
0.1999812268072396,-0.01040478998879032,0.29759034436236004,0.30623379100436443,0.45750321839091834,0.5081654853736548,0.44909228550957286,0.5160404485206826
0.19033537697364525,0.003296569844301282,0.2885081091531298,0.28997774577530594,0.4357587873379567,0.44768063637930516,0.3842547570800759,0.4221153548917909
0.163012437055835,-0.008051410387434212,0.2563649485467918,0.2500132638253068,0.39803295314367465,0.4029506118446159,0.33650551011631624,0.425718531229061
0.0988720961572758,0.010664427461082789,0.20693453457458033,0.19604476153959596,0.3242216272703099,0.34711607912288833,0.2614695397997059,0.5400780761878485
0.18283418445039032,-0.003763270496560965,0.28891663933121714,0.2899643239344192,0.4235241655506014,0.4285973483346974,0.35796355064609914,0.5842903278351756
0.19380260280751627,0.004895650582092802,0.30202089522729797,0.31765779945191525,0.4827901551080417,0.4752699599318496,0.40464211298197517,0.6207725852336701
0.20862029956267417,-0.04143218403462935,0.3464252136759574,0.36254450550678025,0.4212494591203464,0.4453595019643292,0.3891659941507817,0.5121910370853009
0.20105385851898253,-0.05237730793660291,0.3252966136669374,0.3546028040646009,0.3749936002304994,0.40093632286501435,0.3595568076922918,0.44614477792880886
0.16613163206196196,-0.02927836505055665,0.298542447588754,0.31611264063016686,0.3199706171579259,0.36205069609866986,0.3263952388143232,0.4580736214610323
0.26425451079560197,-0.07303621022054477,0.3903662853437007,0.4237403097289647,0.4528609060099279,0.4987110643690202,0.4413168652444693,0.514150243205628
0.24265233052578666,-0.06579392609232435,0.3710716131512008,0.40285692799721234,0.44090642034052185,0.4871223460723424,0.3896059788094092,0.5578687658000258
0.22948249000912993,-0.05072140102771079,0.35686627663181164,0.38726899271218135,0.4073762484736912,0.4565576352385698,0.3718059533307654,0.609157083594951
0.17647321650965006,-0.03828343607201943,0.3149484382083112,0.32802278510483823,0.3346145247350228,0.38931354617361047,0.3235536854286124,0.5354409443466642
0.2654821560113567,-0.06465714413930461,0.40183641655317065,0.42322705263355526,0.44180094909642004,0.48226146438289746,0.4536519543493507,0.4720663515507517
0.24880284314682066,-0.07044254442577957,0.3692036406770048,0.3973472519238803,0.42958484826375726,0.4742448737835924,0.4218094256528177,0.5867193664880047
0.18547498898807227,-0.0241317769500705,0.3041356879838499,0.33315317737517824,0.4264136605225966,0.4565946773487196,0.39109853911769293,0.5700340263148939
0.12257805808071698,-0.009445725915158824,0.25859682680521107,0.2712494244202875,0.3886680771715281,0.36783119179035906,0.35951054599402915,0.3893934829771754
0.15227517324995848,-0.03042808540582617,0.2835131358688527,0.29829103946543467,0.3632119602811766,0.40059151281720373,0.3360131413367453,0.46479279613077146
0.2417032794362374,-0.03784959329552945,0.3716719995800381,0.37550860019954957,0.46233643129633434,0.5371776625416184,0.46228974668732276,0.5909147975088564
0.227114718515437,-0.019377801322047705,0.3632628028981229,0.3624859800841358,0.4298856628183157,0.47763961751017703,0.4082824304366885,0.6323904384356877
0.21551684900768026,-0.003161088733241819,0.34421325416576326,0.3821928065150011,0.41389819927837684,0.45393937112215976,0.39134583288798586,0.6011101076407748
0.17746533824926308,-0.04980252946089978,0.33374241249761954,0.34915118777452664,0.3551785775828522,0.3857943285889227,0.3287574965073062,0.5531714220411561
0.27925102820481545,-0.051274806536967116,0.4197508129207036,0.445302203582456,0.4347913915985885,0.46664649227605964,0.46342332692289845,0.6551730991370538
0.2600450114663528,-0.03373897004294435,0.3989029016432965,0.42050518490082806,0.4595822209790257,0.485444834488022,0.4724577212433038,0.6647166596111929
0.2188893728388683,-0.033263491591130775,0.3339697137120681,0.3578418841695971,0.4527386029095984,0.48999018031487934,0.45363473838896,0.6389745197982426
0.16911285209818488,-0.04050580629047939,0.2863796745798463,0.32583223654025845,0.39611007375332685,0.41976336818823623,0.35630917975955406,0.5701731407604125
0.12518055586595128,-0.018679371428318364,0.2571924425591521,0.26187616564750227,0.35243997115529013,0.35327097182929235,0.3407796059683292,0.47924480174040385
0.22023087766768767,-0.0338926065848001,0.3457789508299546,0.38281431605044197,0.44880305938218923,0.5359344803082278,0.4952634399296497,0.5860637835349355
0.19607613257080955,-0.060484224666775804,0.33392766092579784,0.35812455097131196,0.43773387541568987,0.49024459937049614,0.4365790813501315,0.4721524807110963
0.1598607974224032,-0.03390993034430241,0.31010413636449985,0.3255072841110344,0.41388525065261067,0.495416394057935,0.4097259909758048,0.5270848099681772
0.09649791042090274,-0.005350141195587381,0.2365330559077437,0.26151236922618404,0.3653308052163914,0.3926918145706113,0.33958368971562847,0.4271711885770552
0.13950061755399262,-0.010540617413819342,0.2702761550730022,0.29598882034464297,0.3783585233216848,0.4123087491701811,0.3658015952408269,0.5867710253588434
0.1857323185526931,-0.05120132627281352,0.3386162877838545,0.351131356908446,0.4397102132320516,0.5197578965935894,0.4711831870113355,0.47549821038455276
0.15154799336271726,-0.06574869807709251,0.29074499571483137,0.32189524928826535,0.4317614979530377,0.48063147589932204,0.4369523621709492,0.4548499759892627
0.07850705277103383,-0.014411849310768467,0.22574664847092182,0.24022900136514566,0.3672050642060538,0.38177260355564585,0.35681008364274897,0.44202084007182285
0.011459606911375136,-0.03539524116442149,0.1631384395103221,0.16972816179564054,0.3021911308299293,0.3241900885062893,0.29159458353868956,0.4312684992417096
0.14894036564504898,-0.019451329572372316,0.29912584744255627,0.3081751229708952,0.43030150599564093,0.5091381752708319,0.47162018869157896,0.4572262875915247
0.13541295691048344,-0.054096774888641286,0.2603938649593713,0.2948247678386622,0.41814223515363363,0.4766533696895578,0.45911222416387765,0.6063069802794989
0.14974045855264678,0.017817326172775882,0.2615351748856337,0.2973772573324478,0.37728118627365254,0.4345679186584207,0.4287696170571256,0.5441564181396117
0.0841922044419049,0.029686074448071663,0.2038460104089113,0.2101335161194911,0.33884112838439057,0.3840667729545254,0.3389108167978932,0.5320488405822863
0.12459111139507117,0.024133970365505887,0.22762790214118084,0.27258706090825635,0.3661840319394156,0.4179859604222429,0.37758628136595623,0.5521473984946317
0.16908028463099634,0.04969460763535415,0.29522473051092635,0.3233646967600731,0.41523180185606756,0.4853995212794904,0.43741510107276943,0.527189681897165
0.14961606656211007,0.042862124551903844,0.27271447651482006,0.29076615869824096,0.42392464804781493,0.43421265115134083,0.39423567687388456,0.4997785625137965
0.07869288943540655,0.07041909829117342,0.21920116840896345,0.2411407100423666,0.35321855960119153,0.39709938711003595,0.3557961189756514,0.42235224426587564
0.011289145892815676,0.08838638535940725,0.14676900881569294,0.18540015495605505,0.2849423843143143,0.3205732437354985,0.2779067970378995,0.38446118237705385
0.16356435675002334,0.04103488587944404,0.3028966951094257,0.3367830378384465,0.38468362268382134,0.4492120200516892,0.4359009046170307,0.5040959449128228
0.16785828508026737,0.08881993222857759,0.30013025900617385,0.338876442594393,0.4049948130587011,0.4202238396495175,0.3965538559920684,0.34792686269105694
0.13998597501077584,0.06740421827464163,0.27866442822735615,0.33554197032902544,0.37333060971702586,0.4018204882390083,0.37931865918260177,0.39474159460488684
0.08197571640959232,0.028788464402518407,0.24222117900703913,0.28110877822034563,0.29298187104001255,0.3260787609164765,0.30639450003559177,0.4063550775290498
0.09989503082552639,0.035484138190526725,0.2564234057387102,0.30426412961417376,0.2925477248079337,0.34879838101160754,0.2986755554361193,0.3205244262977832
0.14981463071624831,-0.002182659079061361,0.27115597610290204,0.29676446746689633,0.3696384243473376,0.43006521642523526,0.4145757600674472,0.41900670849040345
0.10181383020645551,0.009234456930588095,0.19367008407209757,0.1985656332858227,0.34250216923617877,0.36729170253842003,0.375127723796386,0.47512744913074423
0.0762862769454431,0.04277047350676544,0.155899008108793,0.16882655473689132,0.2842862793093173,0.363192700029585,0.331485389086505,0.4558129919905047
0.01565138772510072,0.013554035520268303,0.12016223837960562,0.10938417793629295,0.27069783431464994,0.3143955397195947,0.3036586685711281,0.5261237924400065
0.15002863202315905,0.011053567986654106,0.23972974569616173,0.246738822385971,0.3704324076890195,0.4398345619160727,0.3989683441250726,0.4539280774141861
0.1187659978470793,0.03310084119877036,0.20484666024404166,0.19999095012533427,0.31282093584637866,0.41147052635597753,0.35637206451227393,0.4080811048234609
0.08982944192411418,0.013125290187378237,0.17826381581119297,0.16918596550452553,0.32947258646499744,0.34552891205675323,0.3318267337414427,0.39366921230586926
0.03241670734087862,0.044298964762348125,0.13489805608815986,0.11089628541738084,0.2721999153912141,0.30324367129175833,0.24127646148610352,0.3890482412686793
0.10709599978077733,0.004259685354557048,0.19463819969813917,0.19783699850040096,0.3107956779977325,0.3730057500093765,0.3290685178329596,0.5382751372172431
0.16345560339196422,0.005739503042303108,0.23996495432345,0.2428133152738297,0.3892615968506627,0.41210836522838196,0.37521265521797914,0.4776233967005036
0.15772659338576048,-0.0015347253161282143,0.254221052276596,0.2621240300104048,0.34068711700676824,0.3922493467869323,0.34904560765302056,0.39019250609035694
0.11038622956090686,-0.00438423777532954,0.19153083746045022,0.20489353400638846,0.30167764503863054,0.33646493133025557,0.3107713650998964,0.448371764742978
0.08307425829895353,-0.00118755903870196,0.1803373647039032,0.16892923550108796,0.28687659146684,0.2912544364969461,0.26511727722035094,0.4406700762909118
0.16658765699764552,0.04127824102361209,0.24221921563690224,0.24954112596922073,0.3878832616399159,0.42296548411283597,0.3732547614240362,0.4650587031214743
0.10385530805156809,0.023835969263702784,0.18698956608964798,0.16706754238246624,0.35351422797445275,0.39390437816534696,0.34325217751160053,0.5695549162473904
0.08155847822647379,0.04849241736580411,0.15753222630957292,0.13602370686862675,0.3439307703571741,0.35475670216843663,0.304469727650591,0.548869154978342
0.005487618721026481,0.03609599690439911,0.09791567350436366,0.06812004656378651,0.27559847059200276,0.2835939485704159,0.26869165443831944,0.4901076040496021
0.08251292589275931,0.05769338665640856,0.16689987057940342,0.1392157800290045,0.34947829063985136,0.37218492996955693,0.3387966399775273,0.5413536875680095
0.11129930597911658,0.024842006775876634,0.20174753325002143,0.18821011976296212,0.38176273204372574,0.3936892903449603,0.3645798525621369,0.5070314678957697
0.11243035572824059,0.035674415824042814,0.18959589869045956,0.18160140762984808,0.3385422481179614,0.3709691536922345,0.3137045494306008,0.39794723422785505
0.06096742582422799,0.042483217923614966,0.16073906129736207,0.13495422759939585,0.3287340468298945,0.3092746604251833,0.2854711192661795,0.524750171097724
0.057743291311736326,0.0161329543532894,0.15305285797459367,0.11299298939158109,0.2840379811810942,0.2773324096913085,0.2422125979314803,0.5311131569478845
0.1489634429415112,-0.009607370599984143,0.23818080690012114,0.2069741104821563,0.41458785707830065,0.4243565270441508,0.34985831863076106,0.6292116887530655
0.13747354650012014,0.008145220465500523,0.19804355450633765,0.18366072235610043,0.3543970123838859,0.36109064291916354,0.3213804186197995,0.6035058280934011
0.11645004761778938,0.04945697371920917,0.1994089873173381,0.16413225571232765,0.3441932372314831,0.34813748776778597,0.31910041616039575,0.5695940739130024
0.09390293203312837,-0.009619082531096107,0.20560753615663918,0.17070023505826437,0.31525210438649826,0.28900369925142755,0.25529476102825926,0.6416223048959221
0.22403284822852354,-0.021876564960660382,0.2962349614724649,0.31939648398086357,0.39190928225760285,0.4317601028769186,0.37877637475169684,0.6487768988384831
0.20622218133524187,-0.0028915610220387328,0.298256629014367,0.28586116390167565,0.4142039570201496,0.42446547232694387,0.37422921229081907,0.6525246408749306
0.18442513702703175,-0.044370344882664434,0.2632297504250027,0.2518974880092566,0.3969183394522588,0.40983244290911613,0.3543133930343446,0.6189206670531693
0.12116948452268625,-0.019390383055385364,0.20006169667950854,0.18462287390569695,0.3371450639499996,0.3378038008259007,0.29351355622690567,0.6191394798005305
0.1682913780348517,-0.00903193366162537,0.23807931470026222,0.21082902213359342,0.38618839787335413,0.4351550266084246,0.40148106310660864,0.7030417410438937
0.18205086564539494,-0.02683424618823474,0.2508487977944631,0.2354600261005399,0.40621401452644895,0.47048655797520506,0.4197525178054497,0.6374045169507835
0.18009109670326906,0.00842732204281376,0.24227629484191815,0.23154098295024672,0.405495251022113,0.43534284363224823,0.3850112412067552,0.7274667465914771
0.14742022011573466,-0.003300285265241284,0.20789035690275104,0.2021701287697154,0.3502645547565357,0.3864628349663098,0.3494330893300417,0.6516562907066562
0.17521304456132816,8.459725538720245E-4,0.2462556010181326,0.2429394651023585,0.3799917580101283,0.4140698746978086,0.35774416009583426,0.5960831986284848
0.2543936324707974,-0.015726658746346493,0.3241398626012095,0.31901703623529637,0.4524745140056093,0.5013695629019114,0.45858570360090284,0.706910780553437
0.2446818426045218,-0.030116996598665166,0.2967855499771894,0.27276487209536393,0.41995275246864555,0.47547257342588634,0.4431466144811039,0.6163721438702028
0.16328156740793998,0.01565207042522255,0.23801751917356465,0.21897624880726432,0.39393013262693577,0.4443306231791079,0.3938541380539502,0.40500838259674654
0.09673105742031592,-0.006640660586424184,0.19384116124239703,0.15034853425578512,0.33615578850736577,0.3791539781856567,0.34415153973096824,0.39456567752965493
0.19608778708036986,-0.008725760523279055,0.2951620567675421,0.24976598606469042,0.4458908082457691,0.5232303170283438,0.47591539156328533,0.5838187690318425
0.17396566746135442,0.028904341238762815,0.25427771053834397,0.23726490075782125,0.44775475932245884,0.47989417236389065,0.4570093855630084,0.4576837161524966
0.17251821365904094,0.018005718699034147,0.24641655772474297,0.20214872391188834,0.4236940519152927,0.501537546381782,0.4219864040353129,0.6334683719851806
0.09384813947886869,0.010029340109795726,0.18678107497053303,0.14874483667920607,0.3911533638309551,0.398430177637698,0.3800643565227647,0.5702372342963533
0.13082691733693047,-0.04578541426060028,0.21955472451379793,0.20177078436809204,0.3835130516589913,0.437662340950344,0.3987902647489369,0.5127756879687607
0.17602010023252268,-0.018339410999177717,0.27586313694619297,0.23895269849505946,0.43772749164208336,0.5027583206803399,0.458282987367055,0.49194031926824205
0.1496583752854019,4.4986107285752505E-4,0.2519905220326469,0.20354526635829723,0.4340814538866564,0.4832895070511525,0.42256401041993763,0.4073691626107587
0.10935005898483736,0.027123776180460652,0.2070237950764022,0.17197705486424225,0.37377815061781827,0.4267830524893351,0.390276995182839,0.24581559794316762
0.12788159761802176,0.007543460382481743,0.21740355256138233,0.1954383941594632,0.37718248076507693,0.40546454650879993,0.431494127172642,0.34662117997672903
0.18501626372770347,0.03282225672765224,0.297060130627355,0.2558524466289671,0.462348584990988,0.5205850152662099,0.5184251671187852,0.33692693950854213
0.18494326841902217,0.05065269002383896,0.2758408035313158,0.24877680143991632,0.43288193909719724,0.49879680852068675,0.4656290770772755,0.2773928280161806
0.14165979547840946,0.057394820348504995,0.23464046074578354,0.23047431994261777,0.3958898545100652,0.4840128366403505,0.4431889679370145,0.4169299682140761
0.1446019006076923,0.028269609887813213,0.21727967308904034,0.21250063788796067,0.3600814915727956,0.4481078516880156,0.40165211648527405,0.3854051231204112
0.23041768856777387,0.04284643740250905,0.3062595231692637,0.3044899480932196,0.49617700371463824,0.5490599753696902,0.5406871546673342,0.5061185380653069
0.2162810894416163,0.03115985684179183,0.27278664361384025,0.2730167766643883,0.456090717506026,0.5267366883786532,0.49085691234184003,0.3313887655340565
0.17130374973384277,0.05276214476756895,0.27373025514259414,0.24916036284885038,0.41461270270409933,0.4870190067445679,0.4585499648708602,0.34695377980012626
0.12896231664926572,0.03376034566416809,0.23046775463283803,0.2082063090969978,0.3620564540087625,0.417483977575905,0.38636250067647837,0.35821871361772056
0.2232719656064539,0.002650835294269528,0.30275316245631256,0.3013742591690385,0.46877517003500546,0.5493188802763369,0.5210493339424387,0.2593314582427661
0.2065363941825288,-0.00627013562640281,0.282381831365223,0.2890653074788016,0.46605205875703387,0.5351827048991588,0.4992268596312863,0.3061748483935373
0.18123491140749454,-0.024600568038053022,0.26857983045617895,0.28209980908111504,0.41396135171407566,0.49447066836408454,0.49566860831566717,0.2619186299210463
0.15168705318078232,0.028187487304756842,0.23046120228513978,0.21531272303817992,0.3796322136648146,0.4341546785938439,0.4101883654672427,0.37398696714210167
0.15940820039377765,0.009188796518585706,0.24142363963574262,0.24132008429963378,0.4069084541590851,0.4818906207766139,0.45954791399037576,0.4008337349528074
0.1987217552283083,-0.042738156324204656,0.2578315054451245,0.25535400961998395,0.4583235253838173,0.5356775478330739,0.5090575169488541,0.2845422767751138
0.16212669040457722,0.01647888471247816,0.2274956063106138,0.20734772090112066,0.4180618465237951,0.4998591015196459,0.4555302185551029,0.2715023207387153
0.10007955516273434,-0.03312237156249246,0.1825940395611262,0.17733809487119787,0.39412180366844296,0.43923435768573826,0.4326382698281547,0.26605675852950467
0.045751066689473464,0.02433591377723919,0.1649924423367419,0.1385361218380145,0.35234485670638005,0.4121430437081854,0.39160574764692213,0.24497604633285042
0.1677264375889425,0.01869224299560949,0.258784147266653,0.23297210052154801,0.4654550710981766,0.5730568832088294,0.5487438411496844,0.2608260956352319
0.1508966539774547,0.011019939795462789,0.24053266710751023,0.20925482171198054,0.4207233563526794,0.521512801190314,0.4989619125563138,0.27566131135175553
0.14074415855209785,0.030915649655784923,0.22709308736069256,0.21441732116422024,0.41823365875396823,0.47959225079130735,0.45942034291162276,0.364062056556268
0.11200392416683769,0.02302478025256109,0.19756072779859923,0.16964941946654075,0.36703323474724,0.42732257853964756,0.40800056847239285,0.2979104081449652
0.20265136565660063,-0.010628535354746154,0.2779401378925663,0.26574534523037635,0.4571026359923443,0.4987801262237016,0.4686668869017738,0.4419245346648154
0.22361030415693572,-0.02735817377173821,0.3090456510087227,0.2753122628395268,0.4547859611468372,0.5096327737975079,0.4777261050069168,0.475283569002111
0.2238549919490506,-0.030038792266882365,0.26031824707735574,0.27266863031008454,0.39221345610317093,0.47008391310047787,0.44873021903978144,0.46118904510943703
0.1662552571968399,-0.008812174396888469,0.22609994034656658,0.20514258641023222,0.35306230395951604,0.42017812299166957,0.37850747926239453,0.24496933855764885
0.16376744511778338,-0.03140766379522321,0.2479094843728585,0.2330132735654835,0.33972869050489723,0.4004861713005429,0.35966751341484493,0.4440281716144484
0.27077030269885677,-0.029838300724241675,0.3259122518225674,0.3141872642754282,0.4241734354084595,0.5358882628764237,0.47272422907938916,0.44814632074811733
0.23509108610128568,-0.04412925128852577,0.3093717254978499,0.2960635410286128,0.40713840826868336,0.48090679440291484,0.42513703989578344,0.39432101540664977
0.21556369866708255,-0.02709169035504557,0.2872336809288543,0.25314961975691763,0.3705242089918728,0.42265256799469114,0.39949990668076923,0.38224622259768665
0.16011414215377376,-0.0558046631712154,0.23330284130126844,0.21243763532571505,0.2853457527822617,0.35368417413882075,0.3317786805670351,0.3180102724857178
0.232541784178794,-0.04815249392029955,0.30072951842477186,0.28416851713204866,0.38444190422574503,0.4662193060977315,0.47037299163586843,0.3818776835782206
0.2155947268022311,-0.020200216901894653,0.2772408546634212,0.2718537811403138,0.3993214524175837,0.48268015697982697,0.4498895240422312,0.4191929306622968
0.19644003026612322,-0.028023038118112277,0.2633610325074397,0.24507966929168337,0.3948061872883355,0.43352451270125675,0.4004869375950437,0.3447669104142919
0.12751265212632118,-0.009860886914101225,0.19390107764030554,0.15476767720475013,0.31854389000554983,0.35809460479213134,0.3537392751627061,0.38625542463205925
0.11779518513331592,-0.006889105033057114,0.18487781649407006,0.16488677041316493,0.3046510028180948,0.34950586326828853,0.32553654666595166,0.28535864684385076
0.2026629072635185,-0.024400189665104013,0.2682667637772679,0.2286691663489542,0.36955937912190556,0.4543196682476859,0.4561318033225093,0.31928237709681156
0.1546921061000625,-0.039277644793888164,0.24279186823770174,0.20735094003334184,0.3585107435735722,0.43561002964420753,0.3618690796046436,0.32120521662074464
0.1375006123277714,-0.032874665723649915,0.20562766052254328,0.15380432070636652,0.3266644457169269,0.3795022763462787,0.3413258402095397,0.3108156134957974
0.08720459464854675,-0.02288320439892303,0.14591696975146634,0.11598788740851074,0.25211444279514145,0.30863493269933084,0.28704247444815595,0.19319015310898605
0.1975690103717118,-0.03222675971994671,0.2714796732679206,0.23365016267240118,0.364990558397706,0.4534573075325624,0.43507539593133004,0.3235802971124391
0.16180141464027828,-0.016417564427369708,0.24080945267360454,0.2120880138239074,0.3371974091712503,0.40624066654850854,0.3888241958684809,0.3462445904985889
0.13493808289161144,0.006000331555789481,0.20658075580689172,0.17287101932100898,0.3272888658960698,0.37875510544651986,0.35447904362372423,0.413838154754693
0.07816603678809192,-0.019243139362676808,0.16292629138704648,0.11828179567820825,0.26249571291925144,0.2975510857095856,0.27223177042232605,0.2653053904058427
0.17098567805986936,-0.027776125487320908,0.23778384947646217,0.21077489765607405,0.3467877628892739,0.396398032489872,0.38974768910383756,0.26877138332324113
0.1850302036719217,-0.017183169836788355,0.25769436992429173,0.22771896088618257,0.36185609001117064,0.4304699636359957,0.4080971181022482,0.3289591027845379
0.15107148823176375,-0.054059920168885674,0.23302044880167508,0.21648299334712154,0.3212823205312201,0.4053364452232387,0.3662149669337345,0.3453167372140731
0.09909471128175959,-0.01596668763529512,0.18102751243223705,0.16081862503963623,0.2814310251296493,0.32649835816579104,0.3210369163440066,0.3902654779358566
0.10646822660125105,-0.02155232066303269,0.16607767680228155,0.1383083014794001,0.2726047344978632,0.32576664377152886,0.31148630174824643,0.39613982221477245
0.2004259937387635,-0.025616876103925927,0.2448221266792218,0.2255260435843996,0.3882027258072144,0.45493188787763994,0.4241041405171413,0.4260378977672707
0.12351877090341376,-0.013777261782936045,0.20218262308890297,0.1663989797463146,0.340285573314611,0.403711960135822,0.3822506135145594,0.41752251870446955
0.08069693149590083,0.0175386877849291,0.14944140111264925,0.12835276419758065,0.30916377792950417,0.37758593776728255,0.3329203580997693,0.32578085656022415
6.912359121771191E-4,-0.013161508657339121,0.10263138007808663,0.06380127790224255,0.2463003471478627,0.2860131811065953,0.25821030516261456,0.28836267570460306
0.14092655134239235,-0.0037723310156450654,0.20193659056319305,0.19261378006826627,0.3464469736078131,0.4356590765307422,0.41764742589390474,0.3490170031211536
0.12036676850982317,-0.007580496491523476,0.20125446307285885,0.16873223422738892,0.3393788893584265,0.42853114336027076,0.39604631925471756,0.4120064796171738
0.09403621100010554,0.009370296893090562,0.17704233361654853,0.14736479131872915,0.31217961997186144,0.38504296537311755,0.37042759538631653,0.2640784976747485
0.04619519933634296,0.00560546549230564,0.12075449528271938,0.09554932832491113,0.23913075880027262,0.3110142047641967,0.28452118778301083,0.35695147283747547
0.06921306519315687,-0.014684151779840188,0.1707975848005609,0.14273653637083128,0.26143147693978747,0.33273960232300925,0.31134582482711354,0.26561941672475825
0.14821539112187104,-0.01750179586312455,0.22730358594522,0.22120112185447446,0.35322837567012066,0.43184161901285006,0.41008900945030696,0.3936547440539293
0.1304342701004413,-7.06493144387297E-4,0.22403601781735755,0.20810007540628225,0.3121566634634116,0.37837019785872916,0.3765650069277354,0.40846486121182385
0.07477705048289703,-0.009163659221378143,0.1801887218093145,0.16269453415479487,0.2620370675334731,0.3422308396900178,0.33506703390513176,0.3979992475525351
0.06539879120997832,-0.029577045280965417,0.15577422969173588,0.13469726182341027,0.22779897310578281,0.2852917945095337,0.2821932442746886,0.3855571807384319
0.16258630612505431,-0.04904813453423923,0.25032577850021687,0.25906116595107337,0.3692867077419905,0.44082757859003713,0.39696872797834126,0.38422255082226847
0.15610299829398558,-0.04567412464492241,0.24977968967830452,0.2607091193608285,0.31218535760006566,0.3552925540771206,0.34375366361766,0.3090351769079848
0.15100777340825278,-0.02432593223445219,0.24043711302432666,0.22059627356659142,0.27297969186911775,0.3340571203446072,0.3240224439347566,0.40783150155742603
0.09902563620806126,-0.039930459378627575,0.2044899147394994,0.19352698253549366,0.23291623442816523,0.2695484684066306,0.2595600176224386,0.3258709147549379
0.21490070320120433,-0.06437431398712379,0.28763680990405016,0.2978161477162241,0.3461930537692479,0.4337217153474155,0.39847001812310184,0.43953425133993157
0.2048296323057882,-0.02949370138964831,0.29659456237971593,0.2714100214868426,0.31220022068024594,0.41039591345368504,0.3779754220988285,0.30340180588833277
0.1818564374280046,-0.01353918053012391,0.2541559670790687,0.26589012085333874,0.32096721149587787,0.3742992869077825,0.3601328880133149,0.4103636228630857
0.10458536391399093,-0.01932810449197062,0.2192301225940928,0.21281341457352906,0.24683176994850162,0.3155050872145482,0.28053617291317345,0.37350716264923556
0.20692274479852446,-0.03457241348577032,0.28626343275087457,0.2768737849033065,0.3473031362160055,0.39862281411886236,0.3845836027755748,0.3866248515124835
0.20373580455767484,-0.04345014733078272,0.29181417447221497,0.29151387994254413,0.32909688951593524,0.44224045324855604,0.4042591718145515,0.37404367552874945
0.17751434555258258,-0.026429640166848244,0.2761586002734857,0.2630628380888292,0.3442592220335417,0.40413567186888316,0.3705319265881684,0.3638566230435252
0.1656644827662686,-0.04146323945597519,0.24369975990886744,0.23468475731733895,0.2863035531083514,0.3341191365803223,0.3098677768933856,0.33120211726737336
0.18761147161368472,-0.017014672700020696,0.29274238695532984,0.26943895258239475,0.30177755622185737,0.364633960507636,0.3326413170900451,0.3477300209127122
0.23312466574722063,-0.009748241174910459,0.3063444347670171,0.3237741568108567,0.3963260678954036,0.43791402519032463,0.4264461753862062,0.456484238350985
0.20978458347242515,-0.035277170373189136,0.30102472950415965,0.2935206583914663,0.36459160231414595,0.41279065915875834,0.38965657774304857,0.40066663783008605
0.15763792977284163,-0.01624437589276589,0.2565021602414102,0.24202571530019532,0.3193752342354735,0.38614930926654084,0.3199605894347209,0.36711857490863886
0.12343986484697124,-0.063160531198906,0.23396858801881804,0.2149315381506372,0.2888104544418585,0.32355865583190563,0.31076741463062835,0.2630942931910296
0.22496892252653486,-0.0776357815814494,0.29371689585752564,0.3032760870685766,0.41767929841537693,0.47813800647991894,0.4425340030189583,0.3641575721310925
0.17565218145790157,-0.07875489363082057,0.2766205430062272,0.2684673112794489,0.3676467448559387,0.4310179598732521,0.4005044630282733,0.3922243532278705
0.14689539777136193,-0.033569212134642,0.2543465650481984,0.2402113641980559,0.3332654744007946,0.3930696160506077,0.38247687612358405,0.2866763979288255
0.07960273102834112,-0.07683191182812088,0.19982151062295822,0.18008160687365724,0.29060135200524234,0.31347513711608,0.3126285038521621,0.306152540128526
0.18001445923737236,-0.06276166583247439,0.2597742930860431,0.26746729436673994,0.3658516443976162,0.45189141859167065,0.3926231529736795,0.33140284311487844
0.13430423572103692,-0.0982390882539816,0.24556108094165544,0.20844681206990232,0.3381735296824063,0.397833709208113,0.3777703084477647,0.2762816295020937
0.08751710742677882,-0.06897903145160776,0.19737278828282892,0.19855704082158152,0.33319163062739904,0.3819739267730236,0.3141460890387732,0.3093461666823677
0.03202692072928743,-0.07262913659115915,0.1480781912411922,0.12515120346874611,0.2574619449748075,0.3113849166542919,0.26150952545381967,0.27127318657445165
0.1668033776603887,-0.09401051073883239,0.24636125285961247,0.23141576837880706,0.3537499421596491,0.40333175284242034,0.39223576088968376,0.23890124920681
0.1443557798078463,-0.056681983459755,0.23726368920909016,0.20648995144826873,0.3499124373401983,0.3971450612988089,0.36498005700301134,0.22079675093378587
0.12279376588499177,-0.0903495477511292,0.23421889763626916,0.2018101459880271,0.33733819375129953,0.37683654938563677,0.33584481854371534,0.28090274689944694
0.10470569693539593,-0.05221071681030414,0.19127993474793176,0.15814150612593367,0.3083284908855821,0.32040582478526825,0.30138222102866824,0.2622553882849796
0.19409788148164542,-0.058847547974851415,0.2706235668479301,0.2555002023098891,0.3959215250696756,0.4546812288860936,0.4106846754717521,0.29304391466065494
0.18337270490958532,-0.04539587292614107,0.24316495516517073,0.22940203261977574,0.3583109767536985,0.42060330240646654,0.36831669090048486,0.24447500874789926
0.1752826093470528,-0.03761836438755084,0.24645792617846096,0.20652690555163838,0.34472487217175346,0.40378400602008524,0.3449585617643379,0.34727381250250927
0.14904125725204087,-0.033637648035143436,0.204972294355651,0.16798965188203008,0.33109048296770727,0.3457294623416486,0.3337553702306039,0.25128413473539274
0.2318125085633129,-0.01310038597920495,0.2676278978483831,0.25212601434921883,0.40313571130668646,0.48178989927395094,0.4314437268087887,0.3404109271568523
0.21248386593945942,0.04269033846795797,0.25521907744387456,0.23229727543644205,0.3832085914548608,0.4563362422680462,0.4123130395895782,0.1586462591041841
0.17970450657117676,0.09261225604420024,0.20035901633392572,0.1752078915770208,0.325791423499401,0.42023381725496056,0.39671774100924384,0.37492789150692796
0.10934040289882369,0.13568323156030376,0.1671710989493279,0.11928701668881443,0.2367954166819892,0.3050269312859244,0.2895055512134593,0.3124288396315534
0.2232105826809677,0.11523411101902324,0.25573946801317626,0.23751127734023225,0.3386574474800162,0.4289968557254909,0.4334884062393599,0.4556421411144498
0.2242119215304479,0.13276770039788818,0.25043702692856074,0.22524097687221445,0.32306713571338974,0.3956733828912273,0.4378631667267051,0.5933605021641708
0.18780281865417575,0.13614202375700915,0.24445157210708726,0.21734053981497953,0.32858344770751663,0.3753556176266296,0.41734174586543676,0.5655426183945315
0.15584131626824652,0.10534942043035057,0.19212203880964293,0.17489217113207492,0.27720613048165965,0.35857113943654245,0.3452719359565239,0.5269419480619489
0.19596931829554515,0.10503079312065708,0.23136818695337963,0.2225655807056795,0.3017670519002519,0.37830516327908376,0.38112987528855585,0.5102364057036909
0.2528223591414171,0.1446526149849701,0.2947724707850348,0.2760672104821856,0.34979266094917394,0.4480911289596029,0.444242923008108,0.5622734602880338
0.23162567856282296,0.12864108700725546,0.28293489831136637,0.2497899337833843,0.3317985799457268,0.42530564002112464,0.4174899828606391,0.6180017834318398
0.1842656873338899,0.1506395521787057,0.23777699953948622,0.21055714801031036,0.2946405449344956,0.36076917831394545,0.37369908545146896,0.5812781728092927
0.1458832393701557,0.13798951930367356,0.20241294191203926,0.1703205154412787,0.24186354235890944,0.30759617644095893,0.32890559544876574,0.6156202137537823
0.23532211226602148,0.11887132024453206,0.27449100624059086,0.25584721878459543,0.3527351006471047,0.42070708682408053,0.4503770998137612,0.6685342382123084
0.23258864122054532,0.16330021976157105,0.2974246443947986,0.2869564932949223,0.3749312698836485,0.4398809497355143,0.4242236474394122,0.5520125337746724
0.22314492721689638,0.15667515943757307,0.2722978533983673,0.25217386428890887,0.3418929753280057,0.4037537641419495,0.38869577824978385,0.7070007988291287
0.18195387679553726,0.13879476463617824,0.23292588728077657,0.20500448799121618,0.28434031191555803,0.33897266388780606,0.3598571255771698,0.6495734929879136
0.12840908719307031,0.16918627683769677,0.20499351605318317,0.1706540166481088,0.21906854732774506,0.2577478160517382,0.2572692998432785,0.7083501904246677
0.23331197365487863,0.14564547748852508,0.2905969445968641,0.2784096081923161,0.3236617654381956,0.380774887798531,0.4012739754329382,0.7541051004604418
0.22541202929375168,0.1738288640356727,0.27344922438585506,0.2664835931930276,0.2929927308962755,0.3753322487106208,0.3859239925909001,0.5644405517417298
0.21257771686872742,0.1702946615173559,0.2750973024863149,0.2337095782472942,0.2855678155699613,0.3495664308854313,0.36880771354330527,0.6133646850450722
0.15391962817291865,0.17912363072170243,0.22846273726096883,0.18027368962308316,0.19899981869705438,0.26949482489103643,0.2592721006984673,0.7327793612688309
0.12736049660539128,0.1190952159186943,0.17264885159581508,0.13230260836273125,0.16350710411533914,0.24523488969813784,0.2258408088208289,0.603368513151611
0.22929806674397843,0.14385752865850962,0.26416931213191097,0.22121684745191106,0.28691605977035745,0.3689268640084823,0.38737154021556947,0.5976765112001801
0.19626952514211835,0.11555041271336115,0.2276099856543606,0.1690603192699244,0.283009036922074,0.33210549109607124,0.3093592219426175,0.7844053976840378
0.1633152563201653,0.11949393029606539,0.1990030797915989,0.16107633859521092,0.269686427798525,0.34242857493141937,0.29391674369988297,0.7632840494052905
0.11373969004482502,0.14625883916545332,0.15593641252013102,0.09705825182582258,0.20741961817312823,0.27477023802495654,0.2298317700009828,0.7421252469885922
0.11694279525687658,0.09314437858608483,0.15706727420677313,0.10763093970005927,0.227271702793246,0.258645469396894,0.2450718393081246,0.6213709762123618
0.21248484330345432,0.09717913957231622,0.23526357977867238,0.19207964148016649,0.3337482383449005,0.43770006580098164,0.4006616896239582,0.7443002337746631
0.18354138843764106,0.042443437020670875,0.22117069502355666,0.1676892494853082,0.3314268120220548,0.3855638997221603,0.3583699380840668,0.6882149144572658
0.17194532217878064,0.038739783336786966,0.19979307834519733,0.15421172407221612,0.295804008502971,0.33288370605303497,0.3346662217687186,0.65003220354895
0.10704235174286456,0.05903200083292384,0.15107833875461438,0.10472645764787059,0.2212982388536333,0.26497764200054114,0.22253650586883886,0.584304460943217
0.1703269888489916,-0.010634428977058392,0.2326145533527883,0.17826458709039866,0.32682192541124794,0.3635671484143614,0.33228126366051264,0.6672588393702795
0.18513979910515838,0.03532291485102275,0.22210201993972062,0.16815613867510248,0.2978014707595447,0.3873892662668494,0.3688737096965636,0.56181960904365
0.16609275919138558,0.0148718436722812,0.20817161993375388,0.1582516696757367,0.3219857211896066,0.36803179920980755,0.31565775860890927,0.522460839783233
0.1020246516994721,0.03437433932287066,0.1519817339913702,0.09119717834236271,0.22452802138622796,0.3230763895273097,0.26344532154897227,0.5524406368752661
0.11003706010737857,-0.005061349615654251,0.16066082824804084,0.10271639801397792,0.25568192650026095,0.2916014667054261,0.27250255008774044,0.5710244230676133
0.1696474143667975,0.00814756212885066,0.20859074919286344,0.1484491704410078,0.34132101225706657,0.40436694523909383,0.37337254923427526,0.5720099423033493
0.1383062547555039,0.0019155198220408248,0.18168976506121606,0.12622110776946757,0.29101717002024874,0.3797679697925456,0.37663089369997355,0.4687385795575294
0.11788781525948475,0.011568489725958215,0.16497844860579813,0.10328437862479296,0.27367236993848243,0.35356638522683986,0.3209785327816791,0.49511099632489275
0.05740471873635437,0.011538585874420122,0.12475540293551893,0.057628622896908135,0.2385512464894897,0.2765629343702721,0.24285285240391163,0.4311953524299891
0.1950486239336054,0.009134429274044885,0.22950198722829065,0.18185806846543026,0.3549248470124239,0.4142489576380206,0.39745945653421044,0.632447262147094
0.17686512091194184,0.0032561608432232297,0.19321696257486032,0.14555915659861504,0.33941647776583794,0.3839344840472177,0.3610966959334215,0.4806202825511873
0.14658261682488335,0.00575239486956681,0.1858376605361601,0.14842839405080505,0.31259965227727365,0.3945310588877403,0.35497560498203345,0.510202092729772
0.09728161778468267,0.014480090740252149,0.14387272737645937,0.07540607598691731,0.280650920646115,0.3223477627780971,0.2510666492394503,0.5438861895965699
0.14143266644955874,0.011345517228921163,0.2059032419448964,0.14084741350404098,0.30314078377712034,0.36353123086378575,0.33482505273230806,0.7043175357995555
0.17019986125582426,0.016753955847442138,0.2183418788384365,0.16349054180136915,0.3797968882408806,0.4170238654263264,0.37632351166949124,0.7033903225437268
0.15207924823854596,0.023781911789380376,0.20938388534946256,0.14260523854385443,0.35466873088678336,0.3903246100016115,0.329799614593324,0.6262244092118171
0.10067027486666418,0.0015174209409961105,0.16999340476667582,0.09550902885176746,0.29756115698115543,0.34522220008309645,0.29230984384134623,0.5969932839971704
0.03417709903211746,-6.67454634636052E-4,0.09298376685024298,0.02607522865784468,0.24198568865391196,0.2833876663806621,0.21707716856657205,0.4500479700626244
0.1485078364119259,-0.010543749955707895,0.19194463135400425,0.1279440077553254,0.362953963597867,0.4134055599329366,0.36867660563113824,0.6067014769222326
0.09962644763876795,0.016080092509697858,0.1617440438478846,0.09167095533375151,0.3539344733448501,0.37847010198905995,0.33560353735621534,0.4791587573819834
0.07494600129829973,-0.004546296021065477,0.1334618525056579,0.08374734654501076,0.31079384332792187,0.35996318393105237,0.29794459903643483,0.4751470064133462
-0.10616518328732154,0.10127530053873864,0.020029832298278857,-0.024305280781199014,0.19302016157094473,0.14812742595912845,0.1266450152136371,0.49873664291198044
-0.0204427326685633,0.13613437576517556,0.09256089445500204,0.06747149157524243,0.10068227879391964,0.07456698529454221,0.04141966206706138,0.7439385022045193
-0.014344412642003184,0.16365221773025163,0.0983423424357554,0.06010195279419902,0.07179645479301171,0.06719229752847329,0.029293235330922117,0.6463259541621555
-0.03811886949821305,0.157524369362513,0.07656534347475462,0.045618697819968426,0.030505317274259276,0.017012286337715354,0.0012412109794734138,0.6963107803326345
-0.09887292247917269,0.13079843132383712,0.017514811488085077,-0.031165553363636984,-0.011633792757771008,-0.014945671725115546,-0.08205933065383457,0.5248832398944607
-0.029566698658106245,0.11282216610026659,0.07517543597032952,0.029899693528274044,-0.004381296523746216,-0.010286656728732904,-0.057803895309241515,0.7600016561000105
0.049614938494652046,0.1140702939473903,0.1433774601014744,0.0900530889736705,0.06811052799118346,0.07321808210696087,0.019902826933939046,0.6810035058984372
0.07277288360105977,0.11187025281668887,0.16794699308175792,0.11838805472496773,0.046130087994590126,0.06807498614417247,0.01677078793926307,0.8355260934378866
0.05936960374318198,0.10545001676163561,0.14948981094025313,0.09962293077539419,0.013117595573523697,-0.007192214232186334,-0.0347685036554773,0.7087595757069552
0.02151798605579316,0.08127952778951358,0.11631911299548266,0.06579221807026361,-0.002886902062457091,-0.057817171854282805,-0.07919468567109085,0.7217086844595043
0.1292308085031671,0.12274338907287617,0.2246439342615248,0.1625669563001267,0.10042603794648829,0.1019850892417266,0.043381604541749615,0.7201712842764911
0.09177473581482225,0.08675368175543895,0.1836768942128881,0.12289879670079398,0.08639435075265392,0.052851693599220914,0.03274247894964591,0.6645978268580667
0.0882312827622767,0.08646349831901391,0.14766894955527443,0.09680119714321961,0.05926220917080602,0.05925544231256603,-0.002518340045639268,0.6054888605625797
0.015607889908649288,0.09798701856869156,0.08108284007808668,0.018470528440981075,0.013049409233038836,-0.011166108891522131,-0.05478941490543072,0.6030187840887677
0.13822573730933427,0.048536301624076836,0.21448637705276316,0.14938076928547683,0.12971062280652124,0.09967637298116355,0.04304027497418375,0.6537682377025351
0.20011410250983797,0.06245729859466282,0.27701316448043745,0.23174388024586656,0.1739038205584071,0.13493063808936875,0.08410849179633248,0.6579614775869251
0.2240816091804593,0.029858571613745298,0.2839020851124246,0.24936713000511646,0.13077020995047695,0.1303931408204989,0.07037083070862708,0.721239318611285
0.18159572235152405,0.021730634808880548,0.2614764959852541,0.23257397677671168,0.08433576325793243,0.07590733615550976,0.035168027983317446,0.688502567600807
0.2032695750214535,-0.002998512639871482,0.2599324483294448,0.23663027714996845,0.06566367630463193,0.07485729087004518,0.027426088705187292,0.6987438877804766
0.279224829272895,-0.005521423003066382,0.35819554024945827,0.3401677935582731,0.20443661714006953,0.1952739749627392,0.13713744055416,0.6969335169174664
0.2836077820208359,-0.043025157745059064,0.34528335936873883,0.34205695493142313,0.20404517694759047,0.16714401155862346,0.11599458481446324,0.667979329013554
0.23916959732981302,-0.03789290217694359,0.32038203826365885,0.30171942665735146,0.1505252599112558,0.17026734806156377,0.10577594914380854,0.6208692096258162
0.12851438283618022,0.016368970706817233,0.19812934713095262,0.15057673307453368,0.11040785915249297,0.08127967117551255,0.04860622679946695,0.6125774855318746
0.17450886754538653,-0.02591148414949385,0.22535217036619062,0.17266005996430206,0.18400455180338685,0.19241986859571522,0.15781741921633452,0.5787733150899488
0.14321474262296657,0.033186303180846304,0.2033997525717913,0.16382550663746348,0.20149839052036156,0.22993270011430111,0.18071626093778298,0.7026797517408233
0.1643348575348004,0.01976372191353113,0.21539806709262965,0.1785780368118207,0.19431102670486605,0.21461796055790647,0.1997459884565202,0.7073270326844936
0.10616470225599818,0.012833530716645983,0.19010016366608712,0.11904224589512423,0.16381182943238456,0.1994419855102589,0.1425200386391254,0.5982432502407973
0.10860771542842765,0.0010278469036204966,0.2034725992289521,0.1484977593399113,0.18070359365421176,0.176230824285535,0.1296277013492289,0.5966890210007424
0.21320564592247393,0.02347653806536239,0.27818601104462515,0.24230481704202636,0.28071504076544596,0.31454982576820606,0.2514531919271395,0.5532126422161896
0.18070258928458027,0.051144609788074086,0.2602244927838506,0.21370688864844156,0.22088501405883107,0.2734464055929157,0.197130007294146,0.6123593421610409
0.13509077020195573,0.02989784637247648,0.21770436143431565,0.19968033563743356,0.22609637358825152,0.24718820166822225,0.17109880451574552,0.6967152663294298
0.08009844647169438,0.04652977445277473,0.16588905738781617,0.12978896378525437,0.16688231947058008,0.17234474134689512,0.1030270338633837,0.5290476722963401
0.19880882892860952,0.015444546985946387,0.297324288039002,0.23415888691659492,0.25551525817799303,0.3048650167463501,0.25525481978965253,0.6697697858974413
0.1855868201566328,-0.00321227069538122,0.304462687649953,0.24966537126177943,0.267165899348807,0.3303702687456929,0.24974914312272678,0.6565068521904185
0.14796381042883336,0.03966328452812268,0.23769081618220686,0.20258605503577146,0.24972987060780616,0.2819170127548861,0.23443308994709622,0.6712951714590674
0.08234834199664125,0.0499625845488894,0.17053617584945088,0.13982697312495512,0.19290404682628018,0.22703392357181448,0.16745496264835694,0.630270919924478
0.08882660060808367,0.0417031797485562,0.1907757156089928,0.1612332186236746,0.24125160271659035,0.22119792972595523,0.20270847036425654,0.603164760616537
0.16190833093512613,0.06704672332014279,0.2403311089601064,0.2270972844858871,0.3004451388822872,0.32291322977140885,0.32348011211222094,0.6346099650356566
0.11347183406769963,0.07099317945005455,0.20072295181111555,0.16547923813837398,0.27709971791975396,0.3253863944219221,0.2879982899720529,0.5111633402379502
0.06184583548583468,0.022489017656714638,0.1725077992667861,0.13184557919017936,0.25754680534078095,0.3061195300551975,0.25213872453695046,0.5282683762467214
-0.013557479728565896,0.07007491148808169,0.09385563947368261,0.0822389881771001,0.17616133585165403,0.22591825003699556,0.1970346223975206,0.5356537272017098
0.11775631389876746,0.036342389458785096,0.21723290061783374,0.19628227058696085,0.30634610612656704,0.3564881082323884,0.3317944615170519,0.5102354744540599
0.10622324653799414,0.04675301576373898,0.21185507212421104,0.18582993298446562,0.28425212152726254,0.3574337724186279,0.3149797081209475,0.598807213054678
0.07917222417025606,0.04235643312109244,0.18993343622113373,0.14477241168668725,0.2892169813914223,0.3611774905221889,0.3198163184640332,0.6618582262694984
0.0037269659695802555,0.06672525283090909,0.1373906100066262,0.08576053532669026,0.20777107070679393,0.28430712362698685,0.2339776571026012,0.5137617457727477
0.028955089695847994,0.03320563614363081,0.15238779656478676,0.1302913548886402,0.24461354419028056,0.2762805156752004,0.23128812737032153,0.6595558571159638
0.10195437365600356,0.0629758051179302,0.21712574116087685,0.1927235745725501,0.32306600609133107,0.39113338584145746,0.3452766864377148,0.6602125147169544
0.07799589736185712,0.03681902643790406,0.20647265105971924,0.16407237078464607,0.2921736412502399,0.34736544880575476,0.31012164622253635,0.5732509183926333
0.08394996689048692,0.06672648123467408,0.18938506246503733,0.16035151019175198,0.2319318498044777,0.3131542670217756,0.2660093415781822,0.5771709298257514
0.03568311516954284,0.0472443082934027,0.1648770578806492,0.13082226456554005,0.1976360696495453,0.24947050546247782,0.21477680235152832,0.6635094106383037
0.16528437677665644,0.01383075705149083,0.28617384625349696,0.278664408846647,0.30303922893247626,0.38646084077950227,0.3672896088875924,0.6192755697425518
0.1689046760213114,0.028951457609955687,0.27554626964031076,0.2621218000643605,0.30186161203949347,0.3650329211963402,0.33551721946043866,0.5956611162334339
0.1496103477656059,0.02495113318498883,0.2587532357927902,0.24934627976637802,0.2773955039297779,0.33771104727612716,0.29864001166782617,0.6430765066948537
0.08016259428425372,0.03768926806447468,0.1853273320176067,0.1953388476930107,0.23754392171456426,0.27431194050433927,0.24816355164065085,0.5548038668988357
0.13861314723600426,0.0031356141139168466,0.2221247593324329,0.24120793035620589,0.25457880641419656,0.3188495532169331,0.3100390646405808,0.6336421803402552
0.18140997912042592,0.018785123631208076,0.28743980859009405,0.2898761567678966,0.30488188233299846,0.4004852378376428,0.3729999254700738,0.6724389213896905
0.15136015347819917,0.025132207394192845,0.24817134476904962,0.26099256282722405,0.27686478037567236,0.36110987499378167,0.3293970708649153,0.6656220962731679
0.11076369419843209,0.034114077082328755,0.2360336802113386,0.21502728054680134,0.2616048620991195,0.3266298423444972,0.26542892479460733,0.5241215710970398
0.0564760489185538,1.2916101953958686E-4,0.18601282846374426,0.17011283455344162,0.20183237750675237,0.26985362250588774,0.21970406058965966,0.5683418812333078
0.19636960510597679,0.005899889476354473,0.29696229357917325,0.3067110040958363,0.3066214026281912,0.4274777614100073,0.3710426198727619,0.6767596108955257
0.14940486281634188,0.011232876167211742,0.2744761714935287,0.2637511505130499,0.3050206877436227,0.3898296010423896,0.34744536017056593,0.6239127062278632
0.11919251042245123,0.005864566707841079,0.2360406193632546,0.23782515522274267,0.2956312926728052,0.36816385065992085,0.3186172147805598,0.6825001334413914
0.04209665123748484,0.04846979845849959,0.17005456710866967,0.162341481779738,0.19461790704210166,0.2663303440245777,0.2205706864777191,0.545608104640514
0.11262852998505908,0.006586147952108452,0.23053808000889667,0.2293343864110159,0.2384869697569987,0.36089400465175137,0.30492203443939947,0.6392663300406461
0.14893951456809143,-0.024926256510307235,0.2643424753898879,0.27197467842301853,0.2995650161896994,0.41603749860489037,0.35916350053205853,0.6089800327272937
0.13144902558758584,0.022485892785332518,0.2529855868797717,0.24810891332621832,0.27784958605515675,0.3673070440854118,0.3220646918149483,0.5702175696955587
0.08545138871451445,-0.002525398645593748,0.2198229208169371,0.2189333411670239,0.2724993258188534,0.33706331385900895,0.3112087245834552,0.5517988221734279
0.06698543613223092,0.04734984487339513,0.2004290867952998,0.19785763994308378,0.21253404352536012,0.29785383431939394,0.2783523371142095,0.6325889916887482
0.17394061090347535,0.012945373197096197,0.2985960089798514,0.3053842732468345,0.3248492015048949,0.42454474173730283,0.3941202698201134,0.6332921003498855
0.12063633582205646,0.005316173748813415,0.2650970575528464,0.27067831797427794,0.31251383542222694,0.3905256681297615,0.37628838717125535,0.5420526614342327
0.10018666235363938,0.0024762022155207512,0.23313924044543902,0.23358715579933426,0.2835270804151889,0.35924377895478804,0.3274169515581286,0.4576047325983901
-0.020901976491825725,0.001341983291968467,0.11155145557701603,0.08720565401250034,0.21983992000680305,0.28496190384996284,0.2429401673741566,0.42781800343009785
0.1063183786241662,0.006055319120869131,0.22308071771931134,0.2172177763194792,0.3281965736701264,0.4213527288535723,0.3768757670523739,0.5578710152273655
0.12195543482030326,0.060256158981909856,0.24075713593925732,0.233700227959937,0.34362653067875565,0.45299914492006654,0.38930015679918145,0.3527243849361812
0.09332178383657856,0.06455089425266629,0.21205870751160344,0.21695207000401506,0.3055318678869571,0.41329816645754786,0.3757488011382859,0.4873255425499179
