0.06317586313553561,0.06736036773376161,0.08031607591166809,0.07336348501953836,0.17555058068061102,0.21354283501876928,0.19753416130787552,0.43952600760247934
-0.010199119424166282,0.07563610098752219,0.0038800338902991657,-0.006280707100025942,0.11836004761789193,0.14251406988578857,0.1505552672694261,0.4893484776391043
0.08981509801202393,0.09500208122693171,0.10566945586074296,0.07934404400252268,0.20621088639331822,0.23527567740424538,0.21385938272649269,0.5045692290237184
0.0907018768387011,0.06495503836803644,0.09247775937887946,0.08995280047688041,0.23072237176839694,0.27260452760233717,0.2915416915085226,0.5560288739425856
0.02146306003534997,0.055484186175406285,0.02266700486945733,0.011034177431234818,0.22288892787203052,0.23588499298826057,0.22724105030011058,0.5031399028437227
-0.037633922876373925,-0.001567344731516429,-0.02986240974930935,-0.05182961498932502,0.14882867340609582,0.18321418184138935,0.16904512428967883,0.4648414736618465
-0.0779440906549475,0.02104502711125298,-0.07037573147616569,-0.10772964185541861,0.12646179167222926,0.13180585007026088,0.12963567430988526,0.3386687344670096
0.0629083664734663,0.061526242904577144,0.07065387035549825,0.04292936925128871,0.25995332843486696,0.26861644860156014,0.27769736737255885,0.423502238978715
0.06320336075648961,0.0732050724419062,0.04791053861037958,0.01875095080957212,0.22567746263508726,0.2549545259230932,0.2588525643509578,0.4500612569402117
0.06931202669591421,0.08108538106394456,0.07656288607649256,0.04974149012184756,0.22854616731104482,0.2183534675958757,0.23961287727026206,0.5092204030555829
0.0429976629377032,0.1023765163676692,0.03158411483831177,0.008795018799447475,0.1445520679210312,0.1603793938588542,0.16645769111504743,0.4987158292318796
0.10250783207492221,0.06831766466739311,0.10865099093221305,0.08729868047703318,0.17441580847144372,0.19721556830380294,0.18925903735319172,0.6253702300420414
0.17004123406139823,0.09667118224408798,0.16683739080975235,0.17006617211956743,0.2655867419260083,0.289001245649274,0.27973133639100534,0.6388059054339423
0.18745196761197389,0.09581818942373262,0.1919861314246616,0.1624919452835996,0.2565127952449665,0.25216298113076907,0.23671853414288593,0.5426289560772088
0.13843008135688975,0.08086426955577292,0.13478496029944387,0.11107299117783145,0.19166545746219607,0.1841459412040788,0.19477197332497548,0.6210363901080043
-0.058415926732660134,0.06834883923396043,-0.06778633295121818,-0.10061984154427975,0.1331964931819271,0.13680666655532747,0.10982577670156901,0.5125789636079102
0.09303554578438847,0.1043351798975719,0.07787170162377813,0.06203720977249619,0.2519482476499596,0.2709792191725252,0.25514708525674185,0.6844927359245642
0.12374429063594851,0.10628326700444896,0.11588364450589518,0.10458769186542871,0.23522754893730496,0.24554044439975842,0.2558547834621828,0.6992621407864609
0.15762326028726306,0.11045888632834926,0.14738601825948972,0.12233140535695024,0.24696992580175997,0.24740540165650685,0.2368514406613653,0.6317986228417954
0.119949777036845,0.11175743452288213,0.11470894607681065,0.10255563162052922,0.15362059489596105,0.16664351635615626,0.171063760373307,0.6507425029229036
0.13544215297846368,0.12775198199563598,0.13588561466663138,0.12720230881473105,0.15873948833099646,0.16352753221063576,0.16436218461926327,0.7353559427177059
0.225087818594692,0.14085788614593636,0.22212530045412346,0.22078146072287738,0.24781371244314587,0.297216486211581,0.28256157318973496,0.7802170138816323
0.16499321846111017,0.14003320471734346,0.1493530678014477,0.12467767226381865,0.22023828877147075,0.23278142429470555,0.2102975854648143,0.765462271613371
0.16183746563156617,0.14318922162821068,0.13179661705685689,0.11771478898437641,0.2007847956222857,0.1943231060630693,0.19610905698637165,0.6168840616591797
0.09935240822299145,0.1073856441214443,0.10792703256887246,0.07901299054082374,0.1178269084748148,0.11477271341804196,0.11482014150606656,0.6210903210993803
0.23796205069408516,0.13878415619417747,0.2332432376086764,0.20565720305365198,0.24720084859687774,0.2551492773876542,0.2558449770705305,0.7778945330026744
0.25436731710251514,0.1576322157538031,0.25424018453608044,0.26341691485642377,0.1970841853969378,0.22524501206360453,0.23696602429089786,0.7506649259857736
0.2433009530810554,0.1347036003103889,0.2384777826291591,0.22488556845619903,0.1937791666710843,0.22854322527426893,0.20880666229571132,0.7316497938542053
0.16159402951497803,0.14030269992055736,0.14977678724318907,0.12789867815485703,0.13569780356387093,0.14330424798365665,0.14978428405541452,0.6869516060978976
0.24974708448550514,0.16445861201103945,0.2454109830846766,0.23450092814146933,0.18762250869395028,0.21568892108244575,0.22756789771826708,0.8397902990252071
0.24675833199014238,0.21431761328791077,0.22873901367129082,0.21936997922159648,0.246922865177439,0.25437407002528634,0.25441042224695554,0.8049340914609525
0.24964828209949985,0.1946871823825169,0.23870148760498017,0.24509720886251604,0.22623361657835703,0.2360623470910863,0.2256039716721291,0.8265844185724867
0.18679637622186432,0.18685459361308557,0.16431491315950264,0.1208651066014448,0.19404635978362597,0.19037191739844878,0.18298240078618516,0.7850712238776837
0.06739142254041416,0.18085058494839484,0.04846883752388117,0.017728448020918827,0.15761451030398643,0.17877373513985836,0.15869492316279343,0.6910392824088969
0.1701791175522138,0.1975705653189343,0.15293321071793883,0.10978438751534181,0.30896478552321616,0.3297872188803548,0.32260710638349804,0.7157673206518269
0.15525602042721387,0.20417763260109503,0.1413626253630029,0.11831900004038784,0.2864850743657318,0.3085268401929094,0.3054142159535427,0.8350550990174874
0.16117363562009465,0.2320356663136325,0.14656448851050394,0.12743718143230368,0.26534401995123685,0.28431436147994943,0.27933415946099194,0.8285108981121121
0.11122857038573457,0.19890961494878207,0.09434029634118542,0.08850725335451178,0.24032240985888983,0.23582914663282012,0.22211692357025273,0.7736992950080581
0.22633080769393596,0.22723595245597653,0.1966361961488183,0.19305766949998807,0.34060351312007825,0.3489670895967396,0.34785679569736966,0.8918604344248899
0.21523866097312366,0.21190784448983868,0.19880922270556045,0.18637969848270794,0.3688735835120992,0.33206119223645963,0.3274418082179625,0.8972040050865375
0.21006678322964353,0.22224373396682368,0.20595584989033336,0.19853192643469408,0.3068665725217363,0.30770376202547556,0.2930259592274055,0.8932097376517604
0.2183889130254405,0.20230279122952408,0.2172710396780626,0.215579180929757,0.28307901553104325,0.2528958140511082,0.22278335422446338,0.8666799096753757
0.2628869758115006,0.23229482805317167,0.2720246743781069,0.2633862572604132,0.3285881321207945,0.30090874130994183,0.28529448189525575,0.8631499909851194
0.29731503112686536,0.21266568226520194,0.30371630131518446,0.3139249111115054,0.36930241508388584,0.3581959765505657,0.3369580059913925,0.9504120703918103
0.305395771578247,0.20075923869536702,0.31623594937411237,0.31029564250369684,0.3511119691045328,0.3393440862713011,0.31618865680932695,0.8490646930067537
0.27754806761533984,0.21402080663786693,0.2938902868424786,0.29489788055489957,0.3220509620600165,0.3046263116945066,0.27525817469005687,0.9440604126565464
0.2112243457775654,0.21882795524447318,0.22535189322933175,0.20269161166500252,0.33360859689982425,0.28402776859643436,0.27312359662114394,0.9080031350247071
0.19325052477586047,0.20033142759370262,0.174223064215986,0.16433550218929324,0.3821130678928208,0.39041909838228595,0.35095901715729816,1.0020499079379832
0.15810769788806484,0.17183395350737643,0.15006224805104673,0.14111712737172602,0.3670773986278344,0.36523246107885954,0.3435651637601325,0.8946445932544874
0.13233577019612788,0.18713210702500827,0.1267269180670994,0.11020052677661937,0.3398838616379941,0.3128535173302505,0.29457151825774647,0.9340142719366487
0.11758682512833657,0.17082218134879867,0.12498891037292632,0.10647811999064709,0.30130701008135946,0.28430850641532684,0.2603530042191857,0.8688497689587181
0.25761595121551695,0.21145348697082011,0.25826482722460076,0.25155711840919764,0.42316296303602274,0.42849445797835717,0.4005097237278469,0.9291587552184952
0.2521302571939743,0.18388369626437728,0.2556296136032656,0.2590102737694905,0.42614212430625986,0.38701698750516,0.3609784536653953,0.9194496504321488
0.2634727754937849,0.19627543380816087,0.29054544830006135,0.3042451146120088,0.38141641870188525,0.3531248046280959,0.33117744095428653,0.9902342857313002
0.2069279504791443,0.1893317291798524,0.2239094681553351,0.2198324320789414,0.3031598008907804,0.2859764288933883,0.23318358109791273,0.8848100759472014
0.23403659361728113,0.1759782464722647,0.24823333255866373,0.2520870707342152,0.3543132760991967,0.2960150592599886,0.27941710390710683,1.0282683503033956
0.3163129287567913,0.19510972913224173,0.3252229581460941,0.34788361420715086,0.4102117435019713,0.37195755279151,0.3545531907101468,0.9606162330637531
0.2730156070137274,0.19768851607209464,0.29259117366709525,0.2820250421754214,0.41186674416352886,0.37585709096041664,0.3148964247685287,0.878750827579954
0.26004530020799804,0.18688965083374115,0.2838631958114791,0.2871360287308835,0.3762159633532152,0.30318551498721513,0.27056219875567794,0.8725064048601042
0.2510471435620857,0.1633500529882074,0.2767745067033557,0.28186339662840865,0.3282332542436249,0.25710101937867214,0.21613533640816218,0.86272707793022
0.2767838708984049,0.2016288712912242,0.2984661421728172,0.3014958048729969,0.4060621122166097,0.35150021489350547,0.32530567166550617,0.9032235279651213
0.2973231364307858,0.1786567422685415,0.3375048417650313,0.34868988334119017,0.4116826031742401,0.3687041210694907,0.35199816450303545,0.8522808536629537
0.3255990182959807,0.1541123717657788,0.375264461722149,0.40945700320443024,0.3992966613403967,0.36238671350898255,0.3021785641254703,0.8856772081170496
0.32262118273622636,0.13655303873857272,0.36430497365929787,0.4018337956739324,0.33941649465258134,0.3075761619771811,0.2761371549516476,0.8103353766680518
0.320277270878563,0.13872298692692311,0.36151533827102683,0.40671900492787677,0.3117222717491771,0.2970643970033943,0.25522591085052604,0.8751017843374334
0.39019524299848635,0.15586663942309967,0.4316792115674995,0.4796619901214911,0.43135784751900236,0.4267978441034832,0.39480412958731304,0.8724346360845585
0.31962884098646255,0.1658001743642015,0.36282950999130126,0.3689241022272212,0.4261731801612581,0.36968138242250004,0.3470209187968196,0.813601139791011
0.25212461824858945,0.1689084522933085,0.289516865275528,0.2734896190272862,0.3731975369764841,0.33934902029763847,0.31825062862709996,0.8391547909297749
0.1920420159362208,0.16089231245687435,0.23337215255183835,0.22110075204890856,0.3187055642837039,0.2960602733190626,0.2522858028921496,0.7922396065611869
0.24259097130407842,0.15276126704610657,0.24545251539288113,0.23623291485422437,0.38794185589026414,0.37369425792283506,0.3588657364587834,0.7588548751526851
0.19438097165386814,0.16957644871911703,0.203583049188636,0.18456712313608314,0.42538834972534906,0.41154134105836965,0.382290225036622,0.7556818055962169
0.15792086162169075,0.14874901188198378,0.17133150950135287,0.15685479273805103,0.4003243175142088,0.3886301557252499,0.3652132454212844,0.8387782401137606
0.13302526775943296,0.145845968666886,0.1440471741566863,0.14318942052114236,0.3482414512524072,0.3573796773721634,0.3281893412687417,0.8522420080370264
0.07858259430634945,0.14802696906701118,0.11732643771596368,0.07985392033079428,0.3096901963423119,0.29237541545050344,0.2733055166344175,0.8092350117607546
0.21128722771539257,0.1833642724867333,0.22034923299067513,0.2132636058462029,0.4430017142040259,0.434839728221244,0.39984644632414723,0.8194599867665949
0.20397209276917863,0.1799980471333166,0.21562093022388634,0.1921971810051879,0.419848994679122,0.39306084397141505,0.3537922936498895,0.8658251611890185
0.2003935645448298,0.1626868522293851,0.19738125190639988,0.19552878485521596,0.37304058793200706,0.35588259548190326,0.3467496324330849,0.8723235687520167
0.2081362260490475,0.15821842292069216,0.212740372803163,0.2083170072872082,0.36692460520186976,0.3051638478731212,0.27714036291088623,0.801822718240651
0.20549773239907085,0.1501493195583065,0.23830284444263217,0.22566510521730423,0.34494919589480366,0.3161157543572027,0.27332866162123887,0.816046690415144
0.28529999216496255,0.17217039560439915,0.30846163850113073,0.2993931370807486,0.4365278773423018,0.41464087240997866,0.4127186426853223,0.8517294365520475
0.2169399387346263,0.152520960913866,0.25197382344765207,0.23471416728186925,0.4012101280451875,0.4037582899098699,0.3640004536552697,0.7908640030590889
0.1372223985436691,0.18098813078168252,0.15020245468077206,0.12527159375773878,0.38272569429079595,0.3418660597653487,0.3448203853565188,0.8637265088180173
0.043587769530376186,0.12884575571779758,0.068368953042554,0.04404058600195272,0.313068046603396,0.29910231659471426,0.2543500775358133,0.8323954278555031
0.17761496774693714,0.19519176643526187,0.17995341676857413,0.1645872305317874,0.3964073141973542,0.38449764991905877,0.38633034311499337,0.9313198016153258
0.18523615323510506,0.16333749493605054,0.18897785128249978,0.17302838574416285,0.40771574856499593,0.39911051052276064,0.39298534440925387,0.8989520583413955
0.1996566079280313,0.18600043412019368,0.21425883018486405,0.20269302881358126,0.35579787569965154,0.37627545570223947,0.37962025846428205,0.8636425128619206
0.13212133752310098,0.15688377960581185,0.1530264526299401,0.1302337315149168,0.31686217502064523,0.3342606068522732,0.3129948582504088,0.8272797813120355
0.12807040252867682,0.16477391684294773,0.13409811619074516,0.1121706654329866,0.3355582187310121,0.3582247409465624,0.3414858272198875,0.8576599378283096
0.1215529319144833,0.14687684895086062,0.11366138348084605,0.08457616332317537,0.406599035775887,0.41078076188699175,0.4134405574070514,0.8508913833160413
0.06147219248431799,0.15908019603418153,0.07635666902042348,0.055684335258046135,0.37176661712685255,0.3768423058603171,0.3746284888315238,0.905445409946737
0.005331776616163485,0.1341791443384765,0.02111449324661275,-0.004304481999931539,0.30439399886690877,0.3596027100307224,0.3450373616479943,0.868257253740741
-0.03883339482425087,0.13156994112132941,-0.021707242197434678,-0.057765962610230155,0.28565980846827027,0.2771007095915328,0.26640650381579034,0.8802996566109396
0.10202034790262915,0.15819705570143,0.11738715238647271,0.09948913337616078,0.4111302084024216,0.4565093052927802,0.45039957294535693,0.9432162947887807
0.11155571843389547,0.1608151771645937,0.14014650634090217,0.10465592398846774,0.3820412038814497,0.4157554954326258,0.4186354306779557,0.9254618964867035
0.09990798757393714,0.1424295041891977,0.11843589542396002,0.0967497158543335,0.34966747394682535,0.3699019043741398,0.37031290203678774,0.9026890252524796
0.03837063889362975,0.16058179605441192,0.061985235401666915,0.031457597314878176,0.2877906624401388,0.29403581163110987,0.2775050632261678,0.9364279721395813
0.12933631609721769,0.15143101360734493,0.13661622210567043,0.12738390106421973,0.34994401284734705,0.3744204356046329,0.3707679350563675,0.934563617716939
0.13342585281072622,0.1765452221324738,0.14572567528588312,0.13820161862977923,0.3740836293647441,0.4074250045940535,0.3859874107474273,0.8899974207740525
0.1188392881929821,0.16947736737264793,0.13486260450264712,0.1173510073142581,0.35506544951483887,0.40152498048387725,0.3436022438449221,0.9384376683440071
0.10092037064834487,0.1700227980860928,0.12352445332864591,0.08616425639146355,0.31611736074176683,0.3111682084546299,0.2813279805027951,0.9161377148489661
0.13959896758266177,0.17458214652239723,0.15415624184224325,0.1358284007403664,0.28891744087538607,0.30734862724762374,0.3125469435540433,0.8461882895643204
0.20623688980641888,0.17175136348250197,0.2343572150929761,0.22196134274435958,0.39949274150530584,0.4138067663136353,0.4028493480919654,0.9092973807870097
0.19700601687540684,0.19145166723399795,0.2018474133053741,0.19598568359940483,0.36869884832113786,0.37786624158216875,0.34488050181212376,0.9614775296282705
0.17811853531450952,0.1794924416380981,0.1930025189324781,0.18113300991757708,0.3462934268477076,0.34817801170714585,0.3325142522762249,0.8551333616011944
0.1621052731620915,0.19839933399456308,0.18511877339267888,0.15151501937600514,0.3188686826106068,0.32363322289819174,0.3119865395774591,0.9061763692644816
0.23486331949601802,0.2029391931160144,0.24262782021793294,0.22732960808304975,0.4130707640786603,0.43052906554380393,0.4375774965970285,0.8597251756489063
0.16639869102099353,0.21145595032612569,0.18123005519439167,0.13892969632972169,0.3843326120589987,0.36013708111634946,0.3738483759312904,0.8912446412412296
0.0704547638624788,0.1941561589591934,0.06244676566600775,0.05084168438895083,0.3127348584106704,0.32293398262227674,0.3223534131435454,0.8052059941106505
-0.002864264544265069,0.1525215952004754,0.029762548265943392,-0.018995489626004516,0.25719818336027556,0.28077337272420216,0.2769002860884616,0.8717216859361947
0.16566158261648825,0.21554101422478789,0.1735613919373512,0.15984436706547936,0.411209919680001,0.4387270898396275,0.4290288731901425,0.9126274787293667
0.14902879763910892,0.223092964536576,0.15249114703708286,0.1392710251506907,0.3956632123556273,0.43289499326602304,0.41372749008162885,0.8466135805712071
0.10724672312128353,0.2274369531449324,0.10786039402702341,0.0960348080386047,0.37885950459484885,0.36919573707289793,0.35757337433883213,0.8523841752515993
0.03190136091044765,0.1720151469081743,0.051966903749469814,0.013448390178312244,0.33354022750404766,0.31995020555181,0.302596592684077,0.8135897265274107
0.14618576546064774,0.20170167349877166,0.15874537674802233,0.12592257743166033,0.419083120336914,0.4607501609419227,0.4306192356379525,0.9203599902771162
0.14852657800887753,0.21987960589439662,0.15280838869680158,0.13487775263999333,0.43707144344247906,0.4696462317303996,0.42539612013904077,0.9429359020448086
0.1486221184803713,0.17855921041910064,0.1680856341820226,0.1494929183335652,0.4749994714165689,0.46373157988390584,0.43516173786827633,0.8348110837869483
0.12928839195712713,0.1559832395017545,0.14104058499470828,0.1298342277549788,0.446645503951053,0.42383189902826013,0.40148367750648845,0.9589178984689883
0.18415628295516,0.18890702358399394,0.21290878564573087,0.19231417642882753,0.48307258963474453,0.4830274409496388,0.4455162563767232,0.9173867134349776
0.21727678208481493,0.20871258501063916,0.22177807155141913,0.22640193940784742,0.5510206043984165,0.5232081628009808,0.4930395066351227,0.8549635393163988
0.15117186419500214,0.1731525515291802,0.17124743519320612,0.14050633093114698,0.47797465400581157,0.4623460541945343,0.414543979778514,0.7771864042535936
0.09255434936432373,0.1622403212240695,0.10646970562353078,0.06612834370510626,0.44532968183344795,0.4271366986160953,0.3809784515098114,0.8590073234181141
0.10453698489966275,0.17370722665242117,0.10911499778933106,0.09695018740000245,0.4337676546533464,0.40228591982159767,0.39065444527002985,0.8658201302462274
0.17489663755129317,0.1966788038109829,0.18817214322635162,0.18423198493692297,0.5277219194513494,0.5327958450491304,0.5110995229949257,0.9203416690597946
0.15985490333603036,0.1549415702312461,0.18381107138762448,0.17524882563265556,0.5193097042942649,0.5243831059920392,0.485181579357606,0.960255976466476
0.1608240920092916,0.15200558017845267,0.18300365631226126,0.1699281006149856,0.4918858418439608,0.48057727822547774,0.45437712390346546,0.7848093392013596
0.1746237140918796,0.15171042745046914,0.18272792530408377,0.18569494792545937,0.49947819509081465,0.47729786442968747,0.46169537965336,0.8369008581504159
0.24075949140973862,0.15050539685624736,0.25069360649438804,0.26092997266182155,0.5689971868382148,0.5907623734579749,0.5723637191849341,0.9082757072656308
0.23178844956854905,0.15907114022002675,0.23153297721964675,0.24189682261522544,0.5553529475235996,0.544248591776989,0.5083529156701593,0.8906625816249227
0.15991361688736278,0.13226335532802053,0.16625773565417437,0.1601748271701646,0.5133178977716045,0.4711568103812834,0.41924429631500676,0.8386599906900742
0.08423312761579872,0.08077120119837122,0.10937601643195421,0.08750625057373387,0.42326315412916476,0.409991611596849,0.36328879979108436,0.7643808408356644
0.19988022619565995,0.1332924105275797,0.21513993089238725,0.20402122548546534,0.5496044687758531,0.5431778799568863,0.4999242637302633,0.8091601600182784
0.17366244305135517,0.11738236647261206,0.2001862279982063,0.1876889571619283,0.5428032069516481,0.5379718902355751,0.48109818330938553,0.787423014142866
0.17267237621388903,0.11373476061347984,0.18416835882352367,0.1807951985417141,0.5434402589223642,0.5127027371312638,0.4735429247784771,0.8219002112656963
0.1177317456213124,0.0965562325672074,0.11746031048747052,0.109423295765916,0.48274904605675767,0.43702761052751204,0.3959903155002295,0.7238786654763932
0.1539113705804999,0.12928531550899608,0.16455334915796077,0.13827521642535007,0.4775959933000202,0.4565158225203019,0.4277561584837461,0.8653308697451572
0.1779293439092505,0.08538826795164511,0.1871762369972816,0.1616730252664394,0.5349305836639974,0.4869194538682422,0.4772170179048855,0.8299285459283233
0.1531222102533946,0.08583126885727793,0.15205359888459463,0.1429948878813445,0.4811973259917842,0.46824140649465545,0.43970789741681515,0.7817331843855069
0.09589867708261006,0.06268451868446208,0.1181884574586404,0.0800379244537281,0.43925020972162887,0.44421578639206966,0.4107492580271832,0.5376551839247519
0.05266320376423391,0.049748980588877695,0.07658927134260143,0.05557046791214089,0.4322069295490391,0.39326081446486033,0.40577827301054764,0.6885220201079822
0.20284669130755334,0.10332052735952993,0.20910831265645,0.21321461663673116,0.545900931787686,0.5611146244430575,0.5543700067850202,0.67629606806653
0.18467534899586144,0.13288545309845184,0.21239401097612673,0.18202643197241497,0.5493569041552849,0.5349938243160418,0.5014641420296272,0.7289688991046647
0.1679039325701171,0.09154519745934825,0.20913388235756264,0.16955445257202337,0.5098410335755783,0.4897890691896257,0.4627422331822201,0.7055237811323002
0.1177449410414463,0.08910769501642841,0.14377341812963654,0.11850938837769853,0.47782673009257076,0.4330001016305716,0.3835264476650887,0.6081117516212418
0.19137463623096423,0.06479092059263981,0.2192626629268861,0.20225651374896747,0.5084891046446625,0.45519391646506924,0.43392580479151105,0.673561798061283
0.24541988096197925,0.09246522324210191,0.2575147039631589,0.26197342754356967,0.5574193419814298,0.5355735971583848,0.48923458923695157,0.8497836743708717
0.25468898347837615,0.07615877419141803,0.2898991020280768,0.29830285623784086,0.513962449009839,0.500398699967161,0.4671089881046394,0.7303623514225982
0.2285484940892105,0.03956446496340332,0.26953860247637845,0.2413810176392492,0.4764223540649832,0.43066182848810963,0.4160561568055985,0.6383428566555345
0.16145906700081233,0.05225167547184867,0.17623381437894334,0.1504505724203622,0.4304195423840504,0.40583654146972514,0.3434676987512799,0.6537283134105452
0.2512186740806735,0.10839943251314214,0.25203041642913726,0.22458273821540126,0.5549671567664591,0.5237637969435842,0.5024343702015364,0.6613165776769472
0.2209231216387117,0.0816384768355993,0.23947967667675607,0.20910257292953593,0.5037379089499716,0.4730948814308583,0.4514998569783376,0.6666995883456858
0.18229542790449801,0.09144541275201615,0.2108584008722271,0.19603041296500406,0.495629414391037,0.47356738551672,0.40896539331158027,0.6358120130536865
0.1599069953889282,0.05097834846160233,0.19832500396837624,0.16296745232906906,0.42388639608918777,0.3837482381287985,0.3674489864427243,0.5857722659975754
0.242836784913788,0.08911791176159309,0.2698249987216347,0.2578820053416004,0.4993815689461848,0.4967402521823662,0.4524187350570905,0.6439118711285208
0.2756958936123958,0.07332400097971142,0.3141176155710989,0.29747090802045173,0.5245875186284312,0.5073379893119367,0.48697045754986523,0.6349960724124178
0.2716964623368071,0.06758419725098856,0.3016647995510544,0.2921670485215766,0.5044703780392851,0.4838921305560331,0.44581523441156273,0.662553827319476
0.16931432589168777,0.05892371548100078,0.19976614186879893,0.16717043456481975,0.4444076370668418,0.4197396131279223,0.3811470454093856,0.6760776819601007
0.13393469204701033,0.04684364309497831,0.1680924590329682,0.11745899041720274,0.4086681483030612,0.4014487461796692,0.3687550386807742,0.5722604351510836
0.21244782662496478,0.0741948899430762,0.21754607487551653,0.19700657598796784,0.5274884264377201,0.5416956528019413,0.5077366024888114,0.6825258805057698
0.15216051249097767,0.060621199485616506,0.17374623894807215,0.13571178854489782,0.5112132266457955,0.48243273610719717,0.46390160271826525,0.6736412046584312
0.12261504882113583,0.040367872746560556,0.14130362828584178,0.10329236440582726,0.4779100510517868,0.4485322423422704,0.4010341839210602,0.6826012525321027
0.05202014777131643,0.027165744148970605,0.08145241965392337,0.04627279294435209,0.4323283981585647,0.3950821142079391,0.37158879753936847,0.6409682919189053
0.1908131882094255,0.04874684504120974,0.21107478241706742,0.1870282367009866,0.5448384582266885,0.5435886570906684,0.49704368835418317,0.7035274163293279
0.21028124850343047,0.041226102623406854,0.23503248600503468,0.2188767729454888,0.5402797800283284,0.5202287455186837,0.5053061503494428,0.6519652495907379
0.19796590196613742,0.04228507113017767,0.2248240231436411,0.21537547548443092,0.5236969947018986,0.5250341755604211,0.4696519141893385,0.6122744718556665
0.17429598750411385,0.02639347988306172,0.19313564842109593,0.18488207830071726,0.4841653616160744,0.44655286201378064,0.4130002061958796,0.6150523162103326
0.23323493977268345,0.058897800235724614,0.24862287800168165,0.23904194634284046,0.5226141040000581,0.4988449329933577,0.4817847170671332,0.7209328103199266
0.26188103565657145,0.04520798616014613,0.2867614290406976,0.2634363039808494,0.5526295286362564,0.535053068478799,0.4998924771188952,0.6117043829415099
0.20799759687287683,0.04563827860524967,0.2347825026037169,0.22033414116482006,0.4892213689611684,0.4661307940786299,0.4363642236312554,0.5991329588594578
0.11157146041194622,0.02622391107872398,0.12482255662311459,0.10186393186146891,0.42834054622153345,0.4128044914408932,0.35829960457942195,0.6013487797191297
0.10841271590619525,0.032182035081811514,0.1304997756449406,0.08653773086375122,0.4172960716789744,0.39131024127715675,0.3560198063186918,0.6548658953528683
0.1866671299156653,0.061286652645671263,0.20746142181033034,0.18491263136565617,0.4964356063243327,0.5125760191646299,0.4754300785217588,0.6467406679244072
0.1802362192783879,0.05331361795298365,0.189302857159462,0.17545256173869858,0.47869946835565313,0.47554005734496724,0.46697622107708864,0.7710865731606681
0.19142787777201842,0.036982016745316995,0.20384546230305461,0.18854303654856863,0.45934803054476075,0.477490055462316,0.4578213193141446,0.6034786536671362
0.13663516399179287,0.04027441207581085,0.16337128246576554,0.1386943403900739,0.44346439597607507,0.41220827634355195,0.38809695792205473,0.6283375188594301
0.2384708031349117,0.052270886354089885,0.24323280759287608,0.21988434624005357,0.5245232148395634,0.5279242258004347,0.5166884229672662,0.6823620556300382
0.17283468558834952,0.036097876232919386,0.19855079500773673,0.1621781985079725,0.49022744999890977,0.4803179845414972,0.46885940986172875,0.5844237237730486
0.13090490394970714,0.034296389266050886,0.15359022774638828,0.1283060361485998,0.47040540650982426,0.4529482523201825,0.4376015683665008,0.6833477116719092
0.06261660041771631,0.01671735338672186,0.09187590242424679,0.055992388453628375,0.3997431159668324,0.3687886393838583,0.3557901785782635,0.597499798647815
0.11575631121459033,0.030193962557341,0.14586409162355307,0.11780694553781908,0.45372919461830985,0.4447835375714579,0.4039977065578336,0.6005684915773195
0.18254413971936148,0.046426379085899264,0.217381526720395,0.17441807397134126,0.5339272580091919,0.511442140975167,0.4938104127311619,0.6059130372844673
0.1762803289355027,0.032030468419795406,0.19919480091321193,0.1790259403924315,0.5112674376700491,0.5044275189169964,0.47509292166429123,0.6241311315952546
0.0964731558428779,0.06151526192514056,0.1194909792227851,0.08020520407353894,0.4300398939843909,0.4244357183472972,0.3983439640611843,0.6223740866044757
0.11988708590250882,0.05325775853713375,0.1451832013903402,0.1266480383134542,0.4303934394352781,0.43453342863536026,0.4187529005985689,0.6453937027699301
0.21340762722875312,0.07316866344462994,0.23390268821351373,0.21777791195108612,0.5297197345843936,0.5375529353910076,0.5145401870642508,0.6769326992895118
0.22929727652970278,0.040742682474252424,0.2573294361853291,0.2428866672783549,0.5160646334498985,0.5409633078801318,0.519548243292086,0.6337337944130856
0.20247725960655222,0.056069883942639925,0.2440003291275284,0.20939498302072443,0.47090807464199447,0.48859083428977335,0.45713986001423224,0.6568993982140361
0.18577169674001096,0.049758192093708464,0.23018968133261425,0.21354798688295037,0.45036115787824826,0.47650847250443784,0.4501383435615241,0.6609977187346393
0.25009737490842965,0.06688667576037287,0.2656609065126745,0.2732499684632561,0.5429984705154195,0.5519438815386989,0.5312351666995714,0.7129302269885863
0.1761744571674573,0.06425175862462888,0.21535362267205835,0.19470516430352683,0.4809481226603508,0.474766569695382,0.45996554991384375,0.5823907208091924
0.1882969647759269,0.053639911725982745,0.22867974020377552,0.20462695430725486,0.48123727796407667,0.46751372465909086,0.4310174945084651,0.6172149479061163
0.13621519070967592,0.047826076337131526,0.15379322720071661,0.14721232495517345,0.4140570677544532,0.4089701713574079,0.38243696093209983,0.544616138501406
0.2459021977403923,0.05271080048353092,0.27732941879841255,0.28054811239213795,0.5225892366152517,0.5269203750127467,0.5221829667770344,0.6763205262051736
0.25316137601028765,0.024628100073971912,0.2813915282530676,0.2740611401152151,0.49894241759354585,0.49154621123042225,0.4852122795353116,0.5591953504753341
0.23096360590694523,0.04211281195916932,0.2689086733818675,0.2552771076970124,0.478036521803864,0.48913551412246586,0.4543495334872534,0.5510913519079382
0.1637722972599759,0.008453564363561095,0.20484014240977008,0.2008321199143548,0.41064007125233565,0.43715412213160465,0.4002274017408955,0.5019097452693073
0.1875359812655808,0.03211276859124713,0.22833440003865113,0.20957370360026156,0.45906376958295686,0.46475247305436956,0.43613394799416555,0.39757492073771294
0.17541628638895637,0.050569108752215125,0.20421988189950493,0.20539967488905075,0.4810342811921206,0.5017687081726527,0.4773841413401257,0.40267487466601604
0.12722902745662776,0.027713940437197212,0.1605173244840868,0.16036731665932993,0.44184290173145857,0.4662622324556102,0.4536698833189945,0.38632822406429534
0.07897969861154841,0.004198045487276161,0.11487198299774615,0.10356450491866509,0.3852648811483797,0.4307585411589967,0.41996036337094367,0.31203252277025295
0.05990677185681679,-0.00475152595946416,0.12306859466203848,0.10953940714259969,0.36793334896092256,0.4042425370226402,0.4182001034103602,0.33696945367376896
0.15147048678298283,-0.004697468650939368,0.21196957324150528,0.19226300970337895,0.45768017798920935,0.4982018841654702,0.5105420152847625,0.4100186182080097
0.1363605112818968,2.3442082093322325E-4,0.19393593359381794,0.18624954720957254,0.4346471110359108,0.4684077447119878,0.4641262645415107,0.2673897366272075
0.1266978961541856,-0.019181650175432004,0.17361418630705797,0.17949334684634508,0.3899187822212799,0.44186786202328376,0.41529603048037445,0.2849796672710364
0.092980440000339,-0.02811671974820129,0.15212888422529278,0.12898624667597747,0.33954981503307147,0.3771274064148139,0.372447638000791,0.2684394593489151
0.20334496657588796,0.006776245512198881,0.23666570518532123,0.2296353615926175,0.45218698818706343,0.5081141021883373,0.5269494302330353,0.3619460979196036
0.13681265841600326,-0.005947200563594851,0.20518718711053527,0.16971549103858535,0.4193678021017848,0.4649181593880379,0.47111103002430244,0.3495750170929215
0.0952476420522742,-0.003089058771199915,0.15807812333984306,0.138177866785394,0.38879750447851524,0.4452572529668614,0.4590834733337527,0.37905771084196116
0.033787186111384745,-0.018763535570631665,0.09677231472158807,0.0796595653892985,0.33241717662526954,0.3732945590518434,0.380267507701557,0.3206372059852265
0.18184082425079615,0.015722921866219354,0.22753999098346556,0.21913218771077134,0.4322795045132011,0.5065503462649202,0.5070134830671107,0.3759965727379015
0.18481949965026517,0.00814799101529566,0.22903021611290925,0.2239063188801822,0.44917602260706685,0.49964298066110713,0.5024716793315208,0.3948891208947488
0.16504254629217302,-0.025273348555552105,0.22842530933773317,0.22636026831535797,0.41287577601288133,0.4852808936386311,0.49347320495644265,0.37030843251938805
0.10377791416605885,-0.038310167341051755,0.16194299647334476,0.1476920837697498,0.3690805369836806,0.4293679628723756,0.39439752314525806,0.23952056920975773
0.13523490107972524,-0.025435661313525773,0.1921829248706987,0.1770955879181744,0.4129749846054403,0.4654209899038313,0.46356915250986636,0.3252827814418251
0.14561310995670074,-0.02369612155043571,0.1928520116353887,0.17476847168689513,0.45944576532775483,0.5036689255782633,0.5309289968059231,0.38570238797739065
0.10524149301389543,-0.010163506673466868,0.169483649782642,0.14574724697457064,0.3988142331054382,0.4798172686013371,0.4584623830720642,0.3610839601863102
0.05159211342147386,-0.04746431187841708,0.11487202379767933,0.1012806428388022,0.3677703252978932,0.41880800720211286,0.43085846594601057,0.27266532681311045
0.05230200228008608,-0.014016549582316816,0.12718233350757419,0.09964621751766159,0.3324504589090672,0.42009678709497383,0.4207222053739809,0.29449881286874846
0.18505426502563482,-0.011695408501871007,0.24403921597065686,0.2358092791286859,0.4378073715982347,0.5234630427211703,0.5073848026168677,0.35107390413891404
0.14264907394897344,-0.0396767420644491,0.2074729577998098,0.2113983532962875,0.4129215428375205,0.45141280229137093,0.5097882937546089,0.21516892238122193
0.09610135074773465,-0.062350233692851136,0.12028261817192074,0.14723871735851618,0.3484865809976233,0.422029917324726,0.447579330536565,0.27005884238480626
0.08326694888789342,-0.05453893892041903,0.11589528955975428,0.1119651663668897,0.3301319493327268,0.3785912755984193,0.42750637543144865,0.3042866911107678
0.1939350143910472,-0.027920035847160837,0.20015668878669124,0.19805378788975997,0.42931132282903856,0.5203568517741812,0.5230722742287751,0.37855508898694934
0.14952707375483332,-0.016263299210280087,0.16656181828074584,0.15695555618759843,0.3622824361102963,0.4627144495949536,0.48152512682482534,0.3675770382667678
0.09571096719615627,-0.018421176791539165,0.09785621413896195,0.07301182240427764,0.33443963037784485,0.41018117022686273,0.42791259937011916,0.3422019865748019
0.035169886274439774,-0.054975429399681856,0.07862117920928088,0.047790164842331805,0.28449649078786604,0.35151787416152963,0.38926835334826576,0.2993628987949984
0.19501840086348238,-0.010001290177587219,0.22950702878420773,0.2079457496582825,0.42144499540932806,0.5003881096109938,0.5255867358413246,0.4241669946311775
0.19862887732505086,0.002848863478626361,0.2132402696739596,0.21635821980553505,0.3792032670222537,0.47830137237962245,0.489541566593117,0.2885122743738432
0.16511905973807298,-0.022264319747819616,0.1944226928650113,0.19475842829141965,0.3612638845873263,0.4287909910857372,0.42298801539205644,0.3368503422303033
0.10695748001003408,-0.03812272882888885,0.15617844273206055,0.1393569442983747,0.2927065415680612,0.35173613341846066,0.3788307157168421,0.3430921710679603
0.20772215332756527,-0.013689928316589203,0.24052179293502304,0.2278896225192731,0.38141718687904924,0.45979407812711665,0.4920153152566168,0.43720117728688634
0.16153311763282238,-0.0015925993020156626,0.212082285297311,0.16979870917082607,0.3874972967902799,0.44257605960400037,0.4817607063870836,0.3640672519561408
0.13799699254290532,-0.03741529040735228,0.1726547935592278,0.15398415251690478,0.37566131105964407,0.44023035462072824,0.46004980658113764,0.3454883289245824
0.06650769508802938,-0.027491068970389866,0.12256841072414595,0.08265726927651904,0.31073455159461816,0.3665476854098717,0.388725686101737,0.29918305672617895
0.09691755222655539,-0.02716040303041236,0.1320116644896474,0.11160027712139245,0.3157109097870396,0.401284173074239,0.40631741745202316,0.282653819455694
0.15124562538311465,-0.021795223875471788,0.18727593429499248,0.16871293617333802,0.3957349573329213,0.4667627541933526,0.49116312383715666,0.39928886542959185
0.10967073212025887,-0.02921542147768954,0.16586151016377598,0.13747343640539664,0.3358097030721802,0.4056821262261693,0.4321476704298274,0.38399771864502
0.057947184567991604,-0.0397140871070237,0.13493072396757916,0.09165419132703594,0.3173200697725138,0.38574047694174907,0.36927487715720786,0.2891862322311929
0.08303011761629253,-0.06509676078174861,0.15598186195406044,0.13979319447587174,0.273588421008709,0.33541744560938447,0.3581667535611494,0.31925208752220047
0.19485155820962563,-0.026442861294826578,0.24542682966931423,0.2565764311229643,0.3955733217716306,0.448578174702256,0.4842072050567198,0.3774196203963078
0.1492972420334266,0.002670977815071432,0.2191238912885367,0.20840840555485501,0.36228266743636217,0.4163582016215676,0.4235807420611185,0.3397090071377416
0.09797693858645838,-0.03034637905391696,0.16692468955194625,0.14168807126885868,0.3186817527995723,0.38552760354402216,0.38776778088931396,0.38372083403932894
-0.003179032539529985,-0.05354414946843911,0.03325503980099217,0.044494605273515106,0.237419153158706,0.3096511305543576,0.33213438799534206,0.3136511555210888
0.10455435729060275,3.498657048187437E-4,0.12991447894001124,0.15101272552162653,0.400225281654258,0.4599124669916883,0.48559964304883707,0.43328092764780285
0.07027664423276866,-0.004761250028070027,0.09056748894847581,0.10834614601665796,0.3674686563278375,0.4411093488986732,0.43957994467571987,0.36295866295302603
0.06824907758607886,-0.014412921284631348,0.10211405894912567,0.13064015501653126,0.33774277022920796,0.3991291413441705,0.4084122675065971,0.3074468756904248
0.009151452234454804,-0.030408381291778447,0.038004516081774964,0.03945760717979918,0.301747235690355,0.3155259052396512,0.3322510793456163,0.3305068863549257
0.15182085388278513,-0.003946318007153296,0.17999361055230767,0.1730870526105657,0.3879867534307079,0.44450255529048943,0.4536138872440289,0.38765889930913283
0.15058148483374606,0.0022813892866266894,0.18620271076528372,0.1565276827584175,0.38112447847464637,0.44649746468041274,0.45044031076067026,0.2993963624210659
0.12387699626501454,0.002608743354388942,0.14218767079800462,0.12255802619196368,0.34993167032559547,0.4106818554152656,0.41781192388553673,0.4133884828954236
0.026748379686531237,-0.017169162157590664,0.06280339358856542,0.03650375166224022,0.2906274520876524,0.33354326437447346,0.3295646344339539,0.20563548989095048
0.09289872688859402,0.0017733461162647256,0.12308680876276198,0.10893479405335438,0.3246528782168218,0.3713717889998227,0.39779089511583793,0.28127829849671293
0.16361186022627217,-0.007723481304497404,0.19120232339663848,0.1983201184503294,0.36651349560413166,0.45489728364547505,0.45166563929358616,0.41114925184816825
0.14757893782665535,0.002669511358576744,0.18465102429096872,0.18280966792283287,0.3500517571058008,0.3872421222365132,0.408974883379856,0.4057968444893586
0.1097334925626966,-0.010186126323629023,0.14807423917958146,0.14473295359355037,0.31563555407826843,0.3474903908777498,0.36696323732630576,0.361134280642352
0.10266341376961177,0.018386866119306382,0.14416821290460483,0.13373744171000218,0.25983178052456685,0.3073937677911741,0.32569285863316355,0.3309772113648782
0.19762160562563266,0.022607589514950267,0.24490981784562882,0.24656196270419822,0.39643391545675855,0.44940080460856996,0.46637828037040674,0.3943023978530191
0.1706351211583296,7.51187259755412E-4,0.21108947156099248,0.2051417556992291,0.35781782226893555,0.3784462540712587,0.39228376304754264,0.3094642295900247
0.15136000950774253,-0.007789002668615867,0.20367970523556078,0.20209389170983785,0.32973863440092954,0.3734473902974663,0.35633253505924134,0.33312871818164547
0.12510603704485468,-0.010511140420135442,0.17192680784413053,0.1857624665783156,0.27971568699684435,0.3209968604658109,0.3393795660289918,0.305532508841872
0.24180748084720113,0.011036331630009666,0.30166567636997194,0.29861620461348554,0.4351029841094033,0.4749877978619761,0.4708498829361003,0.36299178917132174
0.2239147735524351,-5.134501939167424E-4,0.27256447949279616,0.28690443950846345,0.355701804540824,0.3957370243153483,0.4054539520866401,0.3727221276082934
0.14920499018100444,0.012086919340705563,0.2073271555782344,0.17663243244847798,0.31942347349867606,0.3468920837527868,0.365307998226391,0.26188661975018956
0.03364486496710831,-0.0294621841973118,0.09675333030866354,0.06830801104476066,0.21742174612269685,0.22063930665601691,0.20454230921440675,0.24081165402545635
0.16258977952950446,0.008217273010354971,0.18831678664854107,0.15798216581253444,0.33648336756802416,0.3035916325121744,0.27138108638237934,0.20909650089003884
0.11416936114202134,-0.018517622094286812,0.14282334457046797,0.11219255065112908,0.2997851367256886,0.27313842003166267,0.24792156007540142,0.16130351177703256
0.08159827270945022,-0.006670775081096626,0.1152400239030569,0.07688887795779877,0.27175690942870245,0.2471873409490619,0.2357129445013021,0.1580957270794148
0.021457195716382237,-0.01240946424564264,0.04885095653837979,0.02383213360082105,0.22265373949029296,0.21403990124824016,0.19424448107804093,0.1500083565668074
0.16679108484810526,0.015670432425257556,0.16395862728293972,0.13795954418260853,0.3583733466203183,0.37427580304634106,0.3659679248382221,0.3468230089417527
0.11892306739315901,-0.002944068318650052,0.14574792752454027,0.11810922413483456,0.3662071724789244,0.3573928597563218,0.33552009636861263,0.3999164237246433
0.11288810471055073,0.019023050684970545,0.12633561476987212,0.10387437711933056,0.33787555627396937,0.3421479643081202,0.32806971077717084,0.4131968516495981
0.09407674442778506,9.89575967045105E-4,0.11986140724711286,0.09179966878094317,0.3228340123321439,0.32116600000373335,0.3173427152362431,0.3872962794889036
0.17973539726852597,0.016418275581072665,0.19193263348534612,0.168479842565193,0.40087634732648203,0.41983779427735696,0.4110231341244632,0.39852892022672454
0.1385725372789107,0.0033193493422041358,0.1467793706814906,0.13260513027205803,0.37130120436699166,0.3878623519993951,0.33565412163409736,0.38762108881714286
0.12350846405151733,-0.010206974400021357,0.1430474324551213,0.10973741332272789,0.35966646806550073,0.3545999101739437,0.3110168704133013,0.47355493251232034
0.12386404084621441,-0.016473961167175886,0.14202295238698343,0.1321740546586382,0.33454530465856447,0.3139672384833181,0.3000224361405982,0.351756121901
0.20918751061890856,0.013299750546327267,0.22955674925189357,0.23810038006445455,0.41952389699362447,0.43441468124522364,0.4211387456034095,0.46490633186575203
0.19996285627426374,0.013274672601590091,0.2229954340321925,0.21476628542152154,0.4131638158566,0.40345236509863497,0.3879099108030253,0.46174567477522016
0.18076955783669035,-0.02165847108715642,0.19008442383169377,0.17781781629342752,0.37702766949228633,0.37044142957645215,0.3382432739164743,0.5031173548982979
0.06452456365219673,-0.035871853213540875,0.08322645272500026,0.05148886707976909,0.2620149992748647,0.2535338699663427,0.2331469854275185,0.30438046480973135
0.1386692102522025,-0.02126572834058972,0.16604014574697196,0.13886541515345358,0.34169721896439026,0.33376575254573315,0.31447048386645526,0.4872278821705183
0.1520189825097712,-0.006647118937977134,0.1685680162702768,0.14307427553356433,0.3727985383840983,0.3706267355004705,0.36721720168505756,0.46808249923159134
0.17316154250576263,-0.035273137282535574,0.1983864727836755,0.17409157237488443,0.3942267023604375,0.37650174669511616,0.33616453205902097,0.42742033340509766
0.1322810456094648,-0.04422208542585646,0.16575370620500113,0.1482311778713307,0.33199440920446166,0.32929598635750884,0.29295890429346544,0.3926892464160941
0.1907923882134138,-0.006056142007438696,0.22408636091723072,0.21002053011141952,0.38483438481501797,0.37462048140811355,0.34991328533812943,0.38496876848452366
0.23049060200738597,-0.009411918767243718,0.24121812215385247,0.23395753579539386,0.4249981558139802,0.4298843230495405,0.39866023085636854,0.5067368420880841
0.19753134596174163,-0.022553486692769728,0.21445921399090595,0.19165508669700038,0.3935648610303265,0.36123919307023483,0.3472089293178969,0.48288918713945933
0.10073532539101127,-0.018975845974879096,0.11633588131063718,0.08898335173539888,0.29602251926315865,0.30443825947590986,0.2657233062747737,0.45296482482913236
0.09762534070148517,-0.015844123103424018,0.10868469297898703,0.0955929552728835,0.30042599969801753,0.2974298674103648,0.2691106962351944,0.4187950686613636
0.180862227606845,9.234036541444987E-4,0.20015747748902607,0.1847935300966025,0.409388681959871,0.39141897065442754,0.40851023291441846,0.5437121840072254
0.16555395067330642,-0.012273121254958025,0.175488752436649,0.1510796323093168,0.37143526302515695,0.3644317547930954,0.3531427524197148,0.46708601862713567
0.1713119368587807,-0.008754138558525408,0.18739723212931608,0.17058282707060782,0.36979206785112256,0.3541240037854356,0.3466583921062894,0.4406547168939242
0.13754660747882821,-0.02348404459011629,0.15344090409533467,0.14304372204301546,0.34428767080244016,0.31347595879402157,0.28497700016177374,0.3541474509379726
0.26495656428484876,0.010872565475900792,0.2727382461658658,0.2650002643969812,0.45132433653841464,0.459489841547276,0.4428757377006356,0.4083326937326991
0.24033801108095396,0.006581120067262844,0.26318838925995036,0.25439699071492283,0.44664052126909387,0.4451349179852456,0.40051496016453864,0.4752832754904184
0.17081680537621527,0.0018644911803191583,0.185198564363014,0.1680015533393651,0.3988890410323885,0.37504216227971987,0.32510523734741675,0.3878850543603065
0.07476226896126975,-0.04806473974194881,0.09424027965587398,0.08662536694331698,0.32683430898739974,0.2988786207516196,0.2636254198947435,0.42791939467462514
0.0744749625951289,-0.015984653896914038,0.0998186895446021,0.08578347590364421,0.3080017126127304,0.2868265327813595,0.24345897360157617,0.3876878905571069
0.1931877330204464,-0.00474769305340287,0.2077707805381307,0.20270155165788667,0.43075478055134453,0.43560174756816533,0.39425372343743853,0.4883482625145942
0.196151530993661,-0.024563122187539525,0.21786283673220516,0.21466124479820342,0.41003889650542,0.40038072473773995,0.38658461306976755,0.43490846198148564
0.1450058093271433,-0.014090875909155615,0.19704966005954924,0.17041954190472614,0.3926733578710727,0.3547437094557628,0.3277617785393351,0.413939200107157
0.0839829382598607,-0.031154270579318865,0.12539723182495743,0.09811334623830495,0.3220340002192278,0.27616612786461514,0.2536070521783932,0.3595661950043052
0.1613738317989464,-0.010934295288364662,0.16765867175867052,0.14446243408558868,0.3470789763527954,0.33770604413114824,0.313359002942144,0.42854772307659633
0.13785684270476675,0.01423354101434212,0.15880205944577663,0.1327656601203645,0.37181386035834313,0.3588282149401616,0.3103780778691882,0.40434848497429127
0.10004409238384804,-0.026045776656413094,0.13311160360545773,0.1051636402477178,0.35879390989544674,0.3242009338568236,0.2822524075226743,0.42232349683638626
0.056953148009316876,-0.019235678130425624,0.07791944939519008,0.06034956328298193,0.30336503722285973,0.26538678472142047,0.23807262653701136,0.424650510787916
0.09945236127619361,-0.025753371321799678,0.13653656767732542,0.12290671110171014,0.2811789091578042,0.2392745507619391,0.23194903339059447,0.4017356845147112
0.21913547696223443,-0.002005503012064716,0.24277108885560755,0.23205412970256178,0.39764332174128936,0.3926651810029321,0.35816561541820685,0.41373983281569626
0.16972065436002423,-0.005431053985036224,0.20537863803535994,0.18659464442179075,0.3668239841892602,0.3157448908560922,0.25857434989206496,0.4510857278019521
0.11261835866392056,-0.013967190797174851,0.14265698577380032,0.10216619103440945,0.3363738181588621,0.2716574450018199,0.23403141389734,0.42402273997833323
0.006224925366582191,-0.049460804441530865,0.04665500709736302,0.015280973854740483,0.24192997949911577,0.17466543554538497,0.1277647027606244,0.3287317493775721
0.15460027979403831,-0.030051751095821574,0.16932056545679858,0.14008467262610017,0.32128797897263156,0.2902974786625694,0.23978694561516714,0.3394359294497759
0.16334178168595073,-0.01001456302612598,0.18121833130529397,0.15193450547140022,0.34363382118895935,0.3070489732447473,0.2526168515032892,0.4124974670570193
0.12956294082736114,0.007279912352526004,0.17419876950217292,0.13493629642864163,0.3050257074774346,0.30186639300861523,0.2434950331652375,0.43562572524703924
0.10578555183009693,-0.022977325516561484,0.150427481225392,0.12202393695699981,0.26643537476413603,0.22591461246860617,0.17810435021892998,0.43756064045569704
0.16108581669856234,-0.020724032742119557,0.21044793891142857,0.19669514984525024,0.272161746153333,0.21727685721368048,0.183711898868854,0.40244271967710527
0.25198006479233986,-0.03682740448269983,0.28614985481435223,0.2840644211787947,0.36918875412380375,0.3536428867335275,0.3020943086087793,0.4059505542190094
0.22345915209953934,-0.012817922478620528,0.25112336260150936,0.22562120585082365,0.34196947761257857,0.29717845354743233,0.2493166098684218,0.376410377183193
0.13265499032193592,-0.022867868278713434,0.18403831808030177,0.15757998126377804,0.31134558223470615,0.2678441589388866,0.21115357165832135,0.37654168910880254
0.06695837948407549,-0.03362535934051064,0.10395464013899453,0.07317171948196863,0.23496724828894597,0.16211727644560367,0.11050569901711191,0.35701288266629755
0.18835784312613896,-0.01766821414639675,0.22131660531307798,0.19367030190691775,0.30890197006806147,0.2740579892917152,0.2379273963998828,0.4249338570786016
0.20379462083917263,-0.017955767582346516,0.26160612657016247,0.21379931017837073,0.32972798099356654,0.27570421682627644,0.25587104665082006,0.4738215613839682
0.20351014471843698,-0.036954200088264264,0.2508018789615499,0.22114388690742182,0.31345761041439507,0.2670492804201684,0.2245206612253951,0.562030914130627
0.14350164142490202,-0.029318849282067544,0.18731465199226172,0.1508132190715205,0.2496944168999754,0.2107811385400291,0.16533617510057766,0.44836307562669087
0.13612835036608434,-0.014851473136234625,0.18418227050514982,0.1416436784418501,0.23272918017445815,0.1843130709011037,0.14776993151956297,0.36356500390278906
0.1961456043640278,-0.01483793953771647,0.22441107687343936,0.21215827403431212,0.33373442052303215,0.30036715852960477,0.23118856464215742,0.4560931244249755
0.1628948889725961,-0.008374049696691907,0.20896180057448116,0.17448644832283705,0.2797836095111377,0.2205429871679887,0.20539372064898648,0.37764156057660997
0.13891860366302716,-0.028516987231676304,0.16754179866174976,0.15028047679592776,0.2559775811104534,0.1948363267283917,0.1536649278086095,0.46122250177706614
0.09168659417640147,-0.046517378530737015,0.13663089064014636,0.1028474570351457,0.1848286475899556,0.1410296438526628,0.10012185573289283,0.393524748222559
0.2341651746763767,-0.02427787408019841,0.2642919928179832,0.24564538566688257,0.2987115749140737,0.2799389110716202,0.2503291696397859,0.5025555050945287
0.24915887442322243,-0.03013500152701014,0.295587248688721,0.27159189742369017,0.2776218372218491,0.25811037842240475,0.21056561610873048,0.46157052578400415
0.22810374062260322,-0.017579600504710705,0.2679802813170578,0.24366282118074498,0.29377724815075357,0.22934602275247284,0.19037169857281203,0.48668029079858505
0.17742156702580622,-0.031558722089494506,0.21604363903843168,0.19246456514094262,0.21857792777226787,0.16684901403143976,0.10688386901919089,0.4687317465609824
0.21312632980583096,-0.027432387620469942,0.2485395555145646,0.23208281024281038,0.25126126941116117,0.18387865178886056,0.16516416049180482,0.49717763876157484
0.2410466942281961,-0.007894186748978849,0.2641723160284675,0.22982127393035773,0.3540448463645178,0.2792931232236204,0.2514963194418976,0.5327262649943303
0.19919398736221278,-0.019421143255399703,0.2326671675563439,0.2027547406412675,0.31868353001383687,0.2598089321734864,0.19212166495116756,0.6302321113336158
0.1715192632279645,-0.008564136661824678,0.20261203157807026,0.17366190179230054,0.27279947446090874,0.20032201583619777,0.16330623992916005,0.5095119505928404
0.1476172369803859,-0.035985728825374666,0.18950462392813253,0.14772213350947797,0.2307558578414906,0.13059727242236643,0.0889602507702192,0.4849275358176695
0.2800620459310282,-0.0035959035514255416,0.3169682081199603,0.2944751977630865,0.34343693126588026,0.2762052970917828,0.24838346181795673,0.6971475659994485
0.27605431391359814,0.027986586693177586,0.31049096205548005,0.28388581773035965,0.35081068745881383,0.2733694042360469,0.24554442082593847,0.6308601741662787
0.25076006271501494,-0.008556202840155125,0.2866280555219906,0.27644308006134544,0.32004171258693026,0.26825204260361707,0.2253143815271723,0.6880583422744667
0.1677625978027166,0.009791923840968796,0.195177509076564,0.16705951090113486,0.259711544326715,0.20026519601731152,0.15973683259694754,0.5730356992717935
0.12982627653209994,-0.03026014152134309,0.153830894268387,0.12185584804407677,0.22573137479845606,0.146664996291397,0.10803445017808819,0.6052151205974312
0.2467467369289891,0.00861591771620681,0.26384541371349357,0.2534256585756817,0.3438743324852289,0.30378617888171605,0.24979223179001792,0.5789807803144489
0.25511311595337527,-0.02335792715223997,0.2888740674282758,0.27850279259856753,0.3418369082433038,0.2664514825047751,0.2362358396925896,0.6093291599811691
0.23764747250154458,-0.027444492351240524,0.27659855369014313,0.2529837734792925,0.32628877389735056,0.2523362096816521,0.20951884356846015,0.6599240382820879
0.17238916025498666,-0.008326621312861673,0.22166871743744254,0.1927488009507948,0.23428490281522574,0.1861439447361278,0.1347452404775778,0.4831059464871558
0.16738380704036515,-0.028985053875353856,0.22281049876809716,0.18154201081776894,0.25711664795796124,0.1838648866004714,0.14885627172733068,0.5528694076131659
0.2258011062597462,0.020864888184275527,0.25354157207018024,0.2321641687201096,0.3608796889104043,0.29361578845963365,0.2490003129046015,0.6177560502320621
0.210560856168735,-0.009212948329215737,0.23704874812420235,0.1986463402196456,0.30946644786476357,0.26444677863584765,0.2046514814590055,0.5992506365774585
0.1768447322544101,-0.021264193564938694,0.22110738321627543,0.17716224077513698,0.32182043576416947,0.22114683948180494,0.15921418259138498,0.6073266120656412
0.143099291874282,-0.0029150523550009744,0.18096894985607953,0.1659437698755814,0.24275089995957105,0.14580358728127385,0.10419435575295932,0.540115316209273
0.2594262159206665,-0.007393567826465566,0.29040952180598323,0.2562090941619969,0.3172567377653186,0.2637633975615698,0.2131187040304935,0.5541937037645178
0.22845024626186777,-0.021316720878961803,0.26086919092169036,0.2164146804263926,0.37128527564811625,0.279480351378056,0.2479122583597589,0.5678888546952942
0.16827930612667144,-0.025747806025427873,0.18939814704964691,0.14453735657325217,0.3144292948983015,0.2455098235033012,0.16915897878132594,0.5558628976202133
0.07922807632419537,-0.04335961829612697,0.11079158617751628,0.04813787397517205,0.2663502382964621,0.16885191533154928,0.11672921211871662,0.47685356201690077
0.03513001075942916,-0.04060094779492823,0.07829290368203524,0.027822858377312604,0.19069945942476027,0.11203053644362632,0.08112524694636124,0.5198270917508134
0.18802974275976325,-0.02251994747018976,0.20826191928213023,0.17353259499034318,0.3538523959938589,0.30589406518191736,0.25610561128259346,0.6182032801261305
0.1734239077465693,-0.03350608146008748,0.17004293247480162,0.14815894264140964,0.3265275030706998,0.2662920844357252,0.21364635133380755,0.6015467069414278
0.1429046392921413,-0.0012551136581047343,0.17471892668255956,0.14042390948812758,0.32979432090315486,0.25113416838711333,0.185478469083453,0.6284353535288926
0.08361196077460095,-0.0051436755906989,0.11662129621811557,0.07431661340087466,0.27080683123424854,0.18144486845132393,0.11493661483754743,0.5565469511928195
0.09411410151300206,-0.029128433201836734,0.14054162584356353,0.0857459192054972,0.25509559953832894,0.17154115781847018,0.12096354465144385,0.5307701711518882
0.18694515341880846,2.0993178633800513E-4,0.21582343160540476,0.17279528170297992,0.39746718120045155,0.3302915171942024,0.2594125028118499,0.69252094712057
0.1966745087084995,-0.012772886766918089,0.2233897515394833,0.1961731183867565,0.39824848098526533,0.30084574728858504,0.24957846798332883,0.5591071536554555
0.2254813503018999,-0.054732476645392346,0.25112665766076725,0.23026840813150845,0.35780726279883673,0.30147311642340396,0.22552940947446476,0.6042631373592177
0.1681777457376819,-0.047396219959603025,0.2007681097530592,0.18130654973487084,0.3235289749193003,0.24941492283123146,0.16716811142155844,0.610220663368197
0.20938225698389634,-0.03229233921246332,0.23730650399809236,0.19579641437047846,0.3234966368500079,0.25669857565313065,0.1870876738160024,0.596685644170549
0.16452363036528833,-0.016187271772022362,0.1949217922436605,0.14731221135130151,0.33759141812119625,0.28249764409839434,0.22205576939171076,0.49496608020177885
0.14852069127840645,-0.009547471969685584,0.1637155955849336,0.13086319657336162,0.3259264384476224,0.2423764931467955,0.1820190414289279,0.5664870635061788
0.09875694065166331,-0.02715159460059018,0.1160869925938364,0.08414280016680825,0.27073933291997687,0.18914675428589744,0.13812381896836995,0.4482569263150986
0.10099472438793257,-0.018465622358072142,0.14172856852113888,0.09870862521142755,0.25431991088490263,0.1856480339128471,0.1402555744353201,0.4627279060791956
0.2590580802979786,-0.027648281151241766,0.26848388878980045,0.26770656064402193,0.40418790258349446,0.3617240052043951,0.290044315478986,0.5699206268095726
0.2535724206637638,-0.002804821009394748,0.29220825717284554,0.28303884457124673,0.385096631813728,0.3259022567136151,0.27340820706747354,0.5785585422780767
0.21825555400644026,-0.0443001256350403,0.26628405431185,0.2254548894849756,0.34835220803933453,0.2745703058748241,0.22045994544597597,0.5587643124800411
0.08402428512769373,-0.05383373723961624,0.0986213282399995,0.05863419975974904,0.19946379430469063,0.13629120959205712,0.08050546267055485,0.512736644639876
0.1938687496527241,-0.01518225183699462,0.21140194116503097,0.1705911238844957,0.33403716632868075,0.2823067150396811,0.23011483310182757,0.6970444253920367
0.18928388075680178,-0.021012148528908252,0.2093740069305791,0.16036110592670177,0.3392689477695347,0.2986414111689355,0.2347524838165507,0.6734091529663776
0.19543123706439097,-0.050273710716830525,0.2196801344545307,0.19369351232676357,0.34519969362540165,0.3060054021188604,0.2317332104765425,0.643313449701056
0.1966630989886537,-0.030699822030470537,0.23634819470986873,0.21034253010013584,0.3190803131068477,0.26685600266553927,0.21619740656178646,0.5932114766919289
0.23848234581959282,-0.04359736031437998,0.26152979800593285,0.22762789237722,0.3758332724026102,0.2856530556992411,0.23929209593712517,0.6305034584006911
0.25833259659989527,-0.01956676327517965,0.26744947031328864,0.2302391133924187,0.3936877322956563,0.3442060950646493,0.2828841911352706,0.6341085517807818
0.19691175494360433,-0.03314951211188868,0.21630346615481003,0.17385174590236224,0.3349043923762902,0.30555474675373057,0.253888674760793,0.5687250566457089
0.17865277397319299,-0.03636368915220972,0.19129113347441748,0.15371945731589318,0.3365894822458443,0.2781533488763764,0.21612985320815736,0.6140677667254182
0.16612547185488322,-0.024086642523395672,0.1935414018251193,0.1713774167602396,0.31072421335725686,0.2535715402022677,0.19710893129950652,0.5408678828910441
0.2915278510491705,-0.01266297450180294,0.30988666475309956,0.2792867321812393,0.4553954831722877,0.3987971959123119,0.37255746195005607,0.6924844016559022
0.2536324952347245,-0.018877468590571975,0.27754861229495653,0.24237324315285633,0.4314493693120381,0.35640331868435776,0.30884017151146465,0.7041304208614125
0.17250353994119136,-0.04752434544071116,0.18865006666892054,0.15617068442868273,0.35471520374090015,0.31507892559712586,0.2679713679689282,0.5530975603998054
0.07747201542165631,-0.04948203210726128,0.11066896310559883,0.06245915987293685,0.3105298018807212,0.24828907943413095,0.21479114717023726,0.5609188053193163
0.14076444392313978,-0.024379344294330994,0.17027183620442338,0.13045034088683355,0.34968187817007096,0.2761258662539667,0.2498040404484174,0.508040808371634
0.21579542119363093,-0.03598678057727064,0.25001560482168494,0.22550639583605292,0.4017712545614873,0.3692891924305088,0.32294514590410567,0.5731095086550346
0.21735456238520337,-0.029204587018884495,0.2554927358301645,0.2208549207505151,0.38972002782022486,0.334758938497199,0.2924616236282499,0.5362551406442673
0.19282380772743746,0.0018807088295555024,0.2329553049871465,0.17734774926622843,0.3286711785908815,0.28456785113536126,0.2211717185489707,0.39941817671946983
0.17171991000624073,0.006861185003973827,0.21452949536376054,0.17949606049519462,0.2920368878044904,0.2510268136583671,0.18413144395875186,0.24548750159034352
0.25104278262836033,0.038321642268620434,0.33724995527146545,0.3131515762916934,0.4772393901794627,0.43930741669167084,0.3851567098375813,0.1914819123526602
0.1466734233024749,-0.023891942297037123,0.30491744417502176,0.31914760106295115,0.5214053253984844,0.48228254010962396,0.414893762312335,0.14156918767074023
0.06291551674812641,-0.04163511055582082,0.27370973585389075,0.30540663707717103,0.5713866933797112,0.5098747159895183,0.45628757323174546,0.052179132839838896
-0.06616883343910869,-0.0628030083262699,0.17769812546246522,0.23500760324563144,0.5246496170435241,0.45423953410056267,0.4120907575411848,0.03923856926252628
0.026651676656353283,-0.08000916918477306,0.2562832187165018,0.3347866261922503,0.6035226446575225,0.5491361501532783,0.4899792960726838,0.05320084114465834
-0.007312950987973958,-0.06292897235911737,0.19674824540657684,0.27999904904306816,0.6131998213692168,0.5727210706052652,0.5251536953652314,0.057554243263143845
-0.08882816499688052,-0.09240619533100639,0.1222669755127276,0.18297006361671325,0.6013793108767063,0.5348096892042349,0.47689626669653024,-0.002130177161617508
-0.17297023337148815,-0.11864474982186307,0.022946147928617003,0.08922166695902004,0.5677404935573283,0.4969340487288382,0.4477745274473094,0.023872615373808553
-0.20583938278018016,-0.12536537186823668,-0.014673862807853252,0.05324617045437513,0.5147544546158622,0.46177004019626355,0.42016917172361157,0.06066960430720465
-0.04970277270916294,-0.06608980751927807,0.09758107958864977,0.17439205340624725,0.6377255893407588,0.6006272032940011,0.5646971570162176,0.18987322781132818
-0.09069494417689317,-0.10175931508329927,0.044691949702557035,0.0899505434732458,0.5788565476310735,0.551175997271725,0.4980840435114451,0.16832792799051471
-0.10546029510361009,-0.08117159461301385,0.009622352615306556,0.06109433497811845,0.5447365204867078,0.5367004657371874,0.4949178290867215,0.22388493886289867
-0.12493011466251669,-0.08064358544936573,-0.0031897797889375162,0.032132149984112054,0.5109422332052083,0.5093644287885032,0.4359092294208334,0.23427073444877017
0.03014850327485674,-0.07428983011028163,0.1300445314841981,0.17049273358552497,0.5652663961367924,0.5827150670749044,0.5431143684360944,0.3206834267661145
0.06508165129853602,-0.05485985467497749,0.16723442248126952,0.19165895745239936,0.6186461744104592,0.6113242279285821,0.5716945389121125,0.4354170557106231
0.07154758401235306,-0.05345200607857116,0.1487951450812692,0.1650442685566857,0.5748048979983049,0.565071006658781,0.5141319553658534,0.39286572587285307
0.026216124720786264,-0.056765149567160875,0.1017241728577271,0.1256841029103285,0.5226436273583012,0.5132434629771631,0.44613550364497856,0.4698379836475269
0.04368940749086636,-0.06800913920235428,0.10094533086747969,0.11639862371147564,0.5150210513184972,0.4863954457260678,0.45057360246564593,0.4303526066508667
0.12908024949749647,-0.01093732199259733,0.17829606181186403,0.19233014834567808,0.6133896876877241,0.5878129292086127,0.5249555650204109,0.5489395065186615
0.11950102530388346,-0.025982332243794603,0.1673698536511417,0.17119191144211854,0.5676797600904103,0.5456276229715564,0.49738851284284286,0.5869672795748535
0.08770264640194875,-0.023701544042177516,0.1365727780309451,0.14656462293262756,0.5416672645575197,0.5236220254959477,0.4637196768027862,0.547518203963462
0.08648543938496879,-0.010683798089732636,0.16210240209825744,0.1609783493033495,0.49386449440417174,0.45430230854775194,0.39969417722417644,0.49634972472189076
0.23246378153543706,0.012158753960041943,0.28530249824608045,0.31869458551916036,0.6002149723599162,0.595477728224288,0.536010735439193,0.5375149110595474
0.24336601323248755,-0.007275078873489313,0.3054272129184498,0.3290445283234878,0.607052690655713,0.5751355047634662,0.5480893776956058,0.4938022810758581
0.2324755108370233,-0.001815104974118395,0.3116767432185564,0.3301532321538455,0.5855243354841839,0.558501991305854,0.5258845466174128,0.5427048601266963
0.19951992626911458,-0.012999982974307406,0.27381176768025633,0.29436879215521955,0.5231240250333493,0.4989336186963008,0.45110496140982004,0.468320090206201
0.24895166139141092,-0.00785809417446072,0.3063683528223267,0.3466142734421546,0.5457703873567454,0.5220774793758867,0.4630560146218566,0.4407669270579405
0.30700215355694493,-0.003428899441689323,0.36515384868155626,0.4084546064518298,0.6223746241420489,0.6077065535207441,0.5663602806073106,0.541395049378219
0.2822779630613464,0.003516522819728987,0.33614287507927026,0.36561503654011646,0.5695856400559145,0.5748459525257112,0.518277128670767,0.5049773749859456
0.15993187729471167,0.014228065177510503,0.18603577788756054,0.19437133346486468,0.5192446257294,0.5075194525670187,0.42755415551294595,0.4864232202480192
0.04093084443058284,-0.01697150875213614,0.08659025300369146,0.06820492174346732,0.44555491698497773,0.38778494681870257,0.37375099623870445,0.39186428493186237
0.19187330686099568,0.018491759750957893,0.23680996885836983,0.2131686069267001,0.5401427608878696,0.5245601473835243,0.48452784930447507,0.4729469724717733
0.2241174203921022,0.0390422045671267,0.24782322807356258,0.23500828605628407,0.5501927617609685,0.5413214987156568,0.4901403200069908,0.5389209848987281
0.21057956135117378,0.025400761969645545,0.23020638841036778,0.22747627583630506,0.5013023235057545,0.5035649022551071,0.45552509040200007,0.5134884260041708
0.16194826615289373,0.00421245302789737,0.19554484855304283,0.18545510862130618,0.46848306183143584,0.4627861960435773,0.3884792390816988,0.5185643547322223
0.13791495860244674,-0.014311275010650534,0.1695397271673075,0.15986924951734122,0.40649470197258764,0.39539376570507734,0.3367091295295198,0.42820927406135084
0.2590411903687061,0.03870030220508115,0.30005639118985056,0.28517256129068846,0.5504347950132328,0.5439036746352555,0.5037254446183365,0.6268052994894449
0.23218323916324374,0.04331377987359138,0.2557522099971075,0.24720337543213364,0.5280049265311182,0.5027647326610002,0.45372428653046926,0.5010304818701385
0.21055040396695962,0.02365348730930898,0.22555973622180034,0.19866070465392482,0.5061193762839451,0.474584536763879,0.43688236509982037,0.44831466918561164
0.13501319474457207,0.02888721500283517,0.14751972575755823,0.13086687183468831,0.43572974547108745,0.412352714931602,0.35389129996329377,0.4184252591406582
0.18887340857526208,0.01944463271977978,0.2080181611729571,0.17904427587093671,0.4810732837596264,0.469774309824456,0.40636079385155993,0.4557113556288983
0.24290325241302504,0.053287700948828426,0.2519205036674843,0.23003587628479116,0.5389302247675785,0.5216911099461156,0.46828455457418544,0.4702345332575875
0.21209183983478247,0.04056750063999722,0.23071708222937554,0.21749593591021754,0.5201592396479339,0.4910906292089693,0.43221241061978355,0.42956944633665156
0.17230921222561468,0.02935252692808893,0.19302568985003732,0.17741734343435245,0.455935295563808,0.4480435101885213,0.39052516520514047,0.4811561683588249
0.10679553719426786,0.03166880929056318,0.16458517631415404,0.1356535991172283,0.40576510953664274,0.38536764405812435,0.31313586426378365,0.42671998713551945
0.2512627008662463,0.06053818346299878,0.2762014915381037,0.2526216900634136,0.5556443936665117,0.5294874468373109,0.46909470070694254,0.4508858088359398
0.2136145445417397,0.06328240207641998,0.2375079711777541,0.20059655021061712,0.5105275791105678,0.4940937425723788,0.43187076992300827,0.5010233063261722
0.14666727782955716,0.019636889938083567,0.1727817817654985,0.1628249355183775,0.46927625019715435,0.43745773792115317,0.3769055793485101,0.4582102964888901
0.07997945542979569,-0.0020043844452992026,0.10551546082826317,0.08033257929191481,0.4099520373034173,0.3742530130320694,0.3353233550070946,0.46958699581617735
0.11542199831717928,0.00783210766673912,0.1645873832516324,0.1537630885900757,0.4126797200136534,0.39947912428538657,0.3498864771563768,0.403276589382581
0.22623447760493495,0.030760155245646105,0.24252265649898397,0.23766913842624876,0.5237011694029121,0.5177468146132584,0.4540490006850048,0.5454818774961504
0.20848562957974842,0.034483466512218106,0.2277014024764288,0.21833890538830053,0.4956037678074971,0.4545657908146456,0.3946704176428294,0.45960833515725313
0.17870007171859098,0.013906709930364303,0.18832142257004506,0.17074273782333182,0.452313841691966,0.40274498983171675,0.33613848726328693,0.4457275533411988
0.10704963476656973,0.009403755229007773,0.13440122726375373,0.11316241991273653,0.37853086289391424,0.33735543967705844,0.25705047914062085,0.5217279099441215
0.20910415621025372,0.032810555273613436,0.2317841010311701,0.21992107529181593,0.4839608828654205,0.44294889421125483,0.37411195322871377,0.5894692635913272
0.21602349985664906,0.040117167603527154,0.24194602613571942,0.238938193105123,0.5411710293631447,0.48482220723978176,0.4176395760615009,0.6279920695524737
0.23804232350351218,0.00862644290014579,0.29135905345007174,0.2886692715607026,0.4948985464560931,0.4583061930096604,0.39089086247505855,0.5344158306840333
0.23103448645647565,-0.001984481503080733,0.2726972779557063,0.2890471459590163,0.44111618158404503,0.4100757493963694,0.35929358901145947,0.4689991961688476
0.1973219638520404,0.01490838580802182,0.24885869895016338,0.24980020926230523,0.39164599315204757,0.3721589238064644,0.3266346756751054,0.4730534061175905
0.303194527941945,0.006977098961564121,0.3464587093760832,0.3618039579533277,0.5282956800355012,0.5098928976044229,0.4558116524766918,0.5498060150279387
0.28342661606052794,0.0029526927030448236,0.32697375475340856,0.3457490489360132,0.5009351017930439,0.4845225930824639,0.4061164129211082,0.562388951160352
0.26897856177564733,0.011467094417849572,0.31140182804985045,0.3278179856620904,0.4724127357853639,0.4501040278924074,0.3798897114285166,0.5997452529003741
0.21363184533787,0.005466893407703781,0.2657944456042905,0.2668861210932811,0.39231836486281435,0.37737713605250356,0.31527450079006325,0.5174012619068707
0.31058475657655893,0.017368533622942203,0.36510984830691373,0.3632012676561882,0.5086877452704833,0.4843927450984426,0.44750175433815265,0.50484846876181
0.28716520284018654,0.003976298580727233,0.32507319666729856,0.3321730706148148,0.4979360362791777,0.46854829053065944,0.41936771225293995,0.5808139342561192
0.21061910232787545,0.017477215914887618,0.24383023198715775,0.24823296422422975,0.47668914160930653,0.4439264312172213,0.3698772684277711,0.5546443726850947
0.1460484605048887,0.005961816041255745,0.19034488152134765,0.1821964557689915,0.4321143238440756,0.3576830350242508,0.3375429441958689,0.4009653285335061
0.17739477626059674,0.004822372466387993,0.224016232999931,0.2193637875506687,0.41616769048043245,0.3901417818445616,0.32020350581891255,0.4651324136887383
0.2718703574629956,0.020896082412554993,0.31362142885741207,0.30268182875968846,0.5251234485536266,0.5155107504224364,0.4510815479079952,0.5961355443640175
0.25931674575940217,0.02641259079627922,0.304241875289361,0.28599971091965515,0.4875145821978043,0.46677445524655514,0.39446216278093876,0.6134524944543471
0.2423619508035048,0.038499444044505594,0.2893725816610464,0.29924165436732775,0.4613408431299101,0.43744117280852507,0.3682568536890697,0.5703601369824126
0.2038213893476235,-0.00397226014532618,0.27082415718100716,0.2695379899748968,0.40307093241691844,0.37068925422337606,0.31009519181079814,0.5188051979057486
0.32041753148722507,0.023703041117841495,0.37331852287936423,0.3758656935920597,0.48895996680386944,0.4675853693660553,0.4505783188122669,0.6353530350684236
0.30094108359148336,0.03283201576498078,0.3433342431605088,0.34436137244044407,0.5144578017052264,0.4737456422464024,0.4406573655314882,0.6412254607009572
0.25240210365116544,0.016528838473942403,0.2779387823248659,0.2752291581415933,0.49608530787143507,0.4674865398850347,0.4112971458550071,0.6135358337301993
0.19156215077523597,-0.00416490135481392,0.22134031580396726,0.23204045277080773,0.43323208720829726,0.38986729604574,0.32426566514043864,0.5377039181451427
0.14099689931171266,0.0018473636907851212,0.1846177274123344,0.16921073363826988,0.3828382334133918,0.3328420007084964,0.3064077306506401,0.453137477257674
0.2580662031198325,0.016342686513675264,0.2809967329565969,0.28749887485774794,0.5016053769021801,0.5124880912977489,0.4666387651374571,0.571634339494286
0.21974371759818287,-0.015673943061702833,0.2669545021812414,0.26545356593448494,0.48170941444603177,0.4638063975991335,0.40081990838987475,0.4742988716081312
0.18688542512929046,0.0016969511142842925,0.23927929111078922,0.22814287894386745,0.4622515528815108,0.46147439126011497,0.3685328483998517,0.5166518640768637
0.11600142215891276,9.161199077907479E-4,0.16557269232722413,0.16525069364582795,0.4121146248357391,0.3562707891153051,0.2996503647832702,0.4160838194044362
0.1690660311129205,0.014429893471673002,0.20812387707362145,0.20879132848422993,0.43114028102552193,0.3883749666935289,0.3404606512988886,0.5646359347327735
0.2215569065416877,-0.004247270769348145,0.27236698501913753,0.2626483382284057,0.49255513633763665,0.48765446246495114,0.4367515165498377,0.4897588247101658
0.1786024596308996,-0.029274698732608448,0.22310232925797183,0.22404130503871628,0.47256660238320647,0.44989814125912564,0.38908222290640243,0.45527080934296116
0.08686965270810969,-0.020546837399585995,0.13813366164820667,0.11988770384736289,0.40940221497634266,0.35200943367206433,0.315238330955817,0.42670831637907136
0.01234387616791096,-0.055056105165899906,0.07086413434799844,0.05000817111633228,0.33646274882789406,0.29380862309509637,0.24476048286527227,0.40397781053377835
0.16965448674081246,-0.01160623014915375,0.20700904322966185,0.19505826898964923,0.47570509975567377,0.4913260185601918,0.4459702794513108,0.47096856470522347
0.15500485942273326,-0.048434960201895236,0.16626858142549011,0.18074857267606476,0.45999669747822436,0.44387704687061585,0.41772573877993724,0.5688060921541929
0.1618517067249074,0.005681942439860508,0.16683857855685585,0.17924746970970412,0.42342744291716183,0.4032831638059299,0.3887759565696355,0.5161617480291901
0.09574159160816108,-0.004639048285674616,0.10326925611344985,0.09038242494452235,0.3630298668060951,0.3461496884577896,0.3002531435050163,0.4830419551521816
0.1520737631911418,0.017655173243171236,0.14713583903052485,0.16354846747054247,0.4039964582463138,0.3779819200509492,0.3380857213093632,0.5183520057254518
0.2044103251823775,0.04143733454925936,0.20625275455532682,0.20706126328773997,0.4560826333565233,0.4509761452938916,0.39176948787435273,0.5091588677441304
0.17555727620559222,0.029196371272462933,0.17889042246865997,0.1749808760461026,0.45654218797968027,0.3908089535949609,0.3415620006701242,0.47577113006021954
0.09632284597889845,0.029538577053686586,0.12122625579429262,0.12028623250628005,0.3815883201425672,0.3509848886423693,0.2882850559395552,0.3937486755548866
0.02411148554971971,0.02423620292228483,0.04260019785654619,0.054084745021453884,0.31123349479352375,0.2706358581481716,0.22982924037660987,0.3517526274705132
0.18831917914798416,0.035248358133361996,0.2185835144087376,0.22643411463779844,0.4288385987975942,0.42106645521579156,0.38577923341769094,0.4835671050667404
0.1842759440965193,0.06064778211511289,0.21199368818737407,0.22692220241450478,0.43065734772804,0.3869652789086026,0.34830386389856416,0.34648100867303255
0.16369665158973032,0.04492163463676835,0.19644308009232694,0.22356619154222607,0.3963595566878443,0.36257884065268753,0.3258840115651268,0.3780088567459232
0.09795376814302262,-0.001865367564901542,0.15343663589762244,0.17056598965839415,0.3235427751697822,0.28296385802517715,0.25307974036949765,0.37214516628590455
0.13711039529780408,0.023871910575966365,0.18536350293164278,0.20640782368547295,0.33591525619785473,0.31860055947075866,0.25787107561043493,0.3110806920672992
0.18344983946162843,-7.935717042792435E-4,0.19808690919934524,0.19146311642687014,0.4105801028655275,0.39778499210893054,0.36875627638754405,0.40455706993382495
0.1372385686699372,0.003110883570948419,0.1160331262275556,0.09240212511838286,0.3698869988776026,0.33121684545849794,0.3197971583477285,0.430507550149378
0.0973900906954551,0.017343415097212447,0.07190306771520524,0.05417705474551453,0.3199585539286423,0.31642999497450114,0.2741879108898675,0.4131150247456191
0.03299727940050658,-0.01641376366618765,0.03357235265485338,0.005412437383481433,0.30006853443691994,0.27072815700181513,0.24406231959393154,0.46710812363899734
0.18803109308232102,0.024224422228128435,0.16401483693246155,0.14328841672706522,0.41243259037207014,0.41155965711973724,0.3641270931182434,0.44577785363473843
0.1464824442220803,0.026162587188605046,0.12429930430007492,0.090728059742721,0.35403060724547064,0.3711256367417647,0.3187043933343332,0.3899552164128257
0.1133688964465791,0.001614836966170076,0.09582659997996594,0.06630528033366762,0.3634783722929467,0.3120127303955683,0.2796025717979797,0.37018106479454066
0.045445487756032174,0.009557184631787799,0.04439299158384123,-9.773093621644469E-4,0.2966739260626807,0.2588014884819704,0.1959265994578409,0.34472487976903005
0.14459072989026972,0.015287714080699162,0.12432909788862406,0.10159254959533513,0.35411630144354916,0.34002227757484665,0.2911427441640203,0.4962932548423543
0.19412203391835464,0.01655146638940192,0.16943124884340022,0.147248511515437,0.42941345310904466,0.3837158799872589,0.33776364588537755,0.45739449243753505
0.19627648980846044,0.01951632543251775,0.1856040750649485,0.17047925672685482,0.3812112905906461,0.35638177976977825,0.30602244676199225,0.3730407941070599
0.13741790136983525,-7.129306697281255E-4,0.12379569756463132,0.11316902044932979,0.33528286453472345,0.3002733817451465,0.26592795487119003,0.4126389276262704
0.10713888174957556,7.885585828772516E-4,0.107461398940926,0.08298786562723036,0.3224810827527235,0.2618265988212289,0.22642520399091756,0.4062129713318502
0.2042544050302542,0.053824081004531774,0.1748005155524185,0.1568118558355277,0.4317951216901061,0.40193234877067124,0.34448104060182516,0.45278625355005203
0.12117124259009512,0.013689410307473376,0.1046291586638913,0.06343398474384337,0.39590742319326333,0.3547654408323829,0.3021256292871255,0.5279508649354093
0.09988253458507738,0.02191780045746824,0.07086299445174934,0.031038865287621897,0.37726761740752385,0.3200450622088444,0.26797728638424767,0.49924404261680805
0.012833246953756448,-0.0057864593762008,0.005810236005581268,-0.042810135793791323,0.30362532117281815,0.24670410583190452,0.23222342903924464,0.4391753430507813
0.11030791157288579,0.041478418812691514,0.09412816290270175,0.05039389197757754,0.39330992885988747,0.3479200407206767,0.31263782432976955,0.5195193844493518
0.13678884584088996,0.025963272017671978,0.12873775982142172,0.09745527076284295,0.42466349196146846,0.38404114955721474,0.35081858434818924,0.4942787834994052
0.1439540649051552,0.037677690530204797,0.11980596373860941,0.0920122331795637,0.3903203259513255,0.355887165034551,0.30242350182892,0.396485717632962
0.08698891767666322,0.026233417011023726,0.0833208183103179,0.04778228505674341,0.35403514053089963,0.29505189558644296,0.2595903150018297,0.484980512264915
0.08391615051034984,9.541275072847775E-4,0.08256568870056206,0.03207726406779744,0.32754689856622937,0.26237546780859966,0.22438426966069175,0.48684259773603505
0.18863839944871394,0.014008435611394528,0.17490345739563795,0.1282357945855162,0.4589548593163602,0.4121828323005319,0.3440235469949155,0.5944592709513736
0.16703413328073843,0.01589710165210181,0.133105241595466,0.10204193761006353,0.39744840950554855,0.3462792002404263,0.3042006581559023,0.5668435645870589
0.1473629426222873,0.04600413891932532,0.1335287136238701,0.08795307595346993,0.3797733851876446,0.3300716617574973,0.293347162401822,0.5288581941733419
0.1321339912730456,0.004464621710980565,0.14734938986495605,0.10974639893143907,0.34887523166152234,0.27360254525983596,0.23612719734767,0.5830590661731133
0.2749227017154798,0.03721771826297132,0.26357075925263673,0.27092090568386706,0.44521162687746474,0.42111691029625875,0.3696111915028645,0.6215835331781299
0.2529178388934135,0.047800186268771555,0.25833852723693046,0.23626996147448692,0.45803318344096766,0.4060862002757439,0.3643153534118464,0.6120208804530548
0.23380448847103513,0.008029262849147942,0.22334505183489647,0.1987820144469013,0.43982649573368127,0.39656469471749706,0.33898008368347915,0.5832525689066913
0.16155428600894423,0.0030470672067154266,0.15375090733615787,0.12761941630078463,0.369284469018937,0.31639765109287904,0.27283562537202355,0.5599948482851053
0.2142235821878463,0.03197407206999832,0.1969841150468686,0.15768429064565875,0.4292146161455498,0.4066577697538675,0.3694788561888895,0.6501780102693505
0.22433166906809304,0.01652004304741033,0.2100021442973471,0.17909157662856723,0.4557506168138016,0.4345544915412807,0.3891050803493882,0.5958192016444763
0.2257625956583914,0.04608519862916835,0.20308857624134788,0.17989471912413746,0.4526833393793277,0.40752065863840314,0.355349534061008,0.6664358380164557
0.18533032919329245,0.029525776982974632,0.16709366894521507,0.14649377064851576,0.39276028329821044,0.353027124669493,0.3121756125995121,0.5898162919721953
0.2243045158023816,0.045412260122927664,0.2172182764410401,0.20354998583853806,0.4224287116865013,0.3820566243997701,0.331422936612617,0.5539465427340652
0.3086885674059824,0.05408932248766607,0.3018449044833834,0.2893290517118688,0.4979220467996589,0.47872880529323425,0.4268411483660915,0.668173312156179
0.2979449457683906,0.035931282899540354,0.27445603561930315,0.236816818692931,0.467528400873887,0.44587914989420535,0.40056529829740656,0.5853971547853257
0.21238730769470474,0.06253712558403784,0.2101731877779252,0.17403612125268883,0.43814795159219744,0.4041676668890306,0.35003621790855505,0.3954942878432221
0.13894151992749815,0.025174885974250594,0.16149271595097348,0.10815491050166567,0.3686691551098423,0.33642126303690384,0.2832826736342013,0.37232536753632534
0.25870766457424466,0.06207398221578153,0.27475238022016685,0.22200774040873264,0.49352165160168193,0.4905060733059801,0.4291798998149417,0.5662502920853546
0.22992484549736736,0.07716046807059608,0.23468639077792422,0.19918172380904603,0.48946715290701714,0.44907161803871964,0.4145099257688012,0.46922839380428477
0.2155101098287139,0.06591153850084884,0.22136617183220741,0.1685899005942234,0.4687417587569651,0.46526154113747953,0.3823355695633395,0.6055405300100931
0.13618860088710635,0.027658095697984483,0.1569116761309856,0.10491575349888352,0.4329816468893869,0.3729960691834729,0.33385331342645075,0.5377372054682726
0.18473254376282577,0.01111836540404388,0.20189458941785893,0.16582570972712707,0.4367773424134304,0.4130782085912816,0.3578828841299756,0.49933508195967313
0.2207821939477892,0.029692862942192675,0.24741146573837322,0.190206675226449,0.48866382893590493,0.471796205276912,0.4212668037718038,0.49464351507697357
0.18726970618573646,0.04508993484825889,0.22034510365484772,0.16235773505378387,0.4778093200510398,0.43955152672828685,0.3757866399334262,0.4185523912531264
0.1494023570618222,0.04966754621981295,0.1756474312463784,0.128428218478095,0.4119984337987449,0.39133861966441835,0.34911265669168434,0.27226747063510637
0.17269613526758135,0.046517744549519076,0.19622024995790965,0.15773024969802257,0.41806389805357724,0.3854631950078355,0.3784931205412548,0.3683438531053643
0.23666678748636272,0.0783342148471699,0.2717955927328101,0.2235882125440677,0.5091272260301599,0.49408463112537765,0.46909687400532185,0.3775608540918222
0.22682311031139174,0.08939075310228972,0.2503207772540596,0.2108952500259775,0.47199896596283186,0.4614886523469915,0.4208290260913829,0.3135290206661455
0.1791637989901353,0.08574673880037374,0.20707895565896633,0.18377294817360493,0.43379039569903083,0.43851713744211207,0.3907629806734587,0.4145973295643685
0.18463578175567733,0.059091339582250456,0.194650812904748,0.1673177256728752,0.403923288703418,0.4054614625238636,0.3564475043239656,0.3891713171980153
0.2726092389517744,0.08794654474826027,0.2853011005945906,0.26021703744085145,0.5389421589756506,0.5188051667667752,0.4945708436591734,0.5129052939981537
0.2513955406314281,0.07043583249009182,0.2512436613673306,0.22663738024907149,0.49823157614832064,0.4869285363433372,0.43968873903298883,0.36181689750701035
0.21404722075952531,0.08341378540975163,0.24358338760309772,0.19971968369589924,0.45606900168916065,0.43730770224569704,0.40705034253153616,0.36189269351985714
0.16562147650102546,0.05895833359079914,0.19565354749399722,0.1558130246757502,0.4024523916401677,0.3808568404975219,0.33827312767578327,0.3597060896127114
0.2751797797604742,0.06576022108123993,0.28551679717044964,0.26051273771819605,0.5172487898095444,0.5230719960077166,0.476825508679596,0.3168468690075116
0.25232862371372766,0.0492713808888004,0.26570929896013873,0.24968875389694573,0.5105653775111685,0.4899387777498856,0.4482199704469171,0.3440780811747829
0.22492893173323997,0.029893136202085467,0.24930582233328652,0.23594335878971828,0.4612900276909125,0.4517073501240294,0.4298843580791749,0.2984288188808755
0.18784020880324728,0.05648071084249433,0.20151403870628917,0.17112147681854906,0.408777359162086,0.38199347593035116,0.3381898840517229,0.37598205000335494
0.21031518987533096,0.05400368010036874,0.22040767977109513,0.19668465373293248,0.445560025271978,0.434989274189701,0.40166651898031097,0.4115830395289541
0.22906137340456661,0.0029718157432891273,0.23043785802710673,0.20167369523264683,0.4944690390890387,0.4934626249094038,0.44832828752830967,0.3225077831944669
0.1899306923423717,0.042961711743767235,0.19491766455601828,0.14897386423916076,0.44831757471917066,0.4456496774884753,0.3938588449237771,0.3002103270381423
0.1302187514850917,-0.01238490117101022,0.1452904817016975,0.11579883457896252,0.4210951081664432,0.39568375600718797,0.3622428931700149,0.2831812558082376
0.07611727691483093,0.02662369600980959,0.12732902893102832,0.0795001253582126,0.3821326210194527,0.36709355053328263,0.32969902147464397,0.25878556871981206
0.20716198600155594,0.05423245673460678,0.2318431912210435,0.18451838766793568,0.4997850591832726,0.5244446192932268,0.4937915895211766,0.3105541247222191
0.18608925698153486,0.038077405565523886,0.21081788720675038,0.1590714383726888,0.4506569201210878,0.47906232468536875,0.4418553856915651,0.3040692703429735
0.17511150836186806,0.051769078673948254,0.20160619067157245,0.16643408560485867,0.44231060243303083,0.43970066094851723,0.41217200535337345,0.3713246558664132
0.13788849515275786,0.034652600548807415,0.1712414101773655,0.12569263342410136,0.3864634064796579,0.37345924972887407,0.34597805859907643,0.3053996546769354
0.24340001403526193,0.04376069222083409,0.2690665222846572,0.23576248631488886,0.4853248617831933,0.46900006155278157,0.43397694854358293,0.4533322393466845
0.25737913104295984,0.03331474798664326,0.2959142697795314,0.2458626262050597,0.4732278138529593,0.47261043825102783,0.43682411979509217,0.4700218924098854
0.2548666010184374,0.029533929666179418,0.2522020719874897,0.2379243507160662,0.42158832516389044,0.4260515622540183,0.4052010703976049,0.44920940042307295
0.19725653663533754,0.026549665115450104,0.2125140283431195,0.17246416750397162,0.3660189663032809,0.36665138393552005,0.3314199130047631,0.2550390032299489
0.21307161916471193,0.02318396982400415,0.24236387013435012,0.20966563217112988,0.3588059655831302,0.3509262708752715,0.31196439879716403,0.4135251242051171
0.3176865401065835,0.04609611211603104,0.3294601637341357,0.29736593319882076,0.4540261495756844,0.4899217065864763,0.4352962599913064,0.44448050607748474
0.28988570237496414,0.03556579695124709,0.3125598129994451,0.28656754229141973,0.4291797887692366,0.43550763527856495,0.3815984867393361,0.3887445263780131
0.26408098294644394,0.04321819955311936,0.2861329924674234,0.2447216331506779,0.3923406829705234,0.38030039000720245,0.3472364195573625,0.3768891766222285
0.20204070961925635,-0.0011239658274569825,0.2272461367575669,0.19021043333218943,0.30512481965226296,0.30905193195728053,0.2771737137166594,0.3042634442138477
0.2921438096345741,0.037609518187481886,0.30752602920734373,0.27979052435442625,0.41454783974543274,0.44072135381559585,0.41953094377627664,0.3848007628625096
0.26352893607725886,0.038789261027468255,0.2768347030723205,0.25563964955502616,0.42564127100875127,0.44513970194575975,0.3996006813109361,0.4108651390425423
0.2404537084058054,0.029117851467206517,0.2570116381321713,0.225580959097485,0.40662857411875675,0.38948970150515505,0.35237013439753606,0.3410405163216013
0.16642652350865425,0.022992264302750254,0.1816895921171382,0.13152847727421832,0.343993358699753,0.31159943670963636,0.2965762297359713,0.3580464565898944
0.16278398320573254,0.03017319557839261,0.17980886521820297,0.14609205013951526,0.32901838796322086,0.3087086451689752,0.28465152278211797,0.2855198472048041
0.24875155182253383,0.03710042575434282,0.26544512517689994,0.2122218082104244,0.4004478277622558,0.42854394671044704,0.4135135308910499,0.3364445646311601
0.20328100039410588,0.008653327913687364,0.23747457753497572,0.18990616998227813,0.3816499181502498,0.3944569947881819,0.32787528559218304,0.3242000633573919
0.17519864151772438,0.005076313344895611,0.19393501818590808,0.14332890480181779,0.34534530641007255,0.34115611075134056,0.3077042585071052,0.30780609646107293
0.1259536100489676,0.0035104094605864673,0.13646568714384827,0.10030038334565763,0.27772859948096973,0.27825100513769796,0.25729114857525653,0.20386932649507347
0.24853032127911023,0.030370691961810664,0.27265231726221617,0.22991530699202767,0.40072450708001395,0.43707919673894013,0.4190235492602446,0.34311481309215314
0.2042019745877304,0.03185922143049076,0.23591638351329416,0.2034215034582607,0.36627864262803156,0.38413522996120925,0.362578191317543,0.3424881033055677
0.17146612724985677,0.03903397990822813,0.20111151763931745,0.16245588545323159,0.3506513048125986,0.35558629346924325,0.33213827113994215,0.3914848657309717
0.10440012527319048,-0.0030958236981322128,0.14592086575059623,0.09880068189255561,0.2812584494469947,0.2710573635229019,0.24636512154317455,0.2503998253445284
0.22139155733364382,0.02731140825202871,0.23830888495828123,0.2043578794235912,0.3771565448445505,0.3807469749640264,0.38293968788122146,0.29776561516560063
0.2312558848052696,0.029510781883733597,0.25355353457082835,0.21412986402597523,0.38804442697488056,0.4064598104597551,0.3859056387952746,0.34100868328138584
0.19628446487229634,-0.0011849501093024045,0.22681533680866725,0.19861272467636104,0.3599464350091204,0.374916091956993,0.3404103847523889,0.34716817775882697
0.12293497388014962,0.004373531520808223,0.16812060968890638,0.13493751419389266,0.3040061560731147,0.3098283753928762,0.2825021092870569,0.35836454918438826
0.13931134590459196,0.011919517598057247,0.16239891079543034,0.12391712708866391,0.3048436699882228,0.30549741182766194,0.2908608181409529,0.3755591618123216
0.23833109800458677,0.022133827763556747,0.23699891877337936,0.20680821585502449,0.4124705589158721,0.44171697603186605,0.41828535892774454,0.4250636497368762
0.14875793703693146,0.004731264231658962,0.17594778878604658,0.1274103117268574,0.36749441534787847,0.36898719643868116,0.34984867733675984,0.3972020711947816
0.10045096740292732,0.016242738027787664,0.11813514519616145,0.09226905686916202,0.3249755082225024,0.3407098569577536,0.3064379083460034,0.31747909235895366
0.013727677746721189,-0.029541952452411133,0.06399112008068067,0.023160269299204526,0.26446430334724513,0.25984990372718164,0.23406778580794213,0.2687968376496868
0.1707032105345504,0.018761001951801637,0.18331080119977233,0.16381716143965597,0.3766466416208697,0.41961679905873767,0.40786886560835767,0.3638933236460665
0.13850291111228522,0.008123597854649871,0.1720473100020497,0.13162127366735302,0.3654430949855211,0.40747604057385295,0.37964568851614855,0.4031780451818516
0.10907487189980725,0.01015760828467058,0.14709876941995512,0.10617066987788751,0.3364022841477146,0.3632312242853062,0.3450889781354065,0.2759371320975347
0.05118178652607166,-0.008905292223048731,0.08293741135874788,0.04812424906901485,0.2614427146692585,0.2826001020514534,0.2640451327298963,0.32727405845402413
0.09814830061153372,-4.6746465914162573E-4,0.14645115651738555,0.11080181607234307,0.2965410941341933,0.31695987571279693,0.3081466511530475,0.27055667790271226
0.17480984642241254,0.01226722673216792,0.20647016301162902,0.18719341824291527,0.38798424765175477,0.41924740517693376,0.40008006994665085,0.38821347890975005
0.1613186102202247,0.02236551645025311,0.1995849113096192,0.18007990204438648,0.34263556027707387,0.36720442553138605,0.3623458717904543,0.4006432388445551
0.09730975837435887,0.0026628509928567305,0.15312769344759125,0.1270936925458591,0.2879199638418034,0.3252981534255327,0.31297659278181533,0.377121043620343
0.08837101529263351,-0.018082439197409213,0.13360775826566246,0.10292816391403353,0.25946197493936096,0.26974781851564816,0.25704589718662685,0.36159186519753883
0.19650693799125146,-0.004498833581187189,0.23138957611342192,0.22219041441594933,0.39588382094321684,0.4226947428039067,0.38543742491972594,0.3919867723288916
0.18805786441872116,-0.004873014711526687,0.23211771559907005,0.22873308402622847,0.3376880547288371,0.33417600594711555,0.3179076865885565,0.3152042121785382
0.1782038779027995,0.008789694788311611,0.2227734692518414,0.19703641050186238,0.30582317978948864,0.31020108484463443,0.29498403648663357,0.38486779931038656
0.12861878692693085,-0.015303528772251586,0.18235837481996747,0.1601156870389546,0.26167435081272145,0.24509742933918413,0.22610634749985473,0.3102440100517481
0.2559403423215151,0.004318885677458986,0.2821296590212026,0.2753646664894696,0.38645405346990136,0.41795998639179843,0.3910850934609657,0.4346645278029456
0.24418666987678134,0.015314159969326939,0.28181421897031883,0.24802864204083924,0.3453352809938307,0.3898211895460402,0.3587868058841277,0.3162587307789786
0.21853090669885236,0.02843927975424234,0.23993046184663422,0.23829889439064955,0.34792710541275673,0.3491365200585345,0.3290447872051305,0.3987652955862772
0.13727308296282797,0.0035620048055535584,0.19455697445197723,0.17473516072742318,0.2693160277719458,0.2907135820394469,0.2441953644055304,0.3488109100743166
0.2429287063262269,0.016870564413714408,0.26649273702242654,0.24566790156773075,0.377258761134889,0.38078351479468286,0.3618529954163393,0.3828785877173204
0.2307895219876046,0.003576435188746452,0.2640431166324675,0.24821443031836674,0.3694445299424003,0.40451404293437276,0.3656165720166247,0.3691519088192033
0.20468623931638003,0.0099870853732404,0.24370998283112438,0.22240832754103873,0.3752639678934589,0.36016521345868674,0.32137586746465885,0.35344935456059723
0.19222635448541747,-0.005608439696907212,0.21519802166831775,0.19086757336578658,0.31133048453061846,0.28980782109948927,0.2534153896677069,0.3096054091104322
0.22938294779503807,0.030504318564540014,0.27044631801286007,0.2388799862344526,0.33914735972129934,0.32900276840736464,0.2830813950454288,0.34073474021641387
0.2714263782023924,0.0417515901273773,0.2882767086358109,0.2841562983466583,0.43177273125436366,0.40048746047747447,0.3860318023655031,0.4464303514556446
0.2460673771728769,0.012035874594068227,0.2743836927640982,0.25246110531828375,0.3993267960190879,0.36478398223301856,0.3399497813381424,0.39442869429440813
0.189254789099435,0.016655356612173145,0.2230052232982246,0.19651137829859217,0.34980636916735924,0.3428764406113489,0.27775463581943316,0.35178641315700404
0.15797742598110737,-0.024830641206200495,0.2007480184469299,0.169450479104246,0.3251829341832976,0.2901547071195904,0.2676181653323285,0.2633032013632362
0.2623688029267109,-0.016059862344697168,0.27258561466474834,0.25779775287502227,0.45965080462594954,0.4479703275324694,0.40845493516007236,0.3826619833694343
0.21633040043238416,-0.026413249883036713,0.25001977816340615,0.21745866949709156,0.408026606581507,0.40882593111190757,0.3697059130723086,0.40052662368838005
0.18491294014403642,-0.001826639736657261,0.2189225289127002,0.18725051956329025,0.3785694443009058,0.377572677892949,0.3401070112556499,0.30072436410335995
0.10561136331072363,-0.0544078150719047,0.16131094782784727,0.12351362191344258,0.32709918772047253,0.29029313277003177,0.277944714828558,0.30033106234740015
0.222039774210766,-0.010813245083637013,0.23736729959511146,0.21991652554491442,0.4213366292272638,0.43973603918655213,0.3804210605506508,0.36020479889626683
0.16975905718603412,-0.0546704431506908,0.21360225567018987,0.16598926314248644,0.38222944046934004,0.38681499883390136,0.3600112583419768,0.304023307382418
0.12095236324959485,-0.045268968114073244,0.15919333825235146,0.1400211595473666,0.3738080041846886,0.3663655626512962,0.3053555474949601,0.32340643518939544
0.05537275278478214,-0.061305371357151875,0.10833969637925907,0.07225616045801952,0.3011803726811985,0.29682714739395405,0.24877237462759683,0.28250226386159294
0.2060359861075697,-0.045435312295948056,0.21789044369286287,0.18599096306364776,0.4108933516325174,0.4183163208339589,0.3924737144645479,0.2938034079323739
0.1810035798880657,-0.01656894110745935,0.20496482965066629,0.16069412530216964,0.3966935178199803,0.4092724844362046,0.37294392563037077,0.2776419221700635
0.1587358885030554,-0.04824929515699751,0.19876316144322603,0.15447894975320786,0.39201375057468474,0.37014071969430545,0.33218552605274276,0.3176635212703025
0.13946433637135325,-0.020391131358654627,0.16051114496689517,0.11677393608822453,0.35570925394346703,0.3292017929055963,0.3016054588268675,0.2927901185009724
0.24078394928211994,-4.657478932000858E-4,0.24723578941022753,0.21351978648191008,0.4569003165889764,0.4774682057440779,0.4245210341063503,0.344802841237726
0.22496885831284236,0.0027690973945887695,0.21524211882642877,0.1871348464545181,0.4167769668208966,0.43856783487782014,0.3818679928127088,0.3026514260409999
0.2014405986178469,-0.0017815331925912642,0.21044389711576839,0.1557281343848371,0.3928735737695375,0.4224421684730525,0.3691196144821924,0.3743374069821346
0.17985612466035247,-0.0016264103841129862,0.17282656616450043,0.12187397079838433,0.3783588547327695,0.36117980307454794,0.35423550120118635,0.29020578098395816
0.27614814485202294,0.03943444889579799,0.24432037378963742,0.20424685060098396,0.4612501993971865,0.5080154726823001,0.46780028364796117,0.3879061510909273
0.2626174561322316,0.07855892757937545,0.22278898334388486,0.17973771777710512,0.43165476090800087,0.46326595053323166,0.4285690828645816,0.22064015434066644
0.2389154370243944,0.10306574430257409,0.17138035342280472,0.1297831474758562,0.3646098687256638,0.41077312703078656,0.39122779885795467,0.37525301660038557
0.1694279681201786,0.1258715280562674,0.13174693987471806,0.07636319621899806,0.24987358936325985,0.2846494143103234,0.2755923310492168,0.2850224281935211
0.29195457001763336,0.14741515493841142,0.23033106973216355,0.19923004480834855,0.3510257599740577,0.41198061634236266,0.4188864742290534,0.42914338145477127
0.28225220731182515,0.15173245161503973,0.21702069133993665,0.18321601025132223,0.33068903033871416,0.385589942316201,0.4172681204049617,0.5315858906015325
0.2479227033740038,0.14534115235360562,0.20557007013547302,0.1716575639631743,0.3349089587003523,0.36214202573190957,0.3849589627150199,0.5082340191999656
0.2039633632726987,0.10684553027044577,0.14813085048265312,0.120348800154683,0.2849907555261738,0.33160313425484306,0.32814803002040527,0.4617736834118475
0.2615563486135562,0.12990941169692505,0.1997301292126001,0.17568176059893367,0.3106174552431762,0.3573141346801401,0.3646230269893832,0.4670049567184752
0.31358715198254955,0.1664362927050861,0.25725908770763717,0.22725158899331352,0.35732727133218756,0.4230433832883799,0.4296044480543157,0.5155125426572037
0.29031356075971654,0.15150023420268216,0.2398141082144728,0.20680497206966417,0.3328085052265504,0.38589238498855133,0.38647552614477804,0.5504924446451067
0.243291945335327,0.15500427474248385,0.19574731207648052,0.16560045717493632,0.29144911875375107,0.32767207439979495,0.33327324472145786,0.5142990544890632
0.19797887998034214,0.13477519166614896,0.15411447751921686,0.12443769581525357,0.247992987295622,0.280442910182645,0.29498118353844,0.5297416043215403
0.30060891574553594,0.14283193519446444,0.2407226580872284,0.2159881425501544,0.36175513595292147,0.39707907151928395,0.4263672220977296,0.6015679206246012
0.29581034164238407,0.1799390435860257,0.25179396010507965,0.23588358261873524,0.36981971777058326,0.40558894347148683,0.40530073946307954,0.5056078976730876
0.27417288392978667,0.16883660379971838,0.22751902595221896,0.21076663180450494,0.3339715693325025,0.3692236492550397,0.37189654138087913,0.6180640854295423
0.2306752918877204,0.1389096835576823,0.18688954400881375,0.1561511805700267,0.27906941311586697,0.2994298959557185,0.32132164773355376,0.561786845121121
0.18497526585724294,0.1528159521856752,0.15695273776111263,0.11938379944281705,0.20533008851766169,0.21838982345217045,0.21253428498735755,0.5868910394424416
0.3047499007929926,0.17024323179870524,0.25416545827280607,0.24023799179999428,0.3135434248835845,0.34322353021593677,0.36274105677911583,0.6589335114534414
0.28827061466164294,0.18194300603525027,0.23466908898045247,0.22716944089579413,0.2843569012749619,0.33422676306326926,0.3430954870374137,0.4994792795037797
0.2655232778710404,0.17239604542912107,0.2295320613035046,0.19331539393736835,0.2733014526355969,0.3043071274802309,0.3335438078671075,0.540278601038569
0.19774484693678698,0.1615956505899862,0.16230972359780838,0.12016682636194309,0.16049493185053787,0.21033354668038398,0.19995967242568796,0.5860925878380169
0.1667446975387458,0.10512323496101436,0.10559263687909885,0.07544957300866784,0.15093712001330173,0.204458952108646,0.1935699456513002,0.505161583888555
0.2718036944632352,0.1392369726777656,0.19444338096389224,0.1521080226760293,0.2919333167884678,0.3418860939973907,0.3476266587965702,0.5378571221918085
0.23042409011935905,0.10658781696825602,0.15161910519667549,0.09417355825034403,0.2847049306345153,0.29472333465256884,0.272508336384073,0.6734874609795557
0.2014279152513114,0.10062649514253685,0.11887440454701027,0.08391063362696036,0.26849569475883733,0.30990132356774075,0.265683726733803,0.6543135900476273
0.13725865677335217,0.10316569555646601,0.06580515770646561,0.010609166839059617,0.2061304480219408,0.2407394193472897,0.19697517998215464,0.6270635143624478
0.1404818712218285,0.06701467819951788,0.07505197690527725,0.029171912489964064,0.23536199941259625,0.24385664277983063,0.2266601176207961,0.5473327192889225
0.24724235332554048,0.09607176251018013,0.16209067252119497,0.11995416019254801,0.3640936589872696,0.4292390200637602,0.3984934792561789,0.6869075893407106
0.2174517745520145,0.04786673398069086,0.14819281107980747,0.08900527528204785,0.35988375182523596,0.3858628485828432,0.3565371240505155,0.6351623864539517
0.19737034372274467,0.03608856009194967,0.12747039131356014,0.0765103204604552,0.3159355717889134,0.3331723771304257,0.33816689155306906,0.5921912051870477
0.13251927047226864,0.03868247511447864,0.07483523927699384,0.022733822779164997,0.24463035003878808,0.2649629338492554,0.23514266997644517,0.5237122859395359
0.21659371086492096,0.010633030434138874,0.16658869942143634,0.1114726729679837,0.3609029781954718,0.3749862263185939,0.363909233830218,0.6351818283479184
0.21987732999818424,0.044767016468225354,0.1522355890530188,0.09486725378070367,0.33800571417158515,0.39840784508065324,0.38870741920511387,0.5526320168784016
0.198355005850056,0.02147481600504548,0.13771745980110267,0.08360685079058269,0.36812403905897295,0.37984738977375865,0.33715034961873414,0.5099701941593036
0.12570174200611225,0.016841748882969403,0.0735754251970519,0.015646619528438974,0.25999788131483753,0.32668889357339437,0.2776648404913957,0.5136229193157209
0.14445336407282092,-0.0016059717860968936,0.09040926214014117,0.035565511192700544,0.2951178764272147,0.3065393919078506,0.3048918480807907,0.5326962244101929
0.20265189407653408,0.014549341487208742,0.13404209790933483,0.08136630002566148,0.38581857497535466,0.4211433105360102,0.4014013134568992,0.5492509852729535
0.16892162840205466,0.0040344852558088385,0.1086350596135681,0.057560404389122494,0.3417625323476686,0.4036360642673189,0.39624475217202104,0.46587994535165245
0.1387530959647537,-1.1161872932962356E-4,0.08829254558875438,0.034675821493686254,0.3235795698155488,0.3682949567017632,0.3495261145177115,0.4807907519455621
0.08508871281702587,-0.007650366676426821,0.0506374863977309,-0.009662227034988091,0.27840460925998656,0.296606148623546,0.28329834828448236,0.41844200026430955
0.22918399701633685,0.02690590468644411,0.16405156899005316,0.1206491712594003,0.4102004494559327,0.44315101114801625,0.4463348887806519,0.6239870942387188
0.20441509985046918,0.013313074221797835,0.12884961255146676,0.08515689590529388,0.3869419086982952,0.40991883500133336,0.4061083498941982,0.48686755161803086
0.17229067735821202,0.011162852706078356,0.11798136941652451,0.08445987335200329,0.3652110425606227,0.41441682786944484,0.40070676804174354,0.5139125531503268
0.11011884628678026,-0.008043785249315042,0.07024354472386328,0.011069010364555348,0.3229592954114344,0.3493704019839198,0.2980899727795241,0.5264408010164408
0.17493865791564803,0.017515305369051225,0.14254800028004008,0.07858113747580057,0.3683261308861914,0.4016865143569436,0.38609273838039193,0.6674366200550563
0.20103304721153625,0.021591855454097662,0.15009334623365744,0.09952316984299842,0.43773103443154915,0.45626263964230873,0.4369700244533154,0.684208975182003
0.1784769976795921,0.027952769040434196,0.14301972398389168,0.0821910365730108,0.4210611975394816,0.4363588695105741,0.39755206239176005,0.6186050533738388
0.11995497937545849,-0.008241368791876405,0.09723436023095268,0.03120009856527442,0.3630311070050896,0.3895681792253366,0.36429206621829524,0.5828724365646932
0.05044266012727951,-0.02654542983063239,0.020588396562250116,-0.044657415693682416,0.3044764068386213,0.3282298982498616,0.2975237836367503,0.4584636233282642
0.17268970802228326,-0.006656984628099405,0.12333737017857216,0.06630760125695069,0.43823711550766037,0.4784306355302287,0.46125199646708026,0.6239275658176233
0.11721728511113483,0.002412085903015315,0.09185733039066495,0.03102380680659085,0.4148984609775235,0.44942389878103106,0.43521666659151437,0.5166031857534396
0.08285631788217347,-0.03201216096054746,0.05567180172206769,0.010214497120578134,0.38805542202771737,0.4320026087753247,0.4089097035243449,0.5208429844180248
-0.12307648248819605,-0.02757178425480812,-0.09867692648964191,-0.12576647840478114,0.20208380120995395,0.17826120179506522,0.1726335419477237,0.4477306816154569
-0.029371940912941062,0.023118137502248975,-0.016327900278963955,-0.03162664342762182,0.06498524713864634,0.06649708272481603,0.046248073058304875,0.5910548464824334
-0.02048443996995334,0.04470587730076718,-0.011716837244039463,-0.03196906016607313,0.03078807476881852,0.04168732461122593,0.037834149270972034,0.5060925412038335
-0.04057833727625709,0.04114877687336779,-0.025316926502307102,-0.050368100878455516,-0.0048927489351497065,0.010027022412330194,0.009678230339949663,0.544601367893428
-0.11115929727453464,0.0033722669143891326,-0.08307267803464008,-0.12191572052546534,-0.05118350592756618,-0.030939185287901794,-0.062374343659189896,0.3875021800319949
-0.02458106744200699,0.019214331504596505,-0.008961725395084302,-0.04577316055031763,-0.03843362411212782,-0.009042757192720598,-0.037085640246162246,0.5935121678755313
0.06097903808097924,0.04252341955306796,0.06487108546972337,0.022007259089389622,0.03434068133189115,0.08112836612598993,0.05478237981624236,0.5481572753536913
0.08735175829087352,0.050181621968858815,0.10435396229267024,0.06758019884157865,0.026997241690330243,0.0771036490701923,0.058492131306145626,0.6748173181322059
0.07478129375683422,0.04277138953376157,0.08421596570953643,0.04523571895502791,-0.009326378635608156,0.016157010183916534,0.01474646903648677,0.5625108348818566
0.043280833028240664,0.023432984252574382,0.05513672424942749,0.01448363230432708,-0.030735658854483778,-0.024864394486085913,-0.013899456878783245,0.574746224953121
0.1697850404562054,0.08697043292886636,0.16611151929854312,0.1226397001063185,0.08508031215909655,0.1386436879128508,0.12152388793368929,0.6072080114755888
0.12570585850061386,0.05016621137437029,0.12622733052164134,0.08544820506134723,0.06510883959361755,0.09496127480075549,0.10700844735685713,0.5549325256106376
0.11335821899355727,0.04396630407344167,0.08739544498491711,0.055827456624688514,0.04598680210057747,0.09018045890313149,0.07908531349493454,0.5089850132847267
0.03667082635867564,0.03504457495803581,0.02237578921866034,-0.02115940305980413,0.013168327744176329,0.028684451691125896,0.03056053936639621,0.5045451723250034
0.18872427621536336,0.04924230256966917,0.17540857278687907,0.12906817163037515,0.14013316447636176,0.16407210565341945,0.1535546463882046,0.582061418028561
0.24628613890102607,0.07315451211868366,0.24225170285646086,0.21613111664531492,0.19296117109858407,0.20111489150523706,0.18903583019370512,0.5952098900812712
0.2733232595741011,0.057981073722923764,0.2543982979135732,0.24030884907445726,0.15814423646689607,0.19237647402961772,0.17906970264242206,0.6457528150694474
0.23672254741569698,0.04435874784331843,0.23179760487736475,0.21898472546988024,0.1074949175095638,0.13920061174632142,0.1342628660502137,0.6062460560824484
0.26411222346911545,0.034368605801194906,0.24299484302105934,0.23799700674960314,0.09336861800728528,0.14128165938235265,0.13372810177770453,0.611175761693944
0.35153534311465995,0.061152202275435906,0.3521730564847425,0.3489581908315861,0.2326743067589771,0.2731978956650064,0.26929867817349745,0.6457903835281468
0.35271591823993736,0.030103366752295066,0.3455497093829619,0.34957424524016684,0.2256844744724082,0.24497394055538207,0.24024818954711236,0.6290279269740116
0.31560265744642024,0.027936890006074175,0.31725532790140887,0.3049990806604402,0.17738049711967185,0.24061418775735083,0.22920226728048138,0.5789630939594571
0.19107807421430445,0.05076337572246899,0.18188336028198032,0.136696562537017,0.12891102372228438,0.15692246114510866,0.15845488390263118,0.5460629919726198
0.23780650303058593,0.024678553225150477,0.20826283552953267,0.15209702604822475,0.2140952522835403,0.26240094298631256,0.2718316478352319,0.5529209206351733
0.19726387564068062,0.05009881117548024,0.17305268703142332,0.12992635266875846,0.22769904448232883,0.3003926745301678,0.30143910922849526,0.6468672813017797
0.21861686225512467,0.04569372550801677,0.19001321990973546,0.14704462160043796,0.22908992582458046,0.28957581166828006,0.3082777500228362,0.6558842467241102
0.15464650062707763,0.02920674208524919,0.1555583983371877,0.09201013587936058,0.19841763678274424,0.2611468875477323,0.25535575981029746,0.5643697366882799
0.17268452233243903,0.02909850643120318,0.1736653918720902,0.12218834332485021,0.2168352509734357,0.25609433292621886,0.24906396288632737,0.5750425383945237
0.275799416726265,0.06468001998476083,0.25486274938928916,0.2181482820733054,0.3294710184330838,0.3911988361474894,0.3753923019400601,0.5610386001559411
0.23980555871376497,0.07702810080097072,0.23344900627189819,0.18417946104505983,0.2723280712472498,0.35049987130301197,0.32423562255216676,0.6013468896075645
0.1920723020614072,0.05144852564739594,0.18465826531063345,0.15888148199754987,0.2648988399863858,0.3121840601853578,0.2852628937727058,0.6542273265497925
0.1292030385754582,0.051576424847962606,0.1281056806132423,0.08864826934268072,0.20758431917055994,0.2393603775705894,0.2152673603194526,0.5065906283579424
0.26440439287367484,0.059948124226935295,0.26925512157161097,0.2122327660737397,0.32280196973737263,0.3863969269898082,0.38546541240639076,0.6682335479546376
0.24675374664820215,0.041437853963760096,0.2703737124444685,0.21412038643210024,0.32816831453095036,0.39770639092948634,0.37498306554373273,0.657653570520296
0.20271592138041625,0.05850953321672683,0.20210263749439364,0.1635414211942319,0.311828486922489,0.3523409098622036,0.3547844044384272,0.6581580250357141
0.12979494971979316,0.044087544403347334,0.12494547461429846,0.08728388459201505,0.2418528524900396,0.297724461034734,0.2858598934134592,0.6002497244135465
0.14128360044260813,0.052426110365753516,0.1546149949007778,0.11475081250247246,0.28883411105899703,0.30483474759375506,0.31570374236840193,0.5954233418683532
0.21017966141740532,0.07003757171902114,0.1985838756337561,0.16984405467646355,0.3588485286823181,0.41050747316886604,0.43673130948999245,0.6495698717446865
0.15191866372758242,0.059496506803238945,0.1494837289302537,0.10504138203263819,0.3401315286043529,0.4056987799715606,0.40725945968227045,0.5415062289522504
0.09621756074610757,0.0070301472019890406,0.11601057943519158,0.059149318002805054,0.3159450522465355,0.3826084266258232,0.3664209532939113,0.5457617569840972
0.014885228303164522,0.027460162446898036,0.03146501022261016,0.0035336951874188754,0.2355408088286961,0.3001570163571674,0.30622479066854363,0.5375032203113046
0.17051910440541992,0.04642343807402158,0.1746854933999789,0.1310286964118248,0.38376701280831904,0.44816011557026825,0.45552245827349025,0.5552997538488065
0.14565139582713388,0.03818848208040557,0.15522460644588665,0.11740409987237097,0.3610024125930581,0.44407661650223323,0.44276392427831834,0.6249840560798963
0.12021582576235965,0.027214172208911938,0.1303332001458763,0.07517034393517234,0.3647386420843168,0.4459292272521581,0.43994009835371384,0.6695629921122009
0.032231458455538806,0.030729431231686352,0.07382015015447856,0.010812864568844296,0.281042073719097,0.3593017654077284,0.34866644875435626,0.5327763672771431
0.0639497696870443,0.01586357740639895,0.09902217752841691,0.058841530620369314,0.3188610777166129,0.37179743515055874,0.361762097178503,0.6549240775840667
0.13985895690722863,0.05286926442622469,0.16435743136552394,0.12412236740170282,0.39833922930019827,0.4772120576783779,0.47817825172337436,0.6830966748257382
0.11479088018854416,0.025790013581674667,0.14828302187020342,0.09767774567106079,0.36860088483089704,0.4400309205505941,0.436415127070809,0.6015774299416325
0.11293778384879019,0.04688686301934658,0.1332969298725087,0.09650427165859365,0.3107780262562525,0.397598484999723,0.3840791213154907,0.5898909962770136
0.07355686822401128,0.030487616881552788,0.11442693106280852,0.06849087922151212,0.263897640285016,0.33326473359739583,0.33553451345284646,0.6431026583625163
0.2242870377643549,0.045744115902594584,0.25414438944071993,0.22760280163461385,0.3867109280923352,0.4849354417854136,0.49103455853612166,0.6541818671027575
0.2162454417536426,0.05085449189266622,0.23892156191577743,0.20958206575327074,0.3780123971621038,0.45685634595780567,0.45553640742027646,0.6184418406240983
0.2004621655337892,0.04100736755083538,0.21611883106244686,0.19004209463692384,0.3553728548650364,0.4175873239637026,0.4132101695354189,0.6473413778114283
0.12241979107052425,0.032772978847804515,0.13981273348474013,0.12263008667062628,0.30388817285719333,0.3437648966150165,0.348128183996386,0.5577980235200978
0.19093597177769428,0.027973821489656266,0.19154108282738844,0.18764037525771762,0.32434096407786717,0.3922869521837521,0.4149346068016734,0.6370045789034008
0.2326981740263488,0.047420585440323966,0.2506680786754705,0.22674428132030683,0.3829941220316202,0.4800458283852353,0.4844210166079826,0.6720406613482461
0.20426732027782146,0.04485968029340681,0.210426637226889,0.1997825643872364,0.346630578493637,0.4265677757233262,0.423953707526306,0.6630261326733301
0.15342139186773301,0.036566279746065786,0.1876214199263882,0.14387665108203168,0.32025781208475335,0.3750836165431441,0.34928325518394715,0.5271534695709069
0.09992389625560907,0.0010654006384938405,0.13943159394793372,0.1035675222182171,0.26133267180994074,0.31036974844939097,0.3021218122779184,0.5505169387534204
0.2530100435422121,0.04087533368975782,0.2620633366423894,0.24231139536565727,0.38075418828310964,0.48140126496963587,0.4612571912292054,0.6783633248386912
0.20258332561462317,0.03358999665731197,0.23039731307116337,0.1953605324438487,0.359573609305855,0.43349364268237256,0.4247804717966864,0.6120986899295433
0.1674625673260017,0.022178160277626088,0.19144255176933983,0.16487548796438461,0.35627116725323416,0.40974933229746324,0.3797516547090609,0.6558928794058971
0.08550133075375697,0.02900327533632234,0.1147857701772525,0.0796925402488705,0.25779090001274646,0.30069425196329685,0.282635838153879,0.52384132499366
0.1666483633182933,0.028524182295257886,0.1934191277823233,0.1637344919648633,0.3105982274168984,0.39332229556004206,0.3827351679638635,0.6200146341674849
0.2004649517280191,0.009376764542972559,0.22290672630229658,0.20143781694534918,0.3623264844327174,0.4489070371661981,0.4313551462689273,0.6041797365794459
0.17934978645822408,0.03704462147449698,0.20671997003909826,0.17691042870125578,0.3346882491343159,0.3926956414936147,0.369432563547482,0.5627245667669345
0.1328389204469285,0.005826617610595823,0.1649695080081681,0.14131086155628747,0.3221998625080955,0.35482679613221113,0.3535853331032832,0.5266172976142728
0.11610822428880917,0.05009449674322265,0.15450190140111925,0.12668892264938875,0.27311132930851867,0.3166490284579021,0.3142936543092155,0.591905010029375
0.23673657279310628,0.0464439362133828,0.2616598899762475,0.23510566464386806,0.3997101188421173,0.4604284197282574,0.45725774291278964,0.6277010004074834
0.18491464023696794,0.032161755857350774,0.22317065919174456,0.2003205179282634,0.377023927758032,0.4116894201495474,0.41773227218715125,0.542540516932136
0.14916332369203222,0.014178553539066321,0.17958649500486867,0.15217030763285389,0.3324528158421658,0.3787577262666415,0.356795514967645,0.4620484394483481
0.011015367353864252,-0.032337059700446424,0.041396325559185765,-0.006460578655679949,0.2770205929817465,0.2891537635593807,0.2734292868434087,0.4223436007116775
0.16377107827993517,0.018832235044348722,0.17233963630356963,0.13104760018542444,0.4022852491412332,0.4589352934439016,0.4315786253184874,0.580594679868452
0.1737723179442728,0.05385138255931829,0.18041094567476146,0.13766899834387653,0.41863744293664307,0.4674561379240251,0.4409772520218811,0.4043163140459163
0.14988251881934084,0.05855142898924076,0.1551609335849694,0.1247491018279425,0.3763673835952392,0.4340962354306708,0.4122872422448633,0.511392282481808
