-0.024065768161241893,-9.866302266047019E-4,-0.024252515875982525,-0.0405539809807181,0.020397922004428883,-0.05472918345051382,-0.021913529717335123,0.003192703031486918
-0.02100157280560355,6.658415467880619E-4,-0.022800581227171355,-0.04158203794429169,-0.005209418883305039,-0.008086379125789037,-0.025818410287603663,0.020926556196159133
-0.00972178776118648,0.012997358748376158,-0.024954152350782233,-0.03630437583072247,0.0021003163845091876,-0.02587531451840151,-0.017919887760915805,0.035046275426472095
-0.017387573413156818,0.01875139614944516,-0.027198098767172135,-0.021623882240724146,-0.03509797760355989,-0.029594442937744096,-0.04004171779333991,-0.018277699550660383
-0.023600591569218097,-0.006759642897414965,-0.02606201359641741,-0.0333925599628523,-0.014613673047088424,-0.035131119566490544,0.004533652096721426,0.0019250686259699773
-0.021059551316100933,-0.004198463845125618,-0.032237203909456995,-0.036752901314649554,0.016755376106697445,-0.02904011308959661,-0.0186902278327005,0.0022731027324578977
-0.016309205385240968,0.012998350637267309,-0.023745202747866154,-0.041116633009952004,0.012058016131264927,-0.01131420790581407,-0.012536984604267656,0.017135335624651294
-0.023808333136149974,0.0033815795420214264,-0.023668180359010475,-0.028770307422459614,0.004927980623007575,-0.014587567098565735,-0.01586402841523443,-0.02403907767028523
-0.0286246604510712,0.015572804880768093,-0.019444646757054117,-0.03861805194411577,-0.009873580134137161,-0.011497131482509661,-0.025638337939150338,0.00463530653795989
-0.014397288308948195,0.0045545625784017794,-0.027253352279439032,-0.031807654254814105,0.006796990786075147,-0.0338481644173478,-0.025722296347049024,0.013415704029353987
-0.01425685306957251,0.008126323090723666,-0.020063079447235732,-0.03749769325166437,-0.006812271985688915,-0.013472395992664539,-0.012205060047452344,-0.007640909973557197
-0.012124334053837869,0.015264885719676928,-0.02242304818954553,-0.033635788722727336,-0.009765254395619599,-0.010815222118217924,-0.0272604111574214,-0.004225157431526631
-0.008593274770767118,0.010497597459890717,-0.030048265770728277,-0.03303807391828368,-0.016419115012823667,-0.050838698684521955,-0.008731252165344367,0.05702234046847733
-0.01992777350806086,0.020217218839514953,-0.03186691470231143,-0.03710042519732539,-0.022121079320158853,-0.027225658535092925,-0.01383251266739529,-0.03148298961058418
-0.02989504615391763,0.005050209950505694,-0.020850427841783162,-0.031906054935484755,0.010138265293464808,-0.0521258127387568,-0.028529573044024807,0.008195831285620365
-0.02337378498922539,0.004236237538232872,-0.019918352365852657,-0.0372341536298388,-0.007859317952995664,-0.04790096246869165,-0.04907779795770557,0.019265005172538062
-0.027545328862125542,-0.00909469897604839,-0.03145470485072349,-0.03796212066613796,-0.0038536432551666577,-0.02285497517679772,-0.03214869829609198,0.02278877807744116
-0.018293569199407403,0.005914067159963172,-0.02950542940121648,-0.038395714641756735,-0.030702488242043628,-0.04144606992474191,-0.008212094422622817,-9.072019760960463E-4
-0.005993164092434233,0.016128700815201503,-0.0284507888759324,-0.04691200810370383,0.004402497176374565,-0.055686808019276605,-0.0024626387974523082,0.034171567557690186
-0.012316121881229701,0.010835571242826015,-0.012781470719986887,-0.03239027938893241,-0.03850198987073327,-0.02544364844083773,-0.05381344639360864,0.003208465863993257
-0.015743808032175743,0.010313902766088342,-0.02595020899364551,-0.05215346232378961,0.004309871759084992,-0.0572234342683088,-0.03662643494584114,0.02212414732259452
-0.021047710359288666,0.001922268755874916,-0.027602309287344893,-0.03937503665828374,-1.5822432247793655E-4,-0.035551602965989484,-0.07190075414542607,0.005043001732792407
-0.018830116065821457,0.02624026921316782,-0.02752852473390573,-0.038732505592127243,0.0031298158609600808,-0.048776411026312166,-0.05406082788185658,0.005796829437467628
-0.011282264105278446,0.028332068269091033,-0.018997417437785564,-0.03214319276631547,-0.013804184137204599,-0.023591918051138812,-0.060427383199376884,0.019940948331413945
-0.0135198369248427,0.002694720673055793,-0.01824175792412632,-0.03948359386509348,-0.025343860415102486,-0.030867864555811066,-0.028717663521802404,0.026906374503534013
-0.018540413365816327,0.0066270793814018,-0.02473834225626919,-0.0373803672636651,0.005787455560450788,-0.023581474846045412,-0.03975069423918865,-0.011519953520014633
-0.021364046796586558,0.03120422519058099,-0.03160609757015053,-0.03761493874802131,0.006469350167478965,-0.02392509645666544,-0.0059331884155446185,0.041678582021487935
-0.015580908688076918,0.031337252796417046,-0.025399846288285524,-0.03267943111696937,0.006455917299898529,-0.02215838261146953,-0.03926776044189931,0.004159235199425293
-0.011318283387091697,0.02052134701925951,-0.019226303883455833,-0.03731459651345062,0.007852797613967469,-0.00581956933042092,-0.01898369007822212,0.020007327623471016
-0.013373742138687252,0.02798145759498283,-0.024791225070594607,-0.032207568358335534,-0.0038501400664401955,-0.0592966806785544,-0.021633725427768563,1.1697774828926888E-5
-0.019419052770431995,0.01011535408491765,-0.03119692466768406,-0.04080749912343792,-0.03415351478259924,-0.028240846865344216,-0.04234940147268884,0.034029826025332714
-0.02417586216065167,0.029541701434845122,-0.017173206221592588,-0.03541704866619625,-0.002733831820551927,-8.366121173583635E-4,-0.036044202646647115,0.001081517731483391
-0.012270174578913655,0.026919382166625188,-0.014232724800579164,-0.04603738029976227,-5.097765894820382E-4,-0.014256338035917835,-0.020274355417515797,0.04460630465249755
-0.026580289807413043,0.01930021946911977,-0.028079616207236608,-0.03931317007337633,0.011566882758630694,0.005806186806800562,0.012324379067823263,-0.02589401199123794
-0.01940069351317766,0.029428548641823912,-0.024406567469758302,-0.03971181988767473,-0.016263417620599484,-0.04193055937125786,-0.07823472348763647,0.016001907255374086
-0.009295892034234055,0.03779712320993322,-0.017875929742101452,-0.034728132159460946,-0.012496496808501817,-0.03384911846112062,-0.029938219411231298,0.03845021052463366
-0.01691942658112164,0.035824310010359975,-0.018236608598909083,-0.048382117487664175,-0.028145604943103357,-0.04147036263013376,-0.07103345491676066,0.04260639172265501
-0.011007652194370542,0.022441369587358047,-0.021055818232404322,-0.03679416626888839,-0.02874702284048697,-0.040019623104931144,-0.018222739115688686,-0.006771371485357403
-0.012617194276073322,0.014961495230826174,-0.021074734270174235,-0.04436794345470529,-8.004060827087613E-4,-0.027131363390848012,-0.042426600867251495,0.0028347777361568526
-0.01867326181122649,0.008769955091623543,-0.02500367604088285,-0.04188906408199981,-0.005584913799046249,-0.052313956722804845,-0.030078803045640617,0.02293536628443924
-0.02402017144650173,0.024681685580425824,-0.02051911593383149,-0.05054359797246319,-7.509570615353904E-5,-0.04151192455607078,-0.03825247010209067,0.03533351319631949
-0.008127361408941313,0.021645254775837966,-0.021567113664236522,-0.0490736653121276,-0.004635036915936921,-0.02249298837268124,0.021799646413700146,0.019777581253670094
-0.013921156271108364,0.016395736684606425,-0.02638810247985832,-0.045145761730424686,0.00979852691064202,-0.0489612597933414,-0.02285432369289868,0.01887541340534759
-0.022594078627736946,0.01423546709457074,-0.03011037426404291,-0.05862228852068112,-0.0031697145416403312,-0.056839818583136706,-0.04687944352705944,0.004379812318663998
-0.01728490883232529,0.03241660172402735,-0.02194902201550691,-0.0419494536434697,-0.022750786237073453,-0.0199614713975629,0.00791838838852108,0.037000068877663064
-0.010206404267430375,0.021703640355244986,-0.022919364214157696,-0.05091953000829031,0.0015528125230308636,-0.02265080912081557,-0.008557267931265187,0.019520934115442066
-0.024446830947513817,0.01674124056598794,-0.03591396924001391,-0.04339352509907322,0.002551822108457275,-0.03526607927985614,0.018077763308600586,0.010872541159315385
-0.028660814482068517,0.015192280648686416,-0.03258760584875914,-0.04554855675469739,0.0022994693721136287,-0.0468916149985365,-0.02561278876864693,0.03353163888977726
-0.016399633252385838,0.02461274061122931,-0.025571878868496833,-0.042926891805151766,-0.006147906234349937,-0.03943724431270162,-0.012943230667397953,0.027201499134904876
-0.023852046581949886,0.024034917161322132,-0.03216834214969888,-0.051699225294415514,-0.02337735977157816,-0.04923218098604359,-0.014087819603972596,0.001164985725242553
-0.018607705579926886,0.019677664411963076,-0.02752030546274691,-0.05965409418060841,-0.027253942509620224,-0.026941960065173166,-0.03089285922853668,0.03878575375397262
-0.021523501344995512,0.0018298230274355668,-0.028966404561248375,-0.04720760080180675,-0.0019691175786466543,-0.06877696224014446,-0.012683757034717835,0.019462273045902846
-0.019173169988717768,0.01766879504000423,-0.02700228273936199,-0.0509203990703769,-0.001648284395390719,-0.03996937294572848,-0.028498515397012546,0.01778063674448212
-0.02778510171015624,0.02522894887129827,-0.028724151182092816,-0.053853580877803134,-0.015901807352099753,-0.04950207946913151,-0.013422665057912694,0.052909305296586655
-0.021689514943778947,0.01092391307304182,-0.03218513982745516,-0.04615350179431846,-0.010850039965501284,-0.017301933459488245,-0.024991222941179322,0.013138237832425547
-0.014812607752611083,0.007267583437080121,-0.029889707156129205,-0.052735529882689605,-0.014604606824478344,-0.029296327616547272,-0.032342877957525044,0.04471786605693713
-0.021606657078381584,0.0132785990313888,-0.04597648523920042,-0.05286095659107784,-0.018944500174509566,-0.04102046866358309,-0.04122850581175192,-0.012028208728397839
-0.023175216671123187,0.011208881817595258,-0.03284663656038461,-0.058325192324982435,-0.029949188391310885,-0.05187283193020685,-0.038785739255407986,0.01377218438855485
-0.02622671105103307,0.030444773955289398,-0.03525853494445192,-0.050929224459628546,-0.011804413201614471,-0.05338288350068001,0.017894227165311027,0.03490771973818672
-0.02580349175812874,0.003959933709680489,-0.04083915069343137,-0.06395875903469844,-0.007904877741019618,-0.03212395803145356,0.0020264931393914293,0.011593640590862686
-0.021711366443293433,-0.015431742957890621,-0.03838749497659125,-0.0441052403134301,-0.0431133046911963,-0.06300753031203674,-0.05435620362364755,0.018536565310169496
-0.020727695423952835,0.00537980945464699,-0.03258377523772321,-0.06474516831431462,-0.015605794637377914,-0.011729683665526179,-0.04536700387805691,-0.026457212277497952
-0.022194126480666848,0.01576204150067455,-0.03919891808966797,-0.062274392624802465,-0.0041409758188352555,-0.029649634900420167,-0.03470647693745229,-0.04208374225611656
-0.02829107718922977,0.008545157445170386,-0.03092267655245163,-0.05765573730655577,-0.03280287004977385,-0.028195371187039783,-0.03103901454675622,-0.01873890229818418
-0.030510907114521636,0.0029959285641450845,-0.033957427667275566,-0.059209927431010424,-0.014651434329365694,-0.04060028238032884,-0.037974446169983155,-0.001898013841185686
-0.033429703270943766,0.001343817691759947,-0.04188571175206221,-0.055927810491780076,-0.03213020013434686,-0.0250797261868391,-0.009593500380891979,-0.004787154098574358
-0.02840412238613269,-0.007823477714098725,-0.044816388347543736,-0.058250293632222484,-3.511842590753761E-5,-0.050646513211514886,-0.03982459433896236,-0.006366686957054263
-0.026994327340680656,-2.6564456430779723E-5,-0.04455394000160448,-0.05921431431887086,-0.005385424863824434,-0.029742811421440366,-0.04937880344342789,0.005607297077755277
-0.0278321381142525,0.012409315488475457,-0.04629961297201383,-0.061092718806758844,0.002954190416914991,-0.033329544788385644,-0.03017039172718981,0.025636452079178723
-0.030928079120944908,0.001613136376086996,-0.042219869080770384,-0.06674584137786965,-0.015437047930931876,-0.04266036577191589,-0.044327506833149774,-0.01549897699009716
-0.035785690926342324,0.0031266656568336624,-0.0407867589911203,-0.07818115319043041,-0.030485952130005704,-0.037266607061293866,-0.020583309977931022,-0.023449616573901724
-0.04097588318448961,0.014547322026075758,-0.04468881724369057,-0.06429385489628014,-0.01791242020699457,-0.03914845000561711,-0.04734680477301596,0.028323704125176475
-0.02821791684678028,-0.002732164597635455,-0.04015792481543653,-0.06146402365079994,-0.01953944617304283,-0.03871042294822617,-0.05562380934376317,-0.00561060387121338
-0.034666479805074236,-0.011003405438312798,-0.044976593729810416,-0.07473561328179693,-0.04151045385921651,-0.04210369511474072,-0.013597323540908679,-0.03180824867314109
-0.03665249210206634,-0.013202838217291585,-0.039818318268441455,-0.06940329785594426,-0.023952893714902855,-0.021508698760097162,-0.01002998560783053,-0.0558546550041023
-0.03858920415657071,0.016446275089771718,-0.044364226059234096,-0.07191227743067763,-0.02287643684570694,-0.03690103860976308,0.005365719326716542,-0.0467627360864277
-0.026257572632931454,0.017129651377710896,-0.04534134969424726,-0.057785747593805815,-0.03893058526264087,-0.02616327472635242,0.025034216998172747,-0.046446557762128
-0.04141332491612632,0.0021198826589280363,-0.0460294805917208,-0.06905177439900598,-0.01702122774494412,-0.056156417483884266,-0.004427975925535041,-0.01821232400571989
-0.036885159621037285,-0.009711910349933845,-0.04823528907637989,-0.06995437811738282,-0.007694073611246945,-0.050441185770992665,-0.04753276791339284,-0.02521642575489924
-0.031074135809133638,0.011000422241581131,-0.04206569126376059,-0.07521121849593353,-0.02067821653647222,0.0014146223627847676,-0.00653164249052969,-0.001352964049710463
-0.03596821139190511,0.0070198168976304195,-0.03724745375318759,-0.06455449956252372,-0.021538004655292348,-0.02780946346528782,-0.0275619655640173,-0.02069207022748152
-0.03403415217355134,-6.383394979320045E-4,-0.04672038136349631,-0.06275023297057879,-0.023034341660606632,-0.025325584618359633,-0.019286781578649017,-0.032834706558173846
-0.03737969502790831,0.0026462052301998995,-0.039549527080027624,-0.06992588686098133,-0.0021056864421315595,-0.018497235421888768,-9.884904619458512E-4,-0.021586496134875004
-0.03868843192153789,-0.011028206267980373,-0.04063454678377298,-0.07504702131246584,-0.0066344546677884865,-0.016759567237602992,-0.036832116493212795,-0.059501480441360166
-0.034331587569700596,0.008242989439511114,-0.05245001692834359,-0.06424642323147761,0.0014476653356458543,-0.010950050511259631,-0.05682008469011901,-0.04114129325797846
-0.02661422414186824,-0.005224351208518516,-0.04487473786131268,-0.06071326371232111,-0.011439196087356253,-0.03582071048183356,-0.04329199562057435,-0.0479369796939707
-0.039353332789475726,-0.004867694444533698,-0.04166839742112873,-0.07015796472333855,-0.030805663303010496,-0.0313921601035582,-0.010971726848947996,-0.03004535212524435
-0.04284059254602469,-0.003023862706005189,-0.05331160387207072,-0.07633439855035973,-0.0037418474590469094,-0.07439504310008363,-0.011799883085731254,-0.012002871977867301
-0.034193635918384424,-0.016981449965498555,-0.04760883356674822,-0.06438592994316991,-0.012760706651658965,-0.05905036532818453,-0.018911213718890228,-0.00643170388495775
-0.03149877535706489,-0.005061786264688691,-0.041840240154061764,-0.06263141989066578,-0.03006886881395312,-0.06127573271732653,-0.032924799717134974,-0.016250300988706355
-0.03995752976827545,-0.0018384707702555222,-0.04322510223271254,-0.06706493897303822,-0.0218763020409161,-0.026684607361469978,-0.016835878280771596,-0.026774081587469592
-0.032306398634101764,-0.014186510578920232,-0.04398911579316862,-0.06893496337692696,-0.04703165150134122,-0.033076786385020686,-0.04570594171822037,-0.010320186651636773
-0.035682833972924516,-0.014436144619945315,-0.045954334778350855,-0.06658590038235176,-0.007010069417188374,-0.03635323757229601,0.002231087431575355,0.0010480768058511946
-0.026309007679291056,-0.018077943626272252,-0.03847532386179415,-0.06223958079947307,-0.030963363944654793,-0.03601032317135367,-0.0317320803907296,-0.022221701276378212
-0.03166441604041516,-0.015548534223931118,-0.04492610980091228,-0.05353304026762762,-0.02547974939956819,-0.04139563166236298,-0.016094115547495996,-0.016908343770491163
-0.025172892117656342,-0.019150260674721194,-0.03667098493545331,-0.061858460970452465,-0.011597838247613082,-0.03856004109270802,-0.02461099641280892,-0.02548062294857941
-0.04427665155190992,-0.015066865083090315,-0.045276050040479916,-0.05976991735853587,-0.013625282148321548,-0.018882209591131804,-0.017509273334441064,-0.028036058095286694
-0.03127426765761011,0.01566899521750706,-0.03546225000189184,-0.06100511307701712,0.0029189355058479648,-0.014599650586837463,-0.00657740684026261,-0.031397870716084526
-0.01805001144833415,-0.0011429659246935519,-0.039335501231725224,-0.0680692310559103,-0.030233504071094958,-0.024520877156492836,-0.03195815949572662,0.011774323203592892
-0.040396603742327626,-0.014128802244609377,-0.04245772451045562,-0.06675987206639561,0.004251614265856678,-0.07325666968231004,-0.09431230869637143,-0.03907621032762131
-0.030578675616234327,-0.0268191868663085,-0.04368164727888524,-0.052124649157926695,0.004713031430706329,-0.032231038082714776,-0.04821010938136232,-0.04291219798861506
-0.024292105878526454,0.010537051544044789,-0.03635465601708172,-0.06811725769181974,-0.002714034325663573,-0.03173980792617323,0.026375108525707326,-0.014685513114521485
-0.031109558957875108,-0.002044212653703206,-0.034760047866289945,-0.06177238607537609,-0.002621916496957469,-0.03548021542617976,-0.036245486047109365,-0.01856424883386031
-0.037194430230014,-0.024773952015779525,-0.04658475755979493,-0.06736186014602302,0.018182675061005165,-0.04124715613182519,0.0014886949835118924,0.003322019364233229
-0.021937913895202242,-0.0174488043397061,-0.0427715917107511,-0.06793159996317132,-0.006544800604208079,-0.03210649355710685,0.016480259195930047,-0.023052252030783236
-0.028536299440132928,0.004683173223672289,-0.04250405322599881,-0.06393706530189114,-0.007471997323614784,-0.017058870757983267,-0.002691023610651427,-0.03052925605815998
-0.031932555059035625,0.002870237839895001,-0.03080471915799447,-0.04425967447280168,0.0056903545070526385,-0.034379852406204704,7.172811293079255E-4,-0.04568879427479241
-0.03296978241884827,0.004428005349863566,-0.03789041973176248,-0.06084575390151636,0.005049634535290139,-0.019789695681404464,-0.021683961946027338,0.016793993559229756
-0.026170620411432925,-0.013624523595647357,-0.04767935573742397,-0.059936387380477685,0.005752426243806389,-0.03347944674625076,-0.003929437612649897,-0.015988221438538047
-0.03149008468134273,-0.014545135974768534,-0.04195492292992757,-0.056518129113736534,0.01466184495358325,-0.025403254751011226,0.023509692209550754,-0.03130614756243251
-0.022035953977931903,-0.009351166689909868,-0.040537908097439665,-0.06707546313469137,0.013003339434778197,-0.021305607352051645,-0.005579583822426944,-0.027243483219159422
-0.035838085005410886,-0.005835338829261369,-0.029134773403531728,-0.06082364255542381,-5.976283740913747E-4,-0.04761680661933003,-0.03284810550476917,-0.013212418324225912
-0.029116630573833388,0.00820719955009929,-0.035965449586340244,-0.061357186666399686,-0.0026569069427199487,-0.017497690039862682,-0.022388776576698615,-0.024500877845060665
-0.021660314295274496,0.004322492316192995,-0.036732334399931565,-0.068066797793083,0.005377583415288295,-0.030956527645417984,-0.04219554178914771,-0.007271004551033036
-0.017633468122379436,-0.008062266463520408,-0.04360788941645775,-0.05123931031441623,-0.006016863959309385,-0.023906695884555382,-0.00751747670475998,-6.819043553526445E-4
-0.011604745773803063,0.010035009565518263,-0.03501155885789787,-0.053974108611808944,0.010348240477317418,-0.006971268213180717,-0.014148406219105373,-0.05135758600486978
-0.026477042109477603,4.295392669070686E-4,-0.03319796673347511,-0.05390816653352663,-8.538580394768363E-4,-0.02836991682244225,0.014835059038667163,-0.021381062215770734
-0.01827627099664926,0.007692928511669014,-0.04553314077958225,-0.05209084619179038,0.0011224242280131747,-0.01557094948061485,-0.03795156712787946,-0.006048020827420566
-0.015966464305287406,-0.00144013517688058,-0.03746459523465197,-0.05958231546434679,-0.0029046693125131477,-0.0201290200593408,-0.03307501482649028,0.005781608696236403
-0.029784998072523036,0.00806458674848033,-0.03427854421704685,-0.0470683617902832,-0.0034618381427249543,-0.03697298638269956,0.013909236900377412,0.020479935233192147
-0.028227524395623475,0.01207343268122163,-0.03784621106701853,-0.047354634796234696,0.030262462774152125,-0.018690682775516058,0.009721619448303414,-0.0033634088940323204
-0.01393150430898795,-0.014099268071469913,-0.045184022659086776,-0.04969855289709013,-0.01416996518594206,-0.06249544932717307,0.011667317105561171,-0.018229059177074253
-0.026558470023097764,0.008739680451371329,-0.040644635269321217,-0.0602839478494934,-0.01183538292687142,-0.034244389890540246,-0.021156960070710308,0.0058603876378442036
-0.0159807031244127,0.012065679529545823,-0.03854757370921344,-0.050090670454426466,1.0302295343357034E-4,-0.012700096604955689,-0.01665496461455075,-0.018323028456992466
-0.023484856537938487,-0.006188450325350702,-0.03328327367832676,-0.04188507138805203,-0.010267299210992545,-0.01752445016359067,-0.006544027007104312,-0.007964961656448354
-0.03120314207555839,-0.005882279247352218,-0.03576049980669864,-0.050360977466958314,-0.028883258939875794,-0.03522194192471846,-0.03733658994821813,0.014068116745385512
-0.020058492142496154,0.00749205947357531,-0.040575334188241434,-0.06052359854064732,-0.008085425311389085,-0.04346148654863313,-0.042793956920795934,-0.007702843760444224
-0.026469675671186115,0.012615339531304394,-0.03641665627016859,-0.03320991924952569,0.011127303480253273,-0.039689780248069656,-0.02153570096595397,-0.005828917418767587
-0.03105425487419441,0.010744574589759703,-0.029664386155702025,-0.030622336593170135,-0.007273359429449404,-0.037444299439220195,-0.00918610357400481,0.008081228054971986
-0.021050243876140833,0.015842812325124724,-0.03885536734965968,-0.03437822898402292,-0.021226834290460003,-0.039207743934389874,-0.01907225329095337,-0.0377568139956494
-0.03131710429306129,0.011312314714345888,-0.04506655363095988,-0.043267891029690676,-0.009277602234140243,0.019894587138661674,-0.01530690992631824,-0.006832882111945824
-0.029572058136387393,0.006632942831875516,-0.03608650701737843,-0.04341666820353098,0.0024848828129799736,-0.0382170392376137,-0.028069221005991716,0.012371829545591202
-0.011572783628273249,0.023711082714527577,-0.03494406757415763,-0.04712604194390072,-0.014118801119141077,-0.04314286145375637,0.004528091986182548,-0.029894715376965742
-0.023619766098894258,0.012096104783525867,-0.03694247449119798,-0.041795229156031816,0.006172343185916675,-0.052182498976938566,-0.0195151355171658,0.005861133027355199
-0.03919001602525245,0.002735863840124951,-0.03581141680356799,-0.05171701080326775,-0.011889398580694375,-0.04743199270109412,-0.026281154916327883,0.014021030058109564
-0.03131995635449561,0.011434603063949902,-0.03641600706838011,-0.053422195948232755,0.007360092621495465,-0.033206666045738305,-0.029712884179191403,0.007359951242719246
-0.021470404399358007,0.007015613307523499,-0.03491272248354816,-0.044207062220250094,-0.02710859014077574,-0.04425389201321271,-0.028737215421563968,0.012368097341549372
-0.03983977472460691,0.017212979441217136,-0.03982514381038724,-0.04377656916390023,-0.028402427950792057,-0.02951847127295678,-0.02145136049758234,-0.010626353277942762
-0.02443851989390497,-1.4673137741312168E-4,-0.032775309024565824,-0.06399527994185975,-0.012268035684859997,-0.023747367816371108,-0.01455841348723218,-0.021653330024629682
-0.028399750443405137,0.006160845912543393,-0.03856448629345166,-0.0546323862766153,-0.01853001794269526,-0.02314922893870603,-0.015081699988355663,0.0014965186348087855
-0.02581226169816496,0.03513575130916716,-0.04099659727080616,-0.047664923710859584,-0.02326261073960338,-0.049060823552649936,-0.022052857512572677,-0.006689547700002368
-0.0269017674213888,-0.008086886455288687,-0.03790638669528804,-0.04700678422868576,0.004560787900762926,-0.041535555678473376,-0.0019704968383709508,0.01610137865189858
-0.03382672368045604,0.009437454825512849,-0.043919381355715714,-0.056486942624014984,-0.02118294702677107,-0.05506248029205755,-0.010261589992603796,0.024185606993365014
-0.029461399437399942,0.0056947939817111,-0.04400614146092299,-0.0574213374471751,-0.022111837899864022,-0.05377379778003073,-0.03801854701681197,0.013112913357894784
-0.025491054717471897,0.006529335698029369,-0.04148378823807637,-0.04779619668842252,-0.029835778927482803,-0.03665893110957477,-0.04481654070545121,-0.01231926681750984
-0.03466042747600316,0.007283006924050739,-0.04101095910734998,-0.044502908676101564,-0.025177164021549236,-0.0634918809267742,-0.03629596922956505,0.013818183919872107
-0.02840083187112837,-0.003845188700537026,-0.04520592937658347,-0.05475107280022051,-0.021272642711835942,-0.03814834015811558,-0.0283313826261456,-0.02606494150642033
-0.0274221313576111,-0.004393403145389034,-0.045125542239270976,-0.043366088791698766,-0.01870421579959927,-0.02755727235945456,-0.018111210979312783,-0.03539416209128342
-0.02847674143076745,0.011501909609773906,-0.03587062730626063,-0.04891097816629359,-0.021653879135107672,-0.06762332027070345,-0.03977794253180153,-0.00188862217142001
-0.02656450873661197,0.012482788930047424,-0.04756801286556822,-0.055999049395020255,-0.031137942326893348,-0.02388047480802741,-0.04511451204817295,0.004953694279108214
-0.031870991926395247,-0.003456380019420865,-0.03836965095696434,-0.04902971428967711,-0.0420773341394884,-0.035318563734208844,-0.0062372664287823005,0.030608448814760665
-0.028877492443643998,0.013866017939222215,-0.0371543110013533,-0.051317916997275816,-0.03214271108535428,-0.044704381512130804,-0.01920720504230056,-0.01409945412849844
-0.030481170157722205,0.007208403565208127,-0.0436044850835271,-0.044814232411265614,-0.034653387830962695,-0.0650287524864156,-0.01394698002133077,0.019358562993174688
-0.0343043401915729,0.01436134506495722,-0.04535421555390833,-0.05265399171046452,-0.021646761018441017,-0.04456952702084475,-0.008701097792529611,-0.026292157849165443
-0.028514454705901436,0.0031945116534513266,-0.05166944172481827,-0.05497368020559673,-0.023705289394640696,-0.06292825075474098,0.010353295640225408,-0.006445503734310169
-0.05055050764557939,-0.005201678610945902,-0.04212712044068004,-0.052078769627767404,-0.01854670163624633,-0.03638702244882222,-0.05675891256203923,-0.013062214861076622
-0.031439363415321234,0.010540521926432041,-0.03903007760712413,-0.06461246549846877,-0.054821024537162824,-0.038607389285945634,-0.03432827006876104,-0.0070581343380149665
-0.04174218627441098,-0.009507527712102665,-0.041456854729784685,-0.06769474277687434,-0.03072033653593854,-0.05591989346401154,-0.059310075463309554,0.013101714486805255
-0.036007720377596565,-0.0020168843947564368,-0.04678260192914213,-0.0559997761084917,-0.030617501199787366,-0.03607376784760761,-0.027090693092143146,-0.025220300188905455
-0.04232053976321267,0.005448395745458733,-0.047764967633384336,-0.04925029078745924,-0.02251412974315799,-0.03988367115035173,-0.07326035588485605,-0.034648646571540695
-0.04298883976139463,8.522175347612869E-4,-0.039670229654633404,-0.05453695391623288,-0.025894263830544453,-0.050250492393590244,-0.06003500701634889,0.036663338669944284
-0.034493665808290136,0.004627967174793333,-0.043489693771198795,-0.051907195260437154,-0.029805076297375804,-0.02026611450996334,-0.032579301690648765,-0.014804483584521856
-0.043360515990730014,0.007331795894020226,-0.04673215120220653,-0.05123005302740858,-0.02774843291132213,-0.05623142403589203,-0.061525829216299475,0.0059640403209460955
-0.04277681709240038,0.015685404826156966,-0.04701723401366421,-0.05638620182254945,-0.04793722871440848,-0.04690761540156025,-0.03474945213853076,-0.012919439619908607
-0.036893328984571726,0.023219821540630074,-0.046887674759480004,-0.05637971019410815,-0.04605633952513771,-0.03755237086007286,-0.030560027145126064,0.018622361029832994
-0.04590216215080618,-0.005728910265501444,-0.039669292715720075,-0.045084408296337024,-0.02611668244710321,-0.05188483980605927,-0.07369614533928004,-0.021848065706288146
-0.04101654369728844,-0.0029354095947078072,-0.04932664107210929,-0.0672401354135677,-0.03246150444505504,-0.025966387467800247,-0.04353762330129769,-0.042160044191757125
-0.036091633820922765,-0.0032159892389730907,-0.052415641178560464,-0.06069108670723655,-0.06587460552979697,-0.06455675478527385,-0.0786460989491599,-0.0011726021197763464
-0.044902979544484814,-0.009708943422734213,-0.05984532246291491,-0.06006453271909147,-0.036295795012112324,-0.06086342753276702,-0.04710485885437879,-0.0015133072076448846
-0.0422441358088635,-0.006715108552197219,-0.0559905380927551,-0.056844621502717824,-0.061167819750962235,-0.06198989632516424,-0.05058023899262197,-0.011870342592850148
-0.03800447461792827,-0.009485985651979336,-0.053317950826920986,-0.06530274176235817,-0.052255453487285525,-0.06324165303200338,-0.022453470739321045,-0.03261460593542265
-0.044051367931361995,-0.015265837276120702,-0.05601920669135024,-0.06344595309240322,-0.04130488734592888,-0.05353448499829824,-0.04021649203511178,-4.485483215287808E-4
-0.046731168680161535,-0.005772882248200906,-0.05015510001730337,-0.06059653417056464,-0.032911745323204185,-0.04136599239902164,-0.0432368500906688,-0.005071565361896718
-0.04283426366551009,-0.009633552341101883,-0.053791395117143224,-0.0670943695867441,-0.033211950369298686,-0.04409999196145373,-0.05773466269809749,-0.02240088739330613
-0.04142141972998229,0.0016435967846731873,-0.05983344680150234,-0.062439673337856716,-0.05012128951857001,-0.0815164852601982,-0.036765571645125894,-0.02332721682594169
-0.04697791822959138,0.012177816490281167,-0.0537901267598662,-0.0604507278019906,-0.05586351703382817,-0.03018694152190726,-0.07161959164570948,-0.017913332138831447
-0.045295485158437086,-0.007500962729664897,-0.051438822589015845,-0.06642242189294112,-0.047053919163292254,-0.06644834707819276,-0.060960721730334705,-0.028032976094232498
-0.0618916398574197,-0.005061475865045536,-0.06271774427453441,-0.07790682765809684,-0.03983495507551677,-0.05323788548707739,-0.05003995849882591,-0.049768668904303114
-0.04436516605092875,-0.008634248253190735,-0.06564045613972512,-0.0701817279908944,-0.05384280219238418,-0.05840386415510917,-0.0843747289776024,-0.01508918802765967
-0.0599916804619737,-0.01339542400442773,-0.05598907273369412,-0.0708334552769991,-0.050281077680238644,-0.04926105109206365,-0.07484883160463922,-0.08871843878033055
-0.05045333630700733,-0.00927277193516966,-0.05826419848890307,-0.08252369426063183,-0.03906462876817993,-0.06824714041942569,-0.06389414280718109,-0.01797106233243455
-0.05682475944761776,-0.01722099179053094,-0.0625425338668917,-0.0675898427201247,-0.04168054875276431,-0.06769709481382483,-0.07637298140571984,-6.219730478488463E-4
-0.045275739920971725,-0.01652250713483552,-0.05818680616267378,-0.0816355831010344,-0.05628781405704223,-0.032235877207179985,-0.057138302897745755,-0.028108665071861907
-0.056550107610957585,-7.130386628638465E-4,-0.06499625119918534,-0.07090761569550628,-0.06486897825749727,-0.07564386312069066,-0.08720552562728666,-0.02460151095479815
-0.047906492072304595,-0.005932472155129458,-0.061254497455579045,-0.07880118689910151,-0.06520062598957241,-0.07430163815609248,-0.061609714005339565,-0.039753022140627675
-0.05527474165142745,0.0030911156103254965,-0.06373386357462042,-0.07645968662491745,-0.057623593377600923,-0.07668368831990004,-0.11640544937943784,-0.015377871421004484
-0.05416621273699151,-0.017987309778526975,-0.06118732647910821,-0.08591164724292065,-0.023738964755124384,-0.07588937310180364,-0.062180767180814965,-0.00993876743598875
-0.04860593600170981,-0.01955926945955255,-0.0674833940684372,-0.07309531501169908,-0.025259509580760307,-0.055248791896406954,-0.057560205345892096,-0.027485558786199724
-0.06358097739662795,-0.012636188384796961,-0.06844966052293601,-0.08027006458452261,-0.05475876024669124,-0.0873294231738132,-0.04724190090237689,-0.02978814273044751
-0.054577555698998734,-0.0013781446192973842,-0.06225511065561958,-0.08229092439417623,-0.04932332558801855,-0.08363734802324845,-0.08649035668846351,-0.03719219316983722
-0.05489958592964011,-0.016472895788161225,-0.06261452291800859,-0.08054859154373357,-0.05804332897889504,-0.06626344308651098,-0.08404304637118108,-0.023243018027608555
-0.06315954434725655,-0.02067083870947428,-0.06206696608768959,-0.07680544398812426,-0.07498539706420021,-0.07565400317034836,-0.05596892108848028,-0.042823647613624685
-0.06124735305656833,-0.012379079022686158,-0.07045361687999968,-0.07564583752780658,-0.057259013327315395,-0.03932473983171456,-0.09412758946597191,-0.051537715366376836
-0.0431317980238557,-0.0029178525711945472,-0.06691036103895345,-0.07868269913837223,-0.05471830230132043,-0.05040946417802341,-0.0580242586465315,-0.038145732184209864
-0.047232327625402554,-0.0025023878148271333,-0.0612571384893478,-0.06631263161467521,-0.042289657479341415,-0.0716959560024752,-0.06387769183307344,-0.04254994171508176
-0.03879830073932466,-0.019252380836351075,-0.06378788567853251,-0.07252147762103463,-0.06275022670207195,-0.07539167533966548,-0.06076285431171418,-0.043861196543212494
-0.05818968699379216,-0.005015894550898435,-0.06257801322052563,-0.07614185167447032,-0.011844209892334253,-0.03115059853738808,-0.04985734399606795,-0.0045105676608514856
-0.051858275045866084,-0.005042639303319791,-0.05940272361355378,-0.07547772218034267,-0.0274329079567007,-0.0742527085513628,-0.07176598702259118,-0.051522519861875574
-0.06696165693470622,-0.019351592551818692,-0.054345072962975166,-0.055235995746235104,-0.04923696807019963,-0.10441041021034643,-0.049115048946248005,-0.04989476077510675
-0.04770408689719139,-0.014137317790311734,-0.05292505601599731,-0.06735699024321691,-0.03918978438635201,-0.051715168677945136,-0.06089010578917021,-0.025758857203381866
-0.058108532705991034,-0.007028097232047349,-0.05950342074348728,-0.06406767785220564,-0.046577691275456155,-0.055446470113868294,-0.05083922479127597,-0.045221253236281865
-0.05998485519568959,-0.0027297637052835625,-0.058602105327104574,-0.06027011405799035,-0.04208039687743819,-0.05570642435788421,-0.058164661351219796,-0.0694867672273664
-0.05662229046509033,-0.010650978349423782,-0.060468380526751665,-0.07393385204564491,-0.026688900249109,-0.06120248293872294,0.01278267222108398,-0.04294129510912405
-0.061766275802733805,0.006556106021022596,-0.06236045602383342,-0.056462175306776725,-0.04352083289415558,-0.057023954023655864,-0.02518778038145171,-0.07602246567884402
-0.05284751927183496,-0.0043317114719868014,-0.05362677540215119,-0.07655117750780646,-0.04583630034161968,-0.04596457076176577,-0.03224236600561751,-0.06999916061160752
-0.052126783588823083,0.01312004625152178,-0.060188360052817365,-0.06452210346169274,-0.041647625102053075,-0.037621028658884996,-0.04223746874747083,-0.045516044369566716
-0.06879490094148287,-0.004501248576884284,-0.0663394373529,-0.06967312935591313,-0.03036706186714479,-0.0659247740930885,-0.05867475970099304,-0.059535704295757205
-0.049805379319439035,-0.003674398237670878,-0.06116679650213905,-0.05226820580345306,-0.043597266091381634,-0.06532336014951008,-0.10732673409191543,-0.040917257019627236
-0.05959483440988626,-0.0024277293049504217,-0.05617805443444207,-0.06444206181776789,-0.06043902114501016,-0.0538234348883596,-0.06484930458890668,-0.020795776244514022
-0.05097938302036557,-0.02416457973161897,-0.0620377100572469,-0.06645039425455858,-0.047161226281812164,-0.029761631367233556,-0.04786893754301149,-0.04944977090826237
-0.05331736077698718,0.003523764839699386,-0.05804185070640648,-0.0576630137400106,-0.04088318585087442,-0.05052058132542637,-0.005322217758532545,-0.06306199999318692
-0.05339990785839559,-0.009210240439125461,-0.06603174059331879,-0.0663337322325122,-0.023465981767922858,-0.05641094470981474,-0.03926133013189935,-0.03866588697753876
-0.06481393955736137,-0.020965939934527375,-0.053098028319580846,-0.06762495468602225,-0.032583027122733664,-0.041512727772676415,-0.02968591685894558,-0.03825879128671016
-0.05581009295089621,-0.008529805803023411,-0.06466819459532853,-0.06754216016258775,-0.03936672115879195,-0.047574810942511016,-0.014496920667261675,-0.017817025154715053
-0.05771223832680421,-0.002780371418233851,-0.06095924970563827,-0.0730131622370247,-0.0599720966702241,-0.044892443475439324,-0.04558100309505389,-0.034052946042118934
-0.06219643680671189,-8.553635713459978E-4,-0.06021102483958313,-0.07145782836090193,-0.060667341891133215,-0.0878817392302926,-0.06851506376131405,-0.04381682831916187
-0.05765403321710847,-0.0012933921529675381,-0.06087517528964858,-0.06935564118444158,-0.07161074949441709,-0.06247141853403428,-0.048696726278575325,-0.09733743659969558
-0.06315901400093508,-0.012950873554447156,-0.06744045024415088,-0.08093956456648098,-0.03002233235416241,-0.0536510567050697,-0.04352977689946875,-0.03636770960556735
-0.05932798479266747,-0.012463947904607888,-0.05869864832309007,-0.08093202829479462,-0.031933907153495866,-0.07765959477602769,-0.014817271483987815,-0.044307390294208285
-0.05624178854469143,-0.003818685085380275,-0.06264737945205326,-0.06937849473676268,-0.04888916752712242,-0.09500931064890449,-0.07976559255410315,-0.025923731451184418
-0.06312648008929361,-0.004239792733423385,-0.07334540984621944,-0.0714976503142628,-0.031795234974634795,-0.047280294269962456,1.2299146517492685E-4,-0.0649599908180495
-0.06319482324840797,-0.027784500420575533,-0.06559932165917604,-0.07680591448023877,-0.023227376711716843,-0.06083351790180291,-0.05267792387572483,-0.04534874215112046
-0.048716036707758974,-0.020940369364318544,-0.062207488971860264,-0.06937403172674438,-0.0869071933441763,-0.05066095186956111,-0.06929957927501591,-0.0582640798546106
-0.07195317404518484,-0.01698973487475816,-0.060589287869146,-0.08642338926558407,-0.06218711551375895,-0.07868286276046088,-0.07672824990107902,-0.042707788590104205
-0.0675084937761127,-0.01598097165000217,-0.06977393069247921,-0.08333182485934511,-0.05784378499841103,-0.08395078758433691,-0.05690721393171729,-0.07190975056596065
-0.06713410691571729,-0.02077957294295343,-0.07204027354310402,-0.08358535356208661,-0.05859330422377066,-0.06969155394830358,-0.04890239126641047,-0.08130441046126953
-0.06384027236417182,-0.0012128006901715664,-0.06668949005887605,-0.08287939936811851,-0.05191041335119418,-0.078196617535863,-0.0730937387353565,-0.09755272021262783
-0.0637276836671541,-0.024162331321277694,-0.07016545163171994,-0.08290247104800834,-0.0610299007046483,-0.06848288822378305,-0.02076542993719524,-0.06013190898912933
-0.07156676638180855,-0.026536542630678218,-0.06669647810662685,-0.08860526718931598,-0.056107418207541414,-0.07654670888753366,-0.08438419680714784,-0.04245791421303553
-0.0711534391973583,-0.018590230225387843,-0.0721874818852193,-0.08426004197180545,-0.06833043322962051,-0.11965125581632134,-0.07352754619409535,-0.04523121704601835
-0.06731082109060346,-0.018622578665468705,-0.07819235363055183,-0.09177344576526272,-0.07730568438520026,-0.08815317946879098,-0.0704238187476205,-0.048829395640829824
-0.0706624521875942,-0.03954749240524761,-0.06596489429973296,-0.08829923028278619,-0.07503465456881615,-0.08718520449058877,-0.07387404699634274,-0.0847743091188372
-0.07805261741287958,-0.036162692413845086,-0.07189296931377315,-0.0868932459500147,-0.07614712444381333,-0.08445401277875554,-0.10347951553863638,-0.09386611180163258
-0.08502107074176939,-0.007545573250053492,-0.07418845339509555,-0.10383552420025725,-0.04954197740755453,-0.09581033158293546,-0.08542450049264146,-0.0589900296239797
-0.07639895735436457,-0.029202718043254704,-0.07473816703931521,-0.08426974206283723,-0.06917349013482621,-0.08409583661388179,-0.11672928863923909,-0.07972900234067327
-0.07651024974566507,-0.033761248947485195,-0.07384411404658923,-0.0857862077655487,-0.07172447886836186,-0.04804748120230412,-0.07683913056790802,-0.05863750989504896
-0.0850644049589681,-0.03636919478319601,-0.0809029503383429,-0.0885140369941286,-0.07795633417746044,-0.09633352600448322,-0.07190314295440896,-0.07057196103418793
-0.07812172338159107,-0.034909136450760186,-0.08736500577330933,-0.09285137307076144,-0.09694200004639256,-0.06625599939167559,-0.08424896244410897,-0.07535336665626091
-0.07887490646033357,-0.028022155071774565,-0.0744405092687663,-0.09161584978863545,-0.0727851057475849,-0.07104627586626476,-0.06767651950526553,-0.07106828794348079
-0.07514923355703154,-0.022979564317785646,-0.0814195356840306,-0.09788691600160268,-0.05617278556317605,-0.06614682669902933,-0.1149527079434104,-0.043057643820643525
-0.07842729618669078,-0.03451718653319281,-0.08064307673302631,-0.09081669031673259,-0.06562824065380173,-0.11002052699650887,-0.06425631174659317,-0.08625641537623577
-0.07872554191275093,-0.04901193304103613,-0.0829433208306799,-0.0993799328091313,-0.06245587184657761,-0.07587864828468119,-0.10866738783023426,-0.10795534953348117
-0.07238348414327879,-0.03297456377509447,-0.08459346685506879,-0.09216704846431469,-0.07090942624945738,-0.08440728144118835,-0.06787123407949601,-0.08004445493279266
-0.06913002666682733,-0.03097950501917656,-0.07816801517618205,-0.09919075449788328,-0.07157234451668357,-0.09640957806727025,-0.09615242512466045,-0.04538156735073949
-0.08543376283423688,-0.03906303590361823,-0.07975441306406339,-0.09690950639977543,-0.0726578571613647,-0.09294643282895013,-0.07540251265514303,-0.07758241019562458
-0.08285117115743117,-0.030312850054341055,-0.07840447875466286,-0.09192276648096663,-0.0702178805185394,-0.09013960089688283,-0.07706823810906094,-0.06918510704689367
-0.08261490777037157,-0.03132719025264263,-0.08227043077006975,-0.08736065013399885,-0.0746889447428778,-0.08213227566995006,-0.06876765016539942,-0.05754420151033587
-0.08176713998376632,-0.027784973070677406,-0.08196695336353203,-0.09243389181911563,-0.06840161016109822,-0.056422153983503844,-0.10703077304571439,-0.08875146759053679
-0.07738447615689704,-0.027494247266380254,-0.09144690320541785,-0.10819936668275365,-0.09070569241581107,-0.05448965974073341,-0.09058060290700747,-0.06735010621266502
-0.06630689837617983,-0.03505703756808842,-0.08379625789569688,-0.10163505568246141,-0.06664974438959245,-0.08261937197902973,-0.03598108967444815,-0.12114420631653364
-0.06795799050231642,-0.0400787773422275,-0.09197850044142994,-0.10942888324991647,-0.07326317052792174,-0.060566144738827855,-0.0873191640337968,-0.06916428271058934
-0.07527475470783299,-0.02348871864143869,-0.08993000314720807,-0.09626296940795907,-0.06663072783339628,-0.07712460317915844,-0.09909587839798294,-0.05192390827839832
-0.08506930181788809,-0.046164135222618245,-0.08258199917378288,-0.09904326007961153,-0.06001952270366502,-0.1080013332053387,-0.11097890378200218,-0.07620365355576574
-0.08268860922787355,-0.040742964116623974,-0.09043187658701095,-0.11102362975720967,-0.08437756023568135,-0.0861849979259366,-0.09112680206942085,-0.07311856968896151
-0.0864264860994808,-0.05859463022462661,-0.09272225352912522,-0.10497135189683611,-0.06536648559260402,-0.1004632541219152,-0.07047868166269274,-0.07374510622692412
-0.07546311361252452,-0.04269487673586356,-0.08849791848569366,-0.10183555695340699,-0.08139958405852693,-0.09662069404304058,-0.08538536878500377,-0.06848623189236908
-0.08313630164734609,-0.04899107441061849,-0.09361308916593268,-0.1044979342626805,-0.08225534557368636,-0.09966337302269053,-0.13500352020802767,-0.08308930869088736
-0.0945353220744021,-0.05694464742746547,-0.0883768198121338,-0.1229307742665725,-0.08697843520870241,-0.06873982512208392,-0.07384380114463349,-0.061774295873506496
-0.0875398946744225,-0.04954611141492413,-0.09446772288294972,-0.11436906739893313,-0.09597987023705479,-0.10573252289344316,-0.12321737414187377,-0.09061065460273178
-0.0765441102397751,-0.06957623305994612,-0.10444236399236242,-0.10613946128444068,-0.06994713414774341,-0.0872221035804317,-0.11851206504230426,-0.08575403262815681
-0.0824047961023441,-0.045876901999146145,-0.09845789985839871,-0.11190552353461239,-0.09090436523018855,-0.1177454095655816,-0.11030178954685546,-0.08981979115312126
-0.07954804268531317,-0.05310635018529205,-0.09016548715558265,-0.11023098005488711,-0.078888996003465,-0.10216850513042287,-0.12262909243774348,-0.0788697999382556
-0.08444727052103307,-0.050290825782579825,-0.10472450106513025,-0.11562368311001238,-0.09349191994247136,-0.09222697262535484,-0.0930729979635595,-0.09617275306409183
-0.09460354345581248,-0.051208278377925895,-0.09986199796835617,-0.1121520759421076,-0.10149099323091018,-0.0903013921390046,-0.08893515523488627,-0.08795508228536182
-0.08972083074353697,-0.04067690353371292,-0.09952785692103434,-0.10640010834737283,-0.08278080275021656,-0.11597369306371287,-0.08941276720807026,-0.06945154143911182
-0.09491049345320535,-0.05554582140405993,-0.10530083374785383,-0.12019895596991814,-0.11390830655537977,-0.08998672181912709,-0.09962399292941429,-0.11585765026064374
-0.08989402922948911,-0.06997908301273682,-0.10833166422309282,-0.12965250680359058,-0.09370764277055102,-0.10089843414919569,-0.0770905303124661,-0.10639632961706046
-0.08519468900712597,-0.05422045756792857,-0.10668109187331767,-0.12634138521058272,-0.09402962565831739,-0.09897490001435773,-0.08686141199341939,-0.09984474107629908
-0.09785349795475712,-0.05040932529696987,-0.10235028714724523,-0.11673552189249561,-0.05011356515472349,-0.10140228522281043,-0.09401053813995602,-0.10499458855680695
-0.08411261786419331,-0.047986002097415166,-0.1012171143806824,-0.11584002860468756,-0.08085348985861997,-0.10940879879448513,-0.109651632504931,-0.0935839422604432
-0.08264817289308563,-0.06525197952638076,-0.10430453880327889,-0.12183745915744051,-0.0814239481888836,-0.10861802437461394,-0.09916776254793674,-0.07018147212318163
-0.0796124801373618,-0.0813451439992653,-0.1067712071783074,-0.11935908436567823,-0.09070060289379119,-0.11003034659032114,-0.11385613758096416,-0.12293318662654525
-0.09711031279441248,-0.057246490343182944,-0.10551902005888,-0.13199498696080997,-0.09243622452979891,-0.11220101189302982,-0.12820162956961656,-0.08127751031688121
-0.10035549722974514,-0.05803545101791127,-0.10884286006802545,-0.1183610279390678,-0.10491588019933273,-0.11483499943210015,-0.11263888303490789,-0.08091349212146555
-0.09640742203536097,-0.04562496534547033,-0.10940870788830803,-0.11739028102108943,-0.08099669217794944,-0.1080987270726512,-0.1118873207246125,-0.0796991206907519
-0.09000860867514704,-0.04487193906764511,-0.1087290434525066,-0.13490215267805286,-0.1224489513603799,-0.11886285064988733,-0.11097852350530923,-0.09534406324132934
-0.09464405128510486,-0.055554624777179304,-0.10998008450305832,-0.12800142577823756,-0.07831867350575741,-0.11071860870409908,-0.0863210323129773,-0.09641934173155603
-0.08310227515701528,-0.044671691920335405,-0.10477538861865533,-0.11691646457484302,-0.08998880080520061,-0.11031994100746749,-0.12561868332294626,-0.14387696087311727
-0.09619292319908318,-0.050099779153779354,-0.10966929549080301,-0.12881041975655047,-0.08564590739286393,-0.1337363644663005,-0.15045556396936113,-0.11833876210375423
-0.09439574189814828,-0.04547098190103749,-0.10506180886335686,-0.1275412658614707,-0.0535983075058955,-0.10708610222742375,-0.07609594354400372,-0.12927269619545315
-0.08250516062569806,-0.031429853180633384,-0.11075728976250153,-0.1206900443647019,-0.08891486681028807,-0.09368661694204532,-0.07734696156603009,-0.11903933692326028
-0.08610397010039093,-0.03057101464583779,-0.1032064615632808,-0.12132630742119863,-0.07138958716296918,-0.0704855618881813,-0.06688293763012385,-0.1015175051229967
-0.10098776239639444,-0.0355388273346204,-0.10781405677733853,-0.1207135706722627,-0.08095026404452778,-0.0811757007394843,-0.09397123457722718,-0.12590024761270519
-0.09111394687877646,-0.04498414889319687,-0.1110954245688025,-0.12208384828817342,-0.0783262026122483,-0.11698926941218969,-0.06268932129675997,-0.15089949346423032
-0.09603996319871506,-0.030962132163145074,-0.1024125741481538,-0.11057303152486524,-0.06508470072615893,-0.12990360194569156,-0.07012157387842222,-0.10950696598919142
-0.08458070271451121,-0.0302736659526289,-0.10657796170729264,-0.11919285887055692,-0.07140996318156428,-0.07431359439169544,-0.07528134559754858,-0.14756666249447523
-0.08751267669462064,-0.03594496048417972,-0.10836944139704892,-0.11608919922705001,-0.0789706026612398,-0.0823953744750306,-0.08101796366379374,-0.14876991543334128
-0.08981262494752185,-0.04389757884310723,-0.10897018231744349,-0.11264005471581419,-0.08058849149051456,-0.07519234967942494,-0.06856925353102433,-0.12668133625862774
-0.08767816720751904,-0.03490487747997387,-0.10594516672434032,-0.10571275803252844,-0.075799058407407,-0.09707509150344526,-0.07040032687202094,-0.10494856320138224
-0.0837581600177874,-0.032840450360249795,-0.09689392804371262,-0.12069197909314933,-0.08208952524348637,-0.06841529756863288,-0.052314658432539594,-0.11191993920793168
-0.07895115868833393,-0.05459645029274949,-0.10485629884340238,-0.11788529550364245,-0.0713083216706888,-0.07561519881795084,-0.08526732767967717,-0.15248595083423064
-0.09553061411714009,-0.05301710220091548,-0.10593555327562817,-0.12224236286464407,-0.0606486599913478,-0.10310300618247713,-0.06193618208887718,-0.1458031962991266
-0.08094780525429549,-0.049147839431360196,-0.10269286028860973,-0.11302059586587468,-0.07086485013155897,-0.09958764110462702,-0.030633878253611795,-0.1539841889601671
-0.08423955799332575,-0.04368415971034897,-0.10443781482112859,-0.12218948895170431,-0.058017548679376,-0.08498252378030852,-0.04978217463617798,-0.140538774221142
-0.0918650200191914,-0.05677667508595755,-0.10954457801469202,-0.11721736729287024,-0.09491996066984838,-0.07673198124565794,-0.03334272922394863,-0.1281262935402352
-0.08760083672497937,-0.04709929422319592,-0.10812832355451157,-0.11882601016887619,-0.07238245569189874,-0.07680542833904085,-0.08285789254658474,-0.13429635730687142
-0.09764079336163128,-0.05222675817585397,-0.10924252545661944,-0.12550618408833392,-0.06509339273975077,-0.081113567905549,-0.06686605787921183,-0.1483501393076964
-0.0808946710139739,-0.05508763888005914,-0.10047409204308051,-0.1250161776948521,-0.08581386180269752,-0.0924332598438206,-0.027496605838963427,-0.14780112541709217
-0.08661698424222207,-0.04355493404587274,-0.11035925624905794,-0.10575875670196164,-0.07912946627209677,-0.09523447925773078,-0.08939512574932378,-0.11047835612363671
-0.09039375899278819,-0.058281802583336074,-0.10853063177763422,-0.12992529347985626,-0.07740547423539053,-0.11461512897503984,-0.03996803730896295,-0.17042607850917194
-0.09719051331860255,-0.05057882653291804,-0.10735398286074999,-0.12322337922084779,-0.07574837465989333,-0.09197604210595414,-0.038961237819815406,-0.19741970564579822
-0.08707613971616919,-0.039164630876457954,-0.10915888958777205,-0.12468823703189957,-0.06252685245993297,-0.07463811882096058,-0.0904865168819334,-0.1909838503773648
-0.08391457863761688,-0.0685094558551885,-0.10709164534826748,-0.12227303468049827,-0.053865180061358334,-0.09558004592632847,-0.01996574728850852,-0.17323760690252404
-0.09060530741594995,-0.06887692070495222,-0.11111932263153558,-0.1459607616863218,-0.05560732914369799,-0.0941009956696116,-0.04638815696397657,-0.20422611473393146
-0.09379120819883353,-0.04975068300690353,-0.11471653877921427,-0.12069614865475461,-0.06317290724232401,-0.07300546289145123,-0.0067568137745938825,-0.18040558128101064
-0.0833058191261002,-0.0458411891382889,-0.1095707193845207,-0.12358298950339544,-0.06659709439424438,-0.06955214706026687,-0.05969969198082595,-0.20876264554427784
-0.09315341228473505,-0.048942220427705234,-0.11127482873157737,-0.12063819270872853,-0.08848128930695821,-0.09729400943685777,-0.061450393117265224,-0.1729543848968635
-0.09176537945195398,-0.05174486408988006,-0.10974003491890855,-0.1253159888149749,-0.07993031015010706,-0.06846314775597691,-0.05787986202967693,-0.17924365003976153
-0.09694386843057262,-0.07937645971892392,-0.12119742736061802,-0.12850417187700333,-0.06296821305506928,-0.06518277877622984,-0.006286953558357503,-0.19572669559080963
-0.09890920200849404,-0.054419926493793326,-0.11470430208885102,-0.1258765448222875,-0.04231005168433318,-0.07499002920797058,0.038956770829470536,-0.2047816645549401
-0.0861210877864671,-0.05790903157426784,-0.11202977674385672,-0.13744832974492768,-0.051269039022137045,-0.07753565861262206,-0.0485118853721459,-0.18617982556402315
-0.0954714366886351,-0.06467665712773527,-0.11903466697918916,-0.1407542673903391,-0.053160889440418205,-0.06716187270329313,-0.01490152696513494,-0.19662540505211146
-0.10506528511707913,-0.06817470835795077,-0.11334615631209484,-0.14031109654162646,-0.03479749933997723,-0.058049357887340614,-0.02632225578135751,-0.19021549423804626
-0.09263353456517595,-0.048497155043530714,-0.11440886503765275,-0.13137784254645027,-0.07067447869750713,-0.08863732514761612,-0.05020239368077617,-0.15201061510206593
-0.09049951746396356,-0.05619057898910173,-0.10932530279201706,-0.1326150545674859,-0.033940736804660185,-0.09400020377988762,-0.06481751780505131,-0.18263780396575
-0.09401605048583274,-0.061296435866852815,-0.11389640984149244,-0.12823690709939253,-0.06184035191605709,-0.0931115245601381,-0.04345677477313003,-0.16095333697161388
-0.09232634066589222,-0.07309958052218621,-0.11987574279187047,-0.14209838139291878,-0.07204535469288527,-0.05199056738868347,-0.007686799391499573,-0.18361845630078577
-0.09725338289189493,-0.05193991433694282,-0.11709814478124606,-0.12349173391889913,-0.04986029647115993,-0.07213734857233127,-0.05060990256437063,-0.1736075262049653
-0.09169364761478864,-0.060691171022673636,-0.12385388812870066,-0.13888377548285344,-0.052635540639280616,-0.08829447562557813,-0.024253580656705746,-0.13072987063186214
-0.09246395590204688,-0.0679305425895447,-0.11505458951267412,-0.13166869222256447,-0.07457070931733951,-0.08767879556293466,-0.05540474696440574,-0.1731729823521151
-0.0912871139136772,-0.0770236330560529,-0.11422248394608359,-0.12689357026674658,-0.06855238628349028,-0.06887306809243458,-0.03535167600226241,-0.15709517318694433
-0.09134770938020641,-0.07669986114240558,-0.11354841204105329,-0.12387787217163036,-0.08211919787974394,-0.09664007880492205,-0.07036895659892713,-0.13670151842556727
-0.09133410107831597,-0.05347257459231049,-0.1105256440229486,-0.13094190992715846,-0.08624699548245501,-0.08637954884552153,-0.04251801137777381,-0.11097055334411281
-0.09350203459179167,-0.06472414255839515,-0.11264577676525954,-0.12260027968458762,-0.0739975417794051,-0.09853163487628025,-0.06728769817170505,-0.13058617203673423
-0.08626230570671946,-0.0734377151081467,-0.114215867094821,-0.14370582070863117,-0.05710960347217089,-0.09361621340084819,-0.0716853361670884,-0.12019424054786404
-0.09356693053215523,-0.05810785940868925,-0.10983336513722584,-0.12039331766954191,-0.058814846727969175,-0.09812863970254465,-0.1079413470677134,-0.10580544482607472
-0.08005045455864555,-0.06633403960071031,-0.1054556298657334,-0.1332087769680812,-0.07573272927335166,-0.07253248353639417,-0.07071435018764871,-0.171877892516636
-0.09407877958742196,-0.03757498810369144,-0.1135883633848067,-0.12663892631505913,-0.05414165028334761,-0.08617673468167995,-0.10283289915720492,-0.14824447264625518
-0.09909007362707205,-0.060829700968781916,-0.11913702433802738,-0.13478196248005825,-0.08049308765256853,-0.10399734007384104,-0.0963252237197785,-0.12702266125701764
-0.09875794732039107,-0.028187376515739007,-0.11181838378625013,-0.12572764062289912,-0.05737080520529523,-0.12470317152874026,-0.09035573446604067,-0.15064006478024572
-0.0865875441022068,-0.04211976295214661,-0.11120371260388097,-0.13767336877577527,-0.05617843553003047,-0.07074352677932326,-0.09399783630812837,-0.1298190663604957
-0.09916538759517383,-0.050558462685799194,-0.11442779408049097,-0.13526762779372034,-0.06913696581712431,-0.10171528928092552,-0.0898768564436079,-0.10436741844658202
-0.09690264036485073,-0.05215745866462792,-0.1123287297092039,-0.13199788753054645,-0.09230280685644274,-0.10463363586472868,-0.1004622576963242,-0.1464129054071334
-0.08695226207457558,-0.04639774049894325,-0.11550442353436659,-0.13386517348124852,-0.07247491075494543,-0.09896460599374034,-0.06946891760600515,-0.09516861808292001
-0.09785623167498332,-0.044006267585899685,-0.10484131121286028,-0.12880801599554995,-0.08356049562943793,-0.08705095333793449,-0.10016495164832098,-0.13116294481411378
-0.08571672792274745,-0.054778778277982484,-0.117851632590997,-0.12420462896274732,-0.0945290067003493,-0.09078174270721856,-0.08235359556833616,-0.12272490136673157
-0.09494036309339389,-0.04680100438791521,-0.10860271504049067,-0.13163832949836646,-0.061174676801395336,-0.08692280122505287,-0.051511173185506735,-0.18875264983148515
-0.09141301508476979,-0.045135356706507986,-0.10971259439177536,-0.1335242220041427,-0.09013010775516014,-0.07287490205093983,-0.08645240926269371,-0.12718676926243305
-0.09215340996231507,-0.050602360799104344,-0.10933985035900912,-0.10884010650088075,-0.08468678930289845,-0.10862044127042263,-0.07115058242257027,-0.1326483059053185
-0.08928268756104292,-0.06308109905602897,-0.10945190937816443,-0.12474782962852356,-0.08295201472636722,-0.10840769087952028,-0.117533571739538,-0.15285727278477837
-0.10957130639155345,-0.06423178681022652,-0.1144833717861858,-0.11690435261744186,-0.08953029911756026,-0.1110374099216849,-0.1122865023190452,-0.10882121595915138
-0.09391347885031315,-0.09375904123390959,-0.11943581218680889,-0.12660758510027503,-0.12055354169975228,-0.13418299520342505,-0.12880993555715892,-0.10306216334654444
-0.09785682345532165,-0.07337802256343338,-0.1194022158023355,-0.13671479588700228,-0.09202917292133575,-0.11589995758986983,-0.13626931912195317,-0.07235921641409981
-0.10023028759731474,-0.05716243665211299,-0.11334772636397497,-0.11807043847056214,-0.08641444301247546,-0.10614835198124412,-0.11730042153613009,-0.08013290700745623
-0.09368996782862568,-0.049279525708197124,-0.11424912496165503,-0.13069679719396393,-0.0906323703697114,-0.11056075532413656,-0.1559355836547754,-0.12047956609543989
-0.0977710533798296,-0.05569429458267773,-0.12102260456076526,-0.12353965579973418,-0.07542974405494111,-0.11909983409127596,-0.1079513246777664,-0.1527642885627142
-0.10152246871500449,-0.06932623669558424,-0.11933374473936822,-0.1334943485753675,-0.11180630730953664,-0.10635093261437337,-0.10153000690202811,-0.10125618839281156
-0.0980261455312242,-0.05464138781772635,-0.11588170648334409,-0.12896235953065074,-0.0805817789823975,-0.124370774128054,-0.09187697609777791,-0.10206456959893095
-0.09592482575994621,-0.0658666222265985,-0.11881236862712115,-0.130096292113535,-0.06070803390196722,-0.10861462823498716,-0.09914356761170154,-0.15860850023081283
-0.09530453566311023,-0.06182806320322206,-0.11944238650823354,-0.12192171355456898,-0.07846051434393067,-0.11812138530717217,-0.09787867064101752,-0.12098498701937463
-0.0963722498757049,-0.04168413815797009,-0.1067202037344113,-0.13269670838567257,-0.0881944158218761,-0.08601829201221549,-0.10396066364822268,-0.14473882828527573
-0.09936992334802305,-0.052706317170418966,-0.11121657813525407,-0.13130703965242846,-0.09275728720223107,-0.09051540997692034,-0.04072624314171078,-0.13646282938629622
-0.10364751975046908,-0.06904294240920644,-0.11524346967587712,-0.13222601401546163,-0.08306884463067007,-0.09996573789660052,-0.08934621623246373,-0.15229287521206192
-0.10913837224928466,-0.06250630594330918,-0.12072487677005585,-0.1306553433355636,-0.07061288490854757,-0.11792891911137708,-0.0902678791505262,-0.13081952849665485
-0.10150894738039028,-0.06367596620706956,-0.12268009631555075,-0.12933869285448885,-0.08143745138357888,-0.09040571556615733,-0.06579019327581394,-0.10870422487988214
-0.09681018721529133,-0.04718742290809295,-0.1169822053634999,-0.13348173318451567,-0.13312952731734645,-0.08657718719603652,-0.08973652059103467,-0.16581979015911877
-0.10505814606242103,-0.057419501465707026,-0.11291269826336911,-0.13502180476905912,-0.08934763956776991,-0.1141263145437003,-0.07330326231172271,-0.136123154616482
-0.11504503266403265,-0.05979442851684213,-0.12448622419013644,-0.1335713597580319,-0.09064438098720072,-0.11091208180595127,-0.09896528666713834,-0.13959469614506623
-0.09964005575706322,-0.0572519962966181,-0.11795708192412732,-0.1262146212162863,-0.08760693353904556,-0.09997666085226875,-0.07718582827752143,-0.09905991639497871
-0.10661643211580046,-0.04054305700537113,-0.12563168231498711,-0.13114253353840805,-0.11873226118080858,-0.09305304103209786,-0.10221435767574445,-0.12655222121188528
-0.10970229213571103,-0.07365879127353092,-0.12589197321607168,-0.13883101453737876,-0.09669210252367688,-0.09433351200051789,-0.11373802930366587,-0.12635534753862726
-0.11363872868515996,-0.07196917480532986,-0.12144962640357294,-0.14558467735956837,-0.05910566875814026,-0.09001939373763919,-0.09930100765702286,-0.13730899466218802
-0.10454525967184126,-0.06601454626639588,-0.1243801088942536,-0.1424563104958307,-0.09239280318480998,-0.08379875019750888,-0.05770064888166153,-0.13160517244093559
-0.10520627267545603,-0.06611820177851024,-0.12270000510924568,-0.14131735771445103,-0.09617990472539222,-0.09487662847738555,-0.08376508409793901,-0.14724263812846755
-0.10122728832939357,-0.05733956577385382,-0.1295253668565149,-0.13920409280417145,-0.07370119985023392,-0.12456771929339835,-0.03431733794255013,-0.1539306780971442
-0.10801738524366757,-0.07778513992009932,-0.12139191187852853,-0.1479958295302874,-0.0761346103397888,-0.13395069270408483,-0.07480506638691375,-0.15880646846121974
-0.1112091139040132,-0.08369620237168153,-0.1260955278413911,-0.15121876064042794,-0.06590162582188257,-0.08057867143134001,-0.06505459090945562,-0.13674913828016616
-0.10120582113909533,-0.053846826498783425,-0.11889432714635564,-0.1369868023837703,-0.07473463472156405,-0.09274409565487354,-0.10870463249017714,-0.12875362576736374
-0.10079623247816324,-0.05583210108097031,-0.11817769902591152,-0.13794405418022238,-0.0867115757548382,-0.14077505261061704,-0.06202802869319025,-0.1464439584745935
-0.10723743310838181,-0.07627650851038449,-0.12205773603686625,-0.1470620805584317,-0.0628693713224918,-0.10560885687491332,-0.0958756417297216,-0.17324991565465533
-0.10316855732949255,-0.08528359162478934,-0.13458614913912564,-0.1530228554223759,-0.07513666123990001,-0.09468833892518295,-0.07642914547117097,-0.13927066455723028
-0.09881369908888858,-0.06244745763198557,-0.12561441194410258,-0.13994189409580432,-0.074335977259008,-0.10273742108427741,-0.05199167630522313,-0.16686946781821158
-0.10930332754755986,-0.07079406563636961,-0.11781170762005155,-0.13936159497833747,-0.08287499065109057,-0.09439578620738355,-0.08275554066786324,-0.11887477699457198
-0.10038450623022338,-0.07161656545173609,-0.12153231127127677,-0.13807396038636333,-0.061483664326446294,-0.11442316494078926,-0.074460459843512,-0.1409405327193432
-0.10822548805887719,-0.08535297781834343,-0.13037352052620768,-0.1400556629039148,-0.06736130035819583,-0.09601024014916172,-0.08526354038076844,-0.15452445236292905
-0.10841921023423634,-0.07183681817736973,-0.13167311374764684,-0.1312839105364417,-0.0794751044476515,-0.09551166760495058,-0.049744667885565634,-0.12936391282248608
-0.10011225354419517,-0.07292091324982429,-0.12381141626768878,-0.1410551535783024,-0.08841512522918477,-0.09754125401484678,-0.12920957139792388,-0.1334980988629652
-0.10775227947781182,-0.06562920305600964,-0.11854265142909845,-0.14053203183762009,-0.07376846445607105,-0.10524287673205295,-0.09820663182576596,-0.17851729376292796
-0.10398171404248897,-0.058201103788183765,-0.12766085120593465,-0.13599871326357507,-0.09004369859879414,-0.0816887200972787,-0.08064174842776782,-0.17736761441112578
-0.10674843970868829,-0.07608856974781106,-0.1283170431090664,-0.13657176630445725,-0.07472645854379353,-0.08687474708168856,-0.05957530226512973,-0.14821889931712798
-0.1042619979268701,-0.08186512562734803,-0.1210184860132374,-0.14705381567498105,-0.08409607293610086,-0.11196231337293801,-0.10662877292570783,-0.15434005205257662
-0.10847582697159071,-0.08043571618932015,-0.11987230638482475,-0.1402644641618562,-0.08268408754887374,-0.08480147067213036,-0.08601512733749492,-0.15627377386288238
-0.11352851738929068,-0.08674553554031494,-0.12388007468884421,-0.14350129715581375,-0.06107200425886954,-0.09577796860103857,-0.036958787501686456,-0.18645178534306667
-0.10505958318829357,-0.08226761578151295,-0.1309734422353089,-0.14817049242376223,-0.07194037210835594,-0.058377099239641655,-0.059448302880245205,-0.1761611789347941
-0.09250889511056001,-0.07486115802442964,-0.1191748510182391,-0.14221514504138894,-0.06221208478001273,-0.09499891401761902,-0.08906410816235624,-0.15663051322799865
-0.10330540479163394,-0.07437486410726339,-0.1211802338438697,-0.12875031450831517,-0.05571209556839319,-0.07348045675895339,-0.05586933036272452,-0.1348872605428034
-0.10740408127261417,-0.08286886026071723,-0.12293155231295048,-0.13699747285380662,-0.04100353474826402,-0.08995606512743241,-0.09254885956267145,-0.1560901820880487
-0.1000934134934717,-0.070329247909487,-0.12708446691478245,-0.12961095457999855,-0.06609750126883508,-0.06965104762210338,-0.0854417256343964,-0.11850564939914031
-0.11032234622691678,-0.07163436886954969,-0.1191300954740331,-0.15301628853897675,-0.05321930110852546,-0.09476199742619755,-0.09236711992612523,-0.14270020820133486
-0.10785885927174788,-0.08225654806101998,-0.1233096456152518,-0.1369874901756239,-0.05892722443987092,-0.07254774196729842,-0.07628933405610433,-0.1877582464319505
-0.09313822094370366,-0.07208719420097424,-0.12163972942309967,-0.13398026557441173,-0.06097186365505203,-0.07666914850706906,-0.05392490192918514,-0.15622122236951846
-0.10330472154117498,-0.07391865040629134,-0.1274034704266763,-0.13612198882178567,-0.03400311325411917,-0.06014893462848172,-0.044496546638465403,-0.2093543386252877
-0.09755299714255891,-0.07998184600772597,-0.12507930045759755,-0.14155644224639807,-0.057977153154525715,-0.061491342975687424,-0.040402325254672286,-0.16222545681290376
-0.10248083679834263,-0.06557637740076061,-0.12097298163255638,-0.13601580959844342,-0.044156681866848756,-0.08261614810588046,-0.0204958747605827,-0.15541773212548896
-0.1048123104076727,-0.08294855498498124,-0.12143823829796628,-0.14462411609476444,-0.0538077200466528,-0.02631194138586069,-0.03218200888593264,-0.16402827974716497
-0.09889333486799777,-0.08190224053395938,-0.12292714178056433,-0.1330133283669538,-0.05199139667023305,-0.1025899874340435,-0.057055953732487584,-0.17094424040267206
-0.10544195795482897,-0.07723147060215602,-0.12159001957180643,-0.14240030448557822,-0.0645679875359955,-0.09632924702660624,-0.060464003530017456,-0.1561342673053344
-0.10445532618409491,-0.0671056508756048,-0.12425003505278051,-0.1292722737280763,-0.05954604523944051,-0.09045860976780946,-0.04702227435287306,-0.10239089955983638
-0.08506283290983681,-0.06544241197248293,-0.12152272243952514,-0.13604706467776553,-0.05031485217149666,-0.08506135128578615,-0.08978976345879999,-0.14285296746420675
-0.09838924579894757,-0.06698593232158127,-0.11947967702081413,-0.1458296015932461,-0.06010067409865735,-0.0604972837872879,-0.08595460777068645,-0.15018449360990022
-0.09420424071848721,-0.06944455586107437,-0.12452173584925498,-0.14968827892015973,-0.08461447281439805,-0.08348445302662176,-0.02023099875981452,-0.16785974293249112
-0.09906802252070379,-0.08511511564768898,-0.13120662491798996,-0.14498355085420805,-0.04469761910110126,-0.07147617714129581,-0.04951990764607456,-0.16425787418080745
-0.10027077407057859,-0.08918389148644337,-0.11924363772606601,-0.15185308030619293,-0.04583223895652136,-0.06749240069950342,-0.005033347604769253,-0.1740251473211565
-0.10464816177086815,-0.0780989938766537,-0.11042723067885546,-0.12701745358752775,-0.05825192576117155,-0.08971375695655519,-0.05603746990205786,-0.13103961261248714
-0.10274662345563257,-0.08408093121789326,-0.11689129701245213,-0.14397558514082578,-0.058674085334893794,-0.10214220305401446,-0.023335666801878607,-0.17291190235894793
-0.10453106889479243,-0.07001754302514292,-0.12102351059833041,-0.14388887088221192,-0.03685562703491277,-0.06570269238426119,-0.03343085707487263,-0.15898205865511453
-0.10695782972989988,-0.06972084512630955,-0.12314338657641227,-0.14506860867076612,-0.06196336406785422,-0.06757485995631714,-0.04046022581400296,-0.13468061445508456
-0.10008500302521763,-0.06733043601083631,-0.12005683368536954,-0.14134720602398373,-0.05489050615685252,-0.07767474325989943,-0.08110316724514474,-0.09581734250098996
-0.10304592261739551,-0.0669614933430417,-0.11511600040181094,-0.1346850485829959,-0.08199282935815723,-0.08881487937809637,-0.06991821641513479,-0.1360550493954703
-0.09847725058839549,-0.08760009583513144,-0.11954960257567734,-0.1383320482761434,-0.048310983886664986,-0.09800807775276056,-0.07871791200135798,-0.1290516091913425
-0.10682371839103648,-0.06840980024076286,-0.12215052769189802,-0.1380442506349063,-0.06421061035558463,-0.06673857923801509,-0.04715712412675864,-0.1671509020307188
-0.10117163682525622,-0.07397556667999532,-0.12262588994835585,-0.13453759219580844,-0.04762850363574089,-0.07482225756911272,-0.0542885542578743,-0.1763724719455017
-0.10313030930002338,-0.06921078751524458,-0.12238712048896429,-0.14597702989882644,-0.05948346703294657,-0.06755164725943659,-0.027247010971415214,-0.1360206816308392
-0.09533290014406541,-0.07052942756778305,-0.1142609130518159,-0.1359911960352579,-0.040175483172274915,-0.08058658733401619,-0.007704688256530052,-0.1575249626229374
-0.09721639302460512,-0.07667276903312283,-0.11857687959329521,-0.13371777324786963,-0.05026130361811206,-0.08729394679398064,-0.05122724811587487,-0.14003035549026213
-0.0976282864625246,-0.0574800505655855,-0.12322741733864323,-0.13675235212138726,-0.03455256695795192,-0.10596659012047485,-0.05475813461773916,-0.14489719193008668
-0.10279791205941831,-0.07716912617384551,-0.10948149012359029,-0.13942262445289022,-0.07598691820285355,-0.07073873959877815,-0.03711822762301194,-0.0847675591901238
-0.08769923602712544,-0.04161892439309061,-0.11400538259245614,-0.1430511814525947,-0.05253262871170792,-0.09495902100919293,-0.06338203050618665,-0.11397726879073251
-0.105449850121551,-0.07435741715560253,-0.12089921589874085,-0.13899559758593286,-0.0657958102328353,-0.05944248207954496,-0.09996613776225247,-0.10533393805386448
-0.09735142295192206,-0.07130769482170014,-0.11907045522307737,-0.13431757079867387,-0.05885318916072794,-0.09535307345428531,-0.07098293341473458,-0.15419017596672144
-0.0962774653249601,-0.06624887661549012,-0.1254947349209883,-0.13511951884805168,-0.03041982481614621,-0.08851049478500346,-0.0607397877026188,-0.14257633876355427
-0.09395674500452066,-0.058526245982410005,-0.11077875974162871,-0.13244402212481943,-0.05147196661972128,-0.08393160628799139,-0.04018108388202113,-0.11618429628042792
-0.09441784538562714,-0.06721234412427292,-0.10659425938682422,-0.13397290410467855,-0.06857082608498088,-0.08223295548695111,-0.06903833982186015,-0.13770166276505683
-0.09936906366219818,-0.0888206720552181,-0.11974800404736892,-0.1277744530761719,-0.06308622663347159,-0.05304194119373358,-0.05406499211482871,-0.13839280871134702
-0.10084525325513188,-0.07002748905470091,-0.11069794290853346,-0.1341101351928034,-0.08248772561022058,-0.055823487200432814,-0.08620030488437205,-0.13669170958720805
-0.09697302140252033,-0.0587800353794089,-0.10972574377534565,-0.13068298961451644,-0.04586761644223162,-0.05611151620739343,-0.04560177422584432,-0.11567924765790565
-0.10081667781037888,-0.05591570453833679,-0.10717842913358626,-0.1261430080806687,-0.06946364224868487,-0.0769889986837407,-0.02131565710469105,-0.13155002323443765
-0.09971567641652265,-0.057319949597914206,-0.11045926457687144,-0.12514500578714516,-0.049639205141956626,-0.08514926635262998,-0.08610767075541095,-0.13321035140020715
-0.09230225151832933,-0.08846031688540594,-0.11027128260496184,-0.12308180264858573,-0.04212754334352249,-0.08161340249035916,-0.0652162432568456,-0.1513485034928319
-0.09113710678143895,-0.05923360891859183,-0.10751522094810556,-0.13532069328969648,-0.018947507653019866,-0.0640454384174564,-0.06473952625435625,-0.1144832077617297
-0.09187598017965787,-0.05267971358063994,-0.10689309854403248,-0.12173263734627211,-0.03402865270922827,-0.08086841960177792,-0.04724733158272827,-0.13563802696437086
-0.09644367213192957,-0.062195268749885645,-0.10918307296589638,-0.12432942728854622,-0.03146456495213425,-0.07514157927975602,-0.05467973187321234,-0.11428885181263712
-0.08443732230903286,-0.06247225717688439,-0.10809176293377779,-0.12335893599000886,-0.05876813464992078,-0.08648107499921998,-0.04826309358316989,-0.15324860157832665
-0.09906086941210662,-0.05856448435899462,-0.10393881266375786,-0.1302639892920245,-0.023898994501172804,-0.08753894667298188,-0.023146340688331588,-0.11721053740896474
-0.08698954693492048,-0.06464776405166138,-0.09798911406398741,-0.13023941821496,-0.05404933512874986,-0.07667112420200782,-0.03629949475232065,-0.13153810031316934
-0.09512678341677193,-0.04988433120245711,-0.10260848302098935,-0.12262964176154376,-0.0706178023828746,-0.0629820730012051,-0.057905125006223135,-0.1294720734745858
-0.08749592843248245,-0.05964863354052691,-0.10413489363402711,-0.11854725880584914,-0.05132421382979835,-0.0969601853025532,-0.027978165090221087,-0.15641855126057014
-0.0993165098475251,-0.06442966830144244,-0.1074913627834016,-0.12115696877684376,-0.0466798713956446,-0.07033708287487178,-0.026457095998151284,-0.11042675832153045
-0.09019042425413118,-0.0687405393374754,-0.10540540770980839,-0.11493424040689648,-0.026450321888423528,-0.0799539782141391,-0.029924872749033438,-0.10660715018747112
-0.08609463618704845,-0.05060814914911183,-0.10392254393590909,-0.11055162905032458,-0.0475286746903329,-0.0824251498832536,-0.03303912993680785,-0.11589049123138792
-0.0918008430971168,-0.07555226453965912,-0.10950330171817381,-0.11777957263366691,-0.031397580135397896,-0.04737679587905772,-0.020895616357796826,-0.13616476239271144
-0.08147508059599033,-0.07198121341797398,-0.10222903193175298,-0.1165052709863378,-0.05215381272420961,-0.046011919669543495,-0.030075399199316212,-0.15542032131576147
-0.08699157211132105,-0.04217985583478987,-0.09926996778899426,-0.11849986056047149,-0.03922543128288722,-0.062476358114417076,-0.027532823189358156,-0.12289380393071775
-0.08203110582648619,-0.05622966974960905,-0.0902688619999432,-0.12308839488845866,-0.019177225676398835,-0.031666362519280115,-0.028906420558015778,-0.09260958441843363
-0.08835658715865882,-0.05988943427736668,-0.09460100389424872,-0.10247167217503937,-0.02335395480280802,-0.055880859734455064,-0.05452698942240477,-0.1067216275804777
-0.08651187427143961,-0.05710759585927805,-0.10060182811773434,-0.11427466345671725,-0.032363856566960746,-0.043509841436606064,-0.006757420476481231,-0.1445743609061597
-0.08262269439191275,-0.07355319777187008,-0.10157211926662074,-0.1143004911613957,-0.036439612038271285,-0.06296996541098605,-0.004375772181109753,-0.153370354633335
-0.08578146183869928,-0.06299582197704871,-0.09910199788580168,-0.10629806236861558,-0.02021394772686757,-0.05608978611081517,-0.009407402429077207,-0.13981083102189493
-0.08139595703471113,-0.0546437577043896,-0.10103516290307947,-0.10965056620428194,-0.054243188277556066,-0.05329687155134424,-0.020912286485992394,-0.13628834958792857
-0.08512505190617078,-0.04912429508720414,-0.09711043095463713,-0.12018182907000109,-0.027438413262785656,-0.022303244657101373,7.625503227379145E-4,-0.1638881342820511
-0.08400686804030914,-0.07797082622472563,-0.09855400155718906,-0.12142430699251057,-0.04542965449148332,-0.04140391384776256,-0.011591197165650553,-0.17083944295715003
-0.0890792378113876,-0.05532462117426809,-0.10319803316544698,-0.10928507090768327,-0.058353865634481444,-0.0542218307326925,-0.03272446078852138,-0.10227726099322502
-0.08346021593585658,-0.046703162450513376,-0.09031203426097653,-0.11179262612323551,-0.02886917082087636,-0.0828506591497611,-0.015089864054016095,-0.08648359140226465
-0.08093584735924805,-0.0528370692627111,-0.09804856660938874,-0.10278694604766579,-0.023353725512603823,-0.06726013078622861,-0.07136419423948365,-0.08003453527081361
-0.08017161746835227,-0.04835468059969606,-0.09562067648196046,-0.11348252740396853,-0.048645500747326355,-0.0695949270539158,-0.03423736919383821,-0.1426291731471572
-0.09605227338355701,-0.07601017585719864,-0.10121734085811054,-0.11080782310801779,-0.06182093160403851,-0.05928263689270609,-0.016078416443747592,-0.13993731939536724
-0.08885669048492427,-0.052239778009523806,-0.10321221153020878,-0.11178085917967784,-0.036318052476010866,-0.04665832369859495,-0.04587133058483047,-0.11522183889241545
-0.0882430410724739,-0.06090357944806829,-0.09419473221868657,-0.1128829639682368,-0.04815566557196937,-0.07983736630969168,-0.012773433266098888,-0.09212580137114298
-0.0849833434784233,-0.05303382828203099,-0.10535562149452327,-0.12210521931231556,-0.0438686701681811,-0.0739356538986049,-0.023980909181266538,-0.1057518257201013
-0.0875160918862295,-0.05508678082220897,-0.09875589463218336,-0.11847229909837848,-0.03764076976406655,-0.051754574451284334,-0.013342285484174914,-0.12428083181824745
-0.08648304613796179,-0.061892398541470314,-0.11164311808208459,-0.10470970581507966,-0.02407823904090404,-0.03454029208165865,-0.022790243278991696,-0.10342661423279689
-0.08617688231385555,-0.04540365408838735,-0.10332096056837659,-0.10854147335150652,-0.04768527639328345,-0.06537712152747534,-0.07373389081766821,-0.08005623764945492
-0.08139989663637723,-0.04705666704927721,-0.09687312806292632,-0.11113905135262508,-0.020104275815074162,-0.024969975264107325,-0.058761054533885575,-0.1071106544615362
-0.0910671262748226,-0.05432924594627229,-0.10210846732962962,-0.12002680092040903,-0.06085899735077703,-0.04757076964923325,-0.06413159444979424,-0.10071073584409203
-0.09625289287335849,-0.06021070172298046,-0.0963047036308746,-0.12316962986583195,-0.017047778220323717,-0.051854682563726925,-0.05216264368563532,-0.12162796317572552
-0.08450847578228302,-0.055181992518013055,-0.09842453355146341,-0.1304141068330178,-0.0357040572873863,-0.03493993935408647,-0.016353022982204243,-0.12680979163080935
-0.08011029491107911,-0.0497440429424338,-0.09440500166498066,-0.11177595176038266,-0.02905032455949179,-0.07380354693837479,-0.013244104454337623,-0.1282528864642234
-0.0803081238342165,-0.04868220852810949,-0.10213428348139342,-0.10978485561420036,-0.0437427635507321,-0.056436077556162034,-0.006150644532434518,-0.13246139268085044
-0.0892102967031769,-0.06450937861631735,-0.09785246821179665,-0.12192243861560433,-0.02942667262339237,-0.033991771793863985,-0.04796293649182376,-0.12710681176789212
-0.09293026430697371,-0.07385806047046634,-0.1077451659812067,-0.11308105363769572,-0.03047486624217196,-0.04928060058498716,-0.01120425387925072,-0.11042426702015705
-0.09022708512094746,-0.05172349785734927,-0.10320140441390133,-0.11998002803949324,-0.032784906299916414,-0.06921427518720359,0.0054854009561667244,-0.12054298074181216
-0.08731300119409023,-0.05077856747841118,-0.09810701929450276,-0.1236958184091128,-0.04879379455134758,-0.02317000867222425,-0.01569231985830735,-0.13058418578525913
-0.10476798897622376,-0.06512818462354865,-0.10234710038590389,-0.11658689774159092,-0.04663859789840556,-0.05838835886707659,0.011078656959165217,-0.10928548065873316
-0.08675618704573712,-0.06938569537527162,-0.10399763358115105,-0.1275244712211165,-0.05414318575045872,-0.07478554713524006,-0.011238838819760698,-0.06991142027437612
-0.09178575174038738,-0.072675942991283,-0.10782316943457411,-0.12746838503473898,-0.024319466125412956,-0.06988536951893286,-0.03631072235321789,-0.10922424776851619
-0.09483163929720774,-0.07221742850576181,-0.10295942782650798,-0.10672865080892532,-0.031060160544074067,-0.049193660350757396,-0.028680858753319372,-0.09470841585237857
-0.08872902749286266,-0.0755285595831448,-0.09656303978703706,-0.10782699761123993,-0.018465525466265568,-0.04637385845008719,-0.01980677511019257,-0.13732861720537634
-0.09004522911643673,-0.07972975973535107,-0.09327135528363922,-0.11947430231312074,-0.04742145196526358,-0.0710772464886675,-0.06130786903164924,-0.1217211512233332
-0.09608652158000001,-0.08308536059373381,-0.10626696560000218,-0.11947372969966785,-0.033020927605379426,-0.07144096745342496,-0.03947084432291629,-0.10880460869305744
-0.10004963809904201,-0.06876030813844834,-0.10965453299720973,-0.11469983534698372,-0.04088554821044587,-0.05678638214554776,-0.02292737978932019,-0.12739016786822493
-0.06938258164710893,-0.056060223793585925,-0.09758429435452781,-0.10443303648669071,-0.03838021835702736,-0.06664550805738635,-0.049291243886365806,-0.12998471623103464
-0.09114282238518333,-0.06477341288558283,-0.10597510348357501,-0.09755840876891414,-0.02322456901975309,-0.08384688162803097,-0.019295491677920575,-0.11449682796718279
-0.08476093329888744,-0.07549738171717113,-0.09939451240570896,-0.10880168839239217,-0.02875860982264804,-0.08099831233388184,-0.03625283349517951,-0.10879162497104099
-0.08305894422787506,-0.06950560733779813,-0.10307749148346422,-0.10974238528674825,-0.0435730271095082,-0.02213671823003749,-0.0029182539270796713,-0.07831683146073383
-0.076017394197137,-0.046292272328328075,-0.10005230853292431,-0.1062331925610248,-0.038449029883604685,-0.052924360628131877,-0.025714277358900486,-0.11361927215951842
-0.09154728927068025,-0.07501092161537452,-0.09954544323573855,-0.11338047285618338,-0.030450589122679582,-0.08651673563804144,-0.01112765164507909,-0.158821045752882
-0.08625900740213062,-0.06853099753207298,-0.10557582402670325,-0.1280444109355774,-0.02902265224823714,-0.0577201491019846,0.005139117645342378,-0.1465629920952397
-0.08968216859845482,-0.060641298117072126,-0.10512905811501026,-0.10694279226632031,-0.04969732958188254,-0.0628182113475326,-0.004192469687135494,-0.17549420738131696
-0.08822618913792032,-0.04149069952955776,-0.09200424994534996,-0.11753247162098973,-0.08008159529436736,-0.06711112642215515,-0.018296288478327715,-0.14933196824270356
-0.08865920788851549,-0.044229590177882895,-0.09604519991286747,-0.10572907054782664,-0.03452289936935976,-0.07172369717806722,-0.026671825436661814,-0.08695798014774106
-0.08121400388074267,-0.046456725585982114,-0.09225953444802402,-0.11004788284104661,-0.02616984497370112,-0.06346348945557335,-0.0772216431436337,-0.08618854461608554
-0.08947660734049123,-0.06235597203243981,-0.10401361833296414,-0.12057573734595824,-0.022688908239799074,-0.07157855984737868,-0.0475299378269784,-0.09918193947431674
-0.088746486701197,-0.07436590962228966,-0.10149376321310022,-0.1011285742987458,-0.031194585378702695,-0.0486302664041763,-0.0017098486573219214,-0.09003009637804876
-0.09001718573326263,-0.0625826747209336,-0.09655090270783463,-0.11479714319459576,-0.013230006611012531,-0.06992318681873379,0.010661407773750159,-0.09203541958547126
-0.08896883716431347,-0.05905311812630376,-0.09177641472323218,-0.11861276219932686,-0.027658327795031662,-0.017592108891421505,-0.015917105027541897,-0.1343290211796712
-0.09083255568235125,-0.06142364204253082,-0.09791025743936596,-0.11868893079917495,-0.03406913879434596,-0.08682802702141185,-0.031298757102900504,-0.11255331652569366
-0.08435793760659775,-0.0732504055245736,-0.10087480099722974,-0.10590596563711424,-0.034466791821989376,-0.04414798696037605,-0.011943717335392857,-0.10084487662996233
-0.08025218814914593,-0.04856742631901695,-0.0905266366036378,-0.10821075617966473,-0.03648223620681981,-0.08024135300625969,-0.02616176721793315,-0.07427709799219544
-0.08820395208789118,-0.0731069107200665,-0.09579659125238661,-0.12488810076177495,-0.04994151442138478,-0.08661540776068014,-0.014728755857739525,-0.09377533637657826
-0.09447633629900591,-0.06803181811976959,-0.09538681141096463,-0.11517540327093462,-0.04619672850119634,-0.05396282343318293,-0.011179213122340654,-0.0976245216766655
-0.08686689164275536,-0.0574158127585208,-0.10136079247822456,-0.12066184030200884,-0.05457975557574208,-0.042666577435514455,0.012065364176709248,-0.13776843571604808
-0.08893174229296968,-0.05085642435380544,-0.09751837771554588,-0.10864960529767585,-0.04110469686320189,-0.06547866226496299,0.012433650941973393,-0.09215195101629577
-0.09243864143145249,-0.07450095161726765,-0.09289097581303644,-0.10648956966613675,-0.03214710757440984,-0.06203158286886846,0.00676907154770775,-0.1077979339042607
-0.0826257141306901,-0.07635199785706266,-0.09625315508646441,-0.10845881272639334,-0.019378901664478605,-0.041128983993386714,-0.011737528866284026,-0.15740693338934086
-0.09339836373793022,-0.06613229799608167,-0.09272824402000716,-0.11545871977323119,-0.0359628187309703,-0.034990879097022004,-0.004915250536336063,-0.164923112444251
-0.09805956828783745,-0.049775910201319655,-0.10314549892496276,-0.10878173308832752,-0.018987184487699607,-0.03323681337179891,-0.05828558306125048,-0.09863204154503039
-0.09793865217507546,-0.047387757742449556,-0.10194377080814863,-0.12229104391819859,-0.02633321065675263,-0.05387003987699877,-0.019690329310559113,-0.10583740370195899
-0.09408135530556559,-0.046412524331078134,-0.09334576685604049,-0.1203466474350698,-0.04566618524343597,-0.07162715881948563,-0.04524492574760759,-0.10396946878193852
-0.10081409713086947,-0.05013577188842525,-0.0984424619872751,-0.12467284016056357,-0.03177463317088133,-0.07048787136136608,-0.020831013643149477,-0.13704086592768747
-0.09576001266448855,-0.06711597011444224,-0.10668139045881359,-0.11820068899143203,-0.0304511066805075,-0.03108462731942819,-0.029799800717047832,-0.0781528609702096
-0.09010300548037178,-0.05315527684228307,-0.10767813052029845,-0.11694541404538229,-0.03888460313167234,-0.06357205233473996,0.00554042371418745,-0.1289801428839134
-0.0962774305443915,-0.04168932715489285,-0.0993921798776965,-0.10593329858089783,-0.04762241148401416,-0.05482324752734577,0.05652977911872255,-0.13290464712476016
-0.08219439184716335,-0.06379236899773269,-0.09325015781644774,-0.11579426630025089,-0.02553456677295321,-0.0547988820424345,-0.036283735887272905,-0.11680837375078215
-0.08215397137621444,-0.06691713347133749,-0.11103259514902146,-0.10855908462618023,-0.05011686083872174,-0.06368256298743524,-0.03824310581293751,-0.12127778642162879
-0.09494190006139468,-0.05177474871304343,-0.09974981585595705,-0.10826617313670138,-0.022671552881628462,-0.05016559533014976,-0.026494508665614744,-0.10145783524312192
-0.08227342018827219,-0.04135169680686449,-0.10315953527096981,-0.11829370535498021,-0.037865643209201376,-0.06729398020718481,-0.05198508185340394,-0.10248783387256816
-0.08722694790267457,-0.05498860913503654,-0.10640511124745507,-0.10697117755472094,-0.032732629562574604,-0.08287978614688112,-0.02977994876740604,-0.09784154179207903
-0.09190136524577622,-0.05973636601951058,-0.10700717267389154,-0.11646549045674344,-0.0373162949821877,-0.051372336258441134,-0.02027728268535909,-0.09511668688542176
-0.09377769301520018,-0.05476646314359695,-0.10987717091101003,-0.12545627968809844,-0.04152049287780111,-0.07819686180339151,-0.03865116604430818,-0.1049131959704154
-0.09762078583135543,-0.05624248251290171,-0.09858653277676581,-0.10473427409505627,-0.04439214563227701,-0.054220408113838194,-0.05845626832120235,-0.0774933972162268
-0.09064147153454513,-0.06291817252792126,-0.09839659552112623,-0.1141358019450989,-0.05178819161331791,-0.027784498525790388,0.0078119666325704995,-0.10277699147001824
-0.09764987353115358,-0.07673365204044645,-0.10497585905262105,-0.11924878632310676,-0.0496386926802599,-0.04650547750354334,-0.028734259849326062,-0.13084115773887203
-0.10011101109161837,-0.07570697895077956,-0.10165675249975423,-0.11393692813062682,-0.02815724574257628,-0.044749301856321935,-0.011814562657325849,-0.11297340050395824
-0.07639386852315659,-0.06418710822695883,-0.09421651646268041,-0.10654016430092689,-0.04103903734447956,-0.07532325751581856,-0.03986527033386147,-0.0842976242419366
-0.09558750860722953,-0.04832907306085697,-0.10008505849132517,-0.1125226137786956,-0.03347735880224287,-0.04784733637773634,-0.01659181313803145,-0.1321430807564458
-0.102966243648873,-0.04402015888469868,-0.09714564274633943,-0.12345109186883742,-0.04381800084791919,-0.049151958340691665,-0.013720019375209865,-0.10869516631729897
-0.1029575563041938,-0.04162493345223883,-0.09771695588842792,-0.11794856472539333,-0.029503540128554672,-0.047750493713523065,-0.0067260058076017105,-0.09055125965830506
-0.10395730533957184,-0.03789096143462519,-0.09947513452521807,-0.1169320630438707,-0.02040301503129568,-0.06380915989187806,-0.008292509323280238,-0.0706618528547931
-0.09105612382158855,-0.05648807013185591,-0.1098249808344139,-0.11981106525274109,-0.04178844334082837,-0.05082012963742187,-0.032091786703022596,-0.08536302643027871
-0.09065698107602836,-0.06083437003953736,-0.10354321363105985,-0.11149151101211026,-0.03477744342039665,-0.06827687637215991,0.007812422250468631,-0.1099244442532127
-0.09978520465309662,-0.05339442395311101,-0.10520927430097904,-0.13394869148892188,-0.03947621318637638,-0.08382393203117411,-0.044475606719885624,-0.11536699124044751
-0.09862726448566884,-0.0690663017060775,-0.11075204910493756,-0.11388218435584214,-0.015554323701599903,-0.04680399829223142,-0.06281554546415627,-0.11923747424542486
-0.09628007025028561,-0.05065716279596575,-0.09951877314811411,-0.13137524383362578,-0.030083740922474237,-0.02946400764440239,-0.020070912362813224,-0.1274048514360431
-0.08303434174230286,-0.06698974599997536,-0.10504455693754998,-0.12003379896835845,-0.048689545607008826,-0.034614778863796644,-0.03311033458982423,-0.08508085130776179
-0.10267685586421733,-0.058859006466812816,-0.1067571987464994,-0.13664545080288368,-0.05328214641478658,-0.057983716100255295,-0.028426489444389906,-0.11644800567293107
-0.10066717970067789,-0.07429643649231811,-0.10367077741843156,-0.13262554635038984,-0.0438818959091999,-0.06894710328696091,-0.06853033617232498,-0.10155480494583427
-0.09735299315649835,-0.0540182090672719,-0.10320516581800901,-0.11646317298989116,-0.04032862968525715,-0.0735004290784541,-0.04192155327618037,-0.09365332812390391
-0.09338927944800414,-0.04724055837661914,-0.09259774311496832,-0.11752386499438715,-0.03440593994649139,-0.07119221105390007,-0.09552912019837045,-0.05421061171255047
-0.0943055355443983,-0.0631015732374146,-0.11198664586412471,-0.117467230244124,-0.0469157081909444,-0.0571772762508903,-0.028572263407283256,-0.0852494586899488
-0.1026064670731233,-0.06383296516598162,-0.1034196558087192,-0.13188062640108597,-0.033194446602160976,-0.0954945546940892,-0.05708326638148946,-0.08662545569908847
-0.09461938607893125,-0.061106518741062835,-0.10571323172590814,-0.13485985926606156,-0.07450592298049097,-0.045752494487062145,-0.03880340949660176,-0.0951052686069029
-0.09210886491017274,-0.04251345456554677,-0.10947384073051407,-0.1273731801590145,-0.026209168598547484,-0.04462770469719998,0.011004277453415362,-0.11285021624733303
-0.09964070392130993,-0.04391861597459997,-0.10260741235114003,-0.1261306690179889,-0.04075576196740095,-0.06427662019086304,-0.004183482315843665,-0.09896372812331294
-0.09813093684202717,-0.061970558712817495,-0.10540843352221727,-0.12717987355581906,-0.038646570662655956,-0.06912592223918243,-0.08958942301072943,-0.12179861637748274
-0.10280114531505301,-0.06367235567529071,-0.11196363182257664,-0.1260729096768012,-0.06341617082746416,-0.08036085946954151,-0.046091115663835315,-0.07283974634023818
-0.09874901981268554,-0.057824264883093855,-0.10548468820940363,-0.1260566898530984,-0.04580243224711953,-0.09441882439920546,-0.06347879371010594,-0.06759324448531304
-0.09420590929282822,-0.053265859271990214,-0.10648104291280946,-0.1275109999899524,-0.028379694827264646,-0.07177919276271635,-0.06168073866965053,-0.06993615843203221
-0.1115211964885823,-0.048242577653608114,-0.11130369269081672,-0.1335529612176551,-0.0414436334833065,-0.08136543022941084,-0.040439999371127834,-0.08028517512270449
-0.10258673599641019,-0.07307973108150073,-0.10828371936381495,-0.13529882149586162,-0.04359169820179374,-0.05816974535583091,-0.10636230936234328,-0.04780965251429866
-0.09650939085269537,-0.04977892703092431,-0.100851901148827,-0.12917666833089733,-0.06373060748951773,-0.08275447429847564,-0.06371625768837134,-0.03863325910556089
-0.10324607167138115,-0.06452238895151009,-0.11014036162862774,-0.12610262022765553,-0.019517147810204846,-0.061148468173677605,-0.06232117386124865,-0.06949260354957552
-0.09874372683437094,-0.055811009403014,-0.10660194356011814,-0.13969567472380282,-0.06502029778829377,-0.05010595731543143,-0.0012800393826916418,-0.09898705534487838
-0.09992297479086454,-0.04863773657432518,-0.1099255374978556,-0.12279034006726668,-0.06049629749106603,-0.0604843066280128,-0.03382567379154417,-0.110832519635215
-0.0987656970666775,-0.051837855750017474,-0.1035921522832464,-0.1244033201822048,-0.04945950438965444,-0.062260419962227746,-0.060309803347909946,-0.07500630803039086
-0.08457096629619981,-0.058142500382374784,-0.10684911469987853,-0.13066002907378074,-0.042782190732891856,-0.06516370222337696,-0.021963603516043425,-0.06769938636281521
-0.10235680583782883,-0.061830908532200995,-0.10456090891856426,-0.13239228911154613,-0.046498403147713745,-0.07983912847594875,-0.05217175056052471,-0.09751902138699693
-0.11675460813469547,-0.051766596713870974,-0.11141673951757429,-0.1203760957282897,-0.049202657187860314,-0.05723808296670306,-0.07156865086376114,-0.05447459514318057
-0.09524671754401051,-0.04860564401448161,-0.11635686125444937,-0.1373010852093273,-0.05288455990572779,-0.05872582540183536,-0.0453955029159247,-0.0717889253393562
-0.10607327626610918,-0.04016874047337445,-0.10200340918762298,-0.11777128111923793,-0.02927573558057727,-0.09515221701580136,-0.0371878196232302,-0.08506056250495028
-0.09939329011185809,-0.06023435580728816,-0.10468791152386382,-0.1331410481169109,-0.04978356979888973,-0.05442546828299765,-0.04501641258228754,-0.08343734061509477
-0.10127163530154097,-0.061627548169964096,-0.11312185826209298,-0.12430680243784376,-0.04209985103772493,-0.0635384919597988,-0.05792726096232506,-0.1379467125121699
-0.10415750981423474,-0.05229745678341405,-0.10715365816598248,-0.13528242433291,-0.0359541267629415,-0.08874323711391685,-0.06842884249753414,-0.1197724373821321
-0.09881325288430164,-0.04286010318994019,-0.11336659388610484,-0.13200997788162697,-0.026178483723532965,-0.07626612677602429,-0.036846660545025355,-0.06797566815814139
-0.09586406228875169,-0.06138934091998463,-0.10540553298415398,-0.11853408830719817,-0.03600504652680411,-0.04607682460066723,-0.03828454769393853,-0.08610360062286203
-0.09896037263729827,-0.048166927118979894,-0.09814361838496372,-0.12929598190693878,-0.04873492660689511,-0.0710424537586729,-0.06860918656636474,-0.06670904583921497
-0.10182716211122804,-0.07395308953866898,-0.11063962119418172,-0.12225732850412348,-0.03857714121727185,-0.10042664199051464,-0.07587242606139537,-0.07290132051958458
-0.09418871145218263,-0.05411377243852749,-0.10983903827728667,-0.12866562620328517,-0.03839428616069011,-0.07720314701073684,-0.08748137109915753,-0.04947104120752743
-0.10259383647281398,-0.05223480676243256,-0.10804167109036948,-0.13133863105757373,-0.043328856541223565,-0.0646182357541203,-0.050477613361044504,-0.08763551174906635
-0.10564302290174277,-0.05202988235007345,-0.10561244914328038,-0.11764877510447437,-0.03458698355535957,-0.08158117225874839,-0.03383873977034058,-0.12548983098394004
-0.10419643763338164,-0.05812212150160629,-0.11121641048447257,-0.12406574860306671,-0.04338330767329475,-0.06531175101498844,-0.04932660074624943,-0.13750711924529677
-0.10281823349513901,-0.06670427468041955,-0.11550708833266098,-0.13389629596412922,-0.04574900397763693,-0.02883948314160017,-0.032809321767047074,-0.11147348737365226
-0.09276053711779184,-0.05239740488343851,-0.10545959422859573,-0.13191128744807756,-0.06329280548966573,-0.040814145239299854,-0.08773083717014518,-0.06715231779193688
-0.1071645570017829,-0.06605919373247428,-0.10097537852277547,-0.1232628947633128,-0.039400638085339224,-0.054107714400175,-0.03596935005654253,-0.1308579220574004
-0.10113053253917242,-0.062259253002421425,-0.11136348949828549,-0.13077410437036202,-0.019323133318058044,-0.0500913015931832,-0.056836796024187376,-0.12293508728656345
-0.09853031019824783,-0.05632876991197349,-0.1112481029598785,-0.11829950151807889,-0.004993084537784109,-0.07094090668023643,-0.04246127927598157,-0.11424580858191935
-0.11223129694703736,-0.06197112314371957,-0.10642979791506724,-0.12293857787000496,-0.0602445563621494,-0.09214095941867864,-0.11453154073544482,-0.04334437544411577
-0.10369381834774391,-0.03993084203678823,-0.1078676861716382,-0.1197588555619872,-0.06856653742562036,-0.07726976069208509,-0.08452891393058307,-0.051079863407339034
-0.10465278324997306,-0.0497147687657391,-0.10854771764871345,-0.12798210193231846,-0.05587188962098022,-0.056006456907189944,-0.06618466399348046,-0.11651040820294888
-0.10687500864861614,-0.08077459221881109,-0.11087944080610335,-0.12907941169707682,-0.01866963334645594,-0.07695876059308164,-0.028488243441189273,-0.11307820117881696
-0.1055501719804899,-0.0553629433177366,-0.10873051192169653,-0.14162170585603265,-0.061572838712383046,-0.06978250462293727,-0.05748924052351443,-0.10926036292276013
-0.10204437716462485,-0.06187304394715075,-0.10909141491422963,-0.14244941698479174,-0.03769029614107955,-0.0924674579372828,-0.0423110782134944,-0.10981371606678322
-0.10818697234634084,-0.07082898792154053,-0.109233898117045,-0.12238026840357723,-0.04130792713985648,-0.08202834272814179,-0.016998210965819077,-0.1310442563628099
-0.09658826733160739,-0.05466671751059906,-0.11242388337762683,-0.1329600095484437,-0.0631363965968809,-0.06737105078961081,-0.06389957480575184,-0.10180031056976567
-0.1092455620167503,-0.05533649875493195,-0.11110388929926471,-0.12663524850865437,-0.04453997880448939,-0.06367001587547406,-0.03433949614462704,-0.08838040964597407
-0.11146490442904823,-0.04252610626944729,-0.10762863770093582,-0.12031014117601885,-0.04707440788443835,-0.07305148275540058,-0.08540507587872503,-0.1175978985318093
-0.1052265642885654,-0.04828412984040287,-0.11127354077567364,-0.11868278687852728,-0.05228947407618352,-0.07346092489425783,-0.05487670002261497,-0.05992977192474595
-0.09364305771069278,-0.07329718681596649,-0.10804708649282847,-0.12765706131231638,-0.028137004134114824,-0.036853891675388877,-0.054265323955033216,-0.05508193362902228
-0.11488026628718542,-0.05188113300856999,-0.1082298241182236,-0.12836094480783528,-0.013771827550678593,-0.03918008430951101,-0.05412630711225477,-0.09538678380987865
-0.10145873183847366,-0.0499527124561706,-0.1034808465734076,-0.11265772550941303,-0.03451461874147977,-0.06776198800597827,-0.0633121385890396,-0.047897737965587654
-0.10073113901670636,-0.04087118515858551,-0.10160569803623898,-0.10145204610507735,-0.007979136020382012,-0.09205040569834069,-0.08252719096360787,-0.037941064935406166
-0.11042556453573747,-0.04018361128797779,-0.1068034762406701,-0.10903579809378693,-0.025584991162691383,-0.06764011600528563,-0.1080088082902112,-0.03224360569315864
-0.094818505972821,-0.051537903261922605,-0.10288923413279925,-0.11774947014511261,-0.01913692079232812,-0.07316508412149826,-0.07058483308422812,-0.0447975492039163
-0.1022049238565441,-0.04502233599869369,-0.10562836207674722,-0.11483763915363189,-0.01574159417096118,-0.058746567025016946,-0.054030042102711874,-0.04598678921935154
-0.09340289013426142,-0.019945931866184933,-0.09791616926144633,-0.11623054933707355,-0.03294568405187875,-0.06768171149285329,-0.08160372563460817,-0.01606449655657359
-0.08710351103047156,-0.022976622093312058,-0.09123818354221025,-0.1064805039023444,0.0037626457601988884,-0.08393238456392325,-0.11319167367262312,0.04817108945166357
-0.09281592861048304,-0.04133836518675911,-0.09895364377300092,-0.10974564573549322,-0.016655332394029658,-0.09265996274472667,-0.11644445265931117,0.052835633449759674
-0.0996029020031955,-0.033831597616711354,-0.09767234351655667,-0.11507440368842545,-0.011788112130715267,-0.07308837001492095,-0.13516039895532656,0.03164327299460648
-0.09616340622044181,-0.03015303921160832,-0.09354652338553604,-0.11968125087388927,0.004660823725899198,-0.08225026547102711,-0.02480977455297558,-0.013362456616410374
-0.0911944048816408,-0.04723963718700363,-0.09278985441798401,-0.11578625172397733,-0.010803378874271534,-0.034190592370494426,-0.06756275381100406,-0.0622338414936006
-0.09669316562150548,-0.0514217133286555,-0.09403528183365831,-0.11287618437099355,5.012094351253583E-4,-0.06048674384747144,-0.04727932215114281,-0.016377476032894044
-0.09133040011245946,-0.03364627625769667,-0.09689564431314877,-0.11511997619175598,-0.026289782578763833,-0.04811593909758424,-0.06894063541822375,-0.012468964977314007
-0.0841551194615368,-0.02724849807564059,-0.09830231949912008,-0.11150600291686863,-0.010346008021400201,-0.03328630359482862,-0.08413409995571318,-0.028559350673010672
-0.09942730652698355,-0.027229852186001758,-0.09592387614991851,-0.10760596029485253,-0.007330318894447699,-0.058561532784707916,-0.10127727096802638,-0.01126073228801149
-0.09814864894404568,-0.02950917310955553,-0.09855742122699078,-0.129235771809031,-0.017987237939975007,-0.0686545802812107,-0.07992360113799035,-0.03599684910125009
-0.09607531477209473,-0.023139029199976676,-0.09879466720841422,-0.11463687964206157,-0.00944846565439695,-0.05012620728423573,-0.04115729446226515,-0.046871385567928074
-0.09397355001343158,-0.042136199215726165,-0.1024627058405545,-0.11898618991769873,-0.02572706311922485,-0.06346127551547694,-0.037752428235004486,-0.06806490925984839
-0.08793564191112498,-0.04367703312509579,-0.10488100667239551,-0.11909569993286646,-0.043070683698344846,-0.057424570721058874,-0.06999246865522255,-0.055954240855312844
-0.09023936329984014,-0.049018232940311664,-0.09776949961557949,-0.12124278215995758,-0.049675832947240796,-0.06772592070776924,-0.051284868274241696,-0.11225219195700821
-0.09772250639830855,-0.03519542598711406,-0.098823352798691,-0.11509661598075165,-0.046290559616360125,-0.0728699804816116,-0.028233510035037494,-0.05181065564675396
-0.0930010750279326,-0.040593871757791146,-0.10062918603085408,-0.11706598317113312,-0.033388990051910705,-0.06513874047665223,-0.07194625341442826,-0.07561878551977086
-0.10014453619872693,-0.021582507244045573,-0.10463087595080499,-0.11801653656844276,-0.03776905250659985,-0.08454887413515272,-0.06189728762535726,-0.055150302644248944
-0.10017712600373418,-0.03591002654190386,-0.09778098730116266,-0.10763834885641242,-0.033050431382004974,-0.07397979865818895,-0.10117996620870971,-0.056014596025467565
-0.09798883077770923,-0.021021372744272508,-0.10759688133716055,-0.11946610163715839,-0.026667242399018624,-0.09619911992693155,-0.0786663123798259,-0.05620885278562827
-0.09531821894658879,-0.03194740451068938,-0.1003147623771166,-0.11785062295723063,-0.03633975077022455,-0.06899853235873989,-0.036696637057695644,-0.03582136996964645
-0.0990968922196856,-0.04658530572343649,-0.10111983339844313,-0.10791463114213651,-0.030977981902088093,-0.04460367180992462,-0.0845870093911294,-0.06030819311105611
-0.09549719522460011,-0.03613084726643717,-0.10069934085606608,-0.11990831457724138,-0.028385534119720893,-0.05344872815084202,-0.04616075744190754,-0.10038242233386631
-0.10145664791201893,-0.01766754127029235,-0.09549300363849178,-0.1153089599938068,-0.04770218683568055,-0.06849030272973605,-0.02340301506575609,-0.07603291779762053
-0.1047017433192488,-0.034711268346486114,-0.10278070431353867,-0.11414391404668522,-0.04516114136455529,-0.07428253185812377,-0.05718471012996194,-0.09560118329805863
-0.10090520000746814,-0.0521692530565997,-0.10215229346252727,-0.11513495708650058,-0.04080626056619294,-0.050804246275071685,-0.01324140764105503,-0.10887840367677212
-0.09976699217684995,-0.043534475234085865,-0.10661822676506522,-0.1203663175825564,-0.04834689447769873,-0.0734191576940414,-0.052848199175962236,-0.06335852550896195
-0.09823148414121573,-0.02809683362784315,-0.10672926216266508,-0.13057732887043957,-0.0681948262201551,-0.07095319262614252,-0.07390826425135068,-0.07007006529978642
-0.09543230494218513,-0.014067841689151648,-0.10183369070467183,-0.12552256761104957,-0.0456765715322582,-0.06319083562655528,-0.03547945560680797,-0.09712105514898407
-0.09996648694438894,-0.04662387807900343,-0.11230276968100442,-0.13164906272706917,-0.025916727487845004,-0.06158282173297865,-0.03661323533692589,-0.08493171032479846
-0.10743800998560143,-0.04768922550544155,-0.11104464032989318,-0.13063113954313696,-0.057443434450137554,-0.04827338566707002,-0.08562233066635436,-0.10267592630843736
-0.11392189585919699,-0.038435135271272805,-0.11221031251959436,-0.12978853987165864,-0.04745352851470454,-0.061778567118489724,-0.022822939595750512,-0.12578926965147183
-0.10707132810170754,-0.0332879563648461,-0.10737944676397308,-0.1451697168503873,-0.06234787108143148,-0.07401435295372571,-0.06384453258918175,-0.09530870084048025
-0.11315177165566696,-0.049794714944152885,-0.10651976894051834,-0.11779071625197257,-0.056036539697972024,-0.06670333715393767,-0.016695349112155342,-0.1004185879948827
-0.10118563025542467,-0.05232995846667828,-0.10541758954560997,-0.1370308238232443,-0.037026978805449744,-0.05704256648502002,-0.023504416639786755,-0.11988832323425067
-0.10932013652953068,-0.044964225590885754,-0.11120308768593087,-0.13930800498798257,-0.06985748453194414,-0.07783962956479604,-0.07318375215830801,-0.0966156424720521
-0.11310602605498848,-0.03766066538210284,-0.11714007303058858,-0.132913435726708,-0.03631230421099217,-0.0936119794801673,-0.058611597825826964,-0.06963100671538396
-0.11840888711937123,-0.046448980065948046,-0.11244852849593251,-0.13582328877855118,-0.037388302734012314,-0.07712578425884598,-0.0848084000289841,-0.06616106133464529
-0.11008635393676795,-0.057024323091693876,-0.11597059268012279,-0.1348272679963389,-0.05789249814697745,-0.08162285858375659,-0.06435955260485664,-0.06382745512328801
-0.11498246147155208,-0.05135643556963175,-0.11927875817889795,-0.13529889163872913,-0.058125252696129635,-0.09550771001409546,-0.03504474820119547,-0.11342566767122733
-0.11435571113830309,-0.06313797795622046,-0.1206836617428423,-0.1346100613052077,-0.047805110816476974,-0.0937666709805515,-0.07594814849027252,-0.09235603903093788
-0.10837461796835698,-0.04349145652825876,-0.12159881685486645,-0.1492061984281083,-0.05338305836627142,-0.11381360377372866,-0.0911439426867101,-0.05443904037607322
-0.10593833582915367,-0.0499312356932896,-0.12017834003067393,-0.14057445110582165,-0.07367845115414765,-0.0866589614093725,-0.07714872017084022,-0.10350908858122512
-0.11411702107281604,-0.04033390910541688,-0.12144880936941525,-0.14348240276756977,-0.04510178208419402,-0.11662885367698786,-0.14504327857935914,-0.08771914387666158
-0.12160677656676419,-0.05613989783654769,-0.11411982546451466,-0.14776617184644236,-0.06575331241309577,-0.08433474429446262,-0.07745612935034858,-0.1032019037854731
-0.11084637129675143,-0.03578267073181759,-0.11869696604056895,-0.1426658657750546,-0.057855201292230485,-0.09386265306045062,-0.08607423030584493,-0.08609833871027936
-0.10792958909364488,-0.03886429706328597,-0.11439862703128142,-0.13889357662865784,-0.05923128915250048,-0.062478796292555136,-0.09707825739197384,-0.05726979543477233
-0.11411851651274385,-0.047293316137526784,-0.12695185258293426,-0.15076416594870035,-0.0701059515465038,-0.11206012070090844,-0.14401778798418596,-0.050995651291842234
-0.11818022726751724,-0.07136782174677628,-0.12309764896502484,-0.1435895851950062,-0.06761330154039859,-0.084200671532977,-0.08892823822052733,-0.059739706870211115
-0.11134918992939391,-0.06350422406058062,-0.12596927212545045,-0.1451748886605632,-0.07078440423717974,-0.08346985099081729,-0.11883115215453856,-0.08642904097575488
-0.11933882066011633,-0.03959512335926693,-0.12532369004397925,-0.15002240236451914,-0.0731023927413387,-0.09888916823509546,-0.06627527739707452,-0.10339458817008707
-0.12092392990910907,-0.029738363588738444,-0.12523757760430662,-0.13219217739014139,-0.07708518802547466,-0.07531029406211709,-0.07054729872960515,-0.07301915455481735
-0.12172541674042796,-0.041376249123314765,-0.1278444951538751,-0.1318165358851643,-0.0746705457304805,-0.0973207109986185,-0.08136393669085132,-0.12681946205485842
-0.10855017438665608,-0.08253073203102369,-0.13124021728224758,-0.14586869701714514,-0.08186582809327975,-0.06417575554101816,-0.06821859380776661,-0.14706647393584865
-0.12100357422897223,-0.060159695515443305,-0.1311825591154233,-0.15433970734813002,-0.055753120863210055,-0.06613855427546941,0.001480863132559167,-0.1109265043468908
-0.1115195498872146,-0.04781243437991565,-0.12680922049811988,-0.14357058714990617,-0.06500105539707987,-0.06854964731908944,-0.009005967821590615,-0.15677647611510945
-0.12071938639186955,-0.04716195091514572,-0.1268095275656182,-0.14406910006213627,-0.04378032876942584,-0.06218161414182538,-0.033764463261371606,-0.12346609042644842
-0.12845514420490647,-0.04836379612985266,-0.12949841474019272,-0.15243323056527774,-0.04685309961878922,-0.05948139998064804,-0.026153892666883307,-0.17322799502298275
-0.12212113073614546,-0.07098026379569185,-0.13154974253950485,-0.15490932890108422,-0.060296971204826,-0.07288480157862993,0.012310249458958852,-0.19546708866376544
-0.11816837780648198,-0.0514686469587328,-0.13058280284134025,-0.14481481435094748,-0.040642972385151424,-0.05471665162166712,-0.07355788364029965,-0.1513994849438683
-0.09699747196011241,-0.06945302075090966,-0.13130537347866442,-0.16388097001286808,-0.05709003695520137,-0.0781870976044451,0.0023448934268899915,-0.18111934056702766
-0.1269909616195216,-0.09076329009391765,-0.12810944471059943,-0.15117748696531874,-0.07483586664356792,-0.07991675490423641,-0.05520346424949709,-0.20173107076739571
-0.11273088479118899,-0.08091353089543804,-0.13358819679319459,-0.1422859455428626,-0.04001174157665545,-0.07786974867593137,-0.035271658510493374,-0.14778067664609393
-0.1166253303777129,-0.060205588220987025,-0.12676841040347347,-0.15138950442516694,-0.07345194852385813,-0.09736517294076524,-0.061548270522159464,-0.09252212556140108
-0.12424396593787544,-0.05395180007717006,-0.1290947974505768,-0.1537304166336975,-0.05317889887397233,-0.09687066033800953,-0.060247379586190274,-0.1286079118297964
-0.12571930298583478,-0.07128088270385288,-0.13334090576453753,-0.1457878352922055,-0.0712210028895065,-0.07511581743559242,-0.054598689160808976,-0.16634727250651266
-0.13109232310455252,-0.0649393332141221,-0.1343938433218332,-0.14990778211841152,-0.05795411961843793,-0.06975652230458973,-0.062147277436480436,-0.15373294211646077
-0.12574600618181456,-0.06998999929123711,-0.12910533344317995,-0.16027355535490176,-0.06339289559665352,-0.09594275490524362,-0.08989127519831838,-0.14305496528398057
-0.11699645624714934,-0.045013072875556226,-0.14001596070331043,-0.15162942845038072,-0.06178842561687715,-0.10720150427175901,-0.07144321435936538,-0.11735079514734789
-0.1220675747434039,-0.07039300743312843,-0.1292603350630889,-0.15817258148259228,-0.0455644063480132,-0.09719733722790251,-0.05540158625806054,-0.13037403025192806
-0.12193368105946104,-0.08549401828310231,-0.1307583765056861,-0.15788107884299782,-0.05126253544282458,-0.09986970445696346,-0.01642644040690263,-0.1490901394330334
-0.12736975471871523,-0.09159530642346116,-0.13957340723675796,-0.15233889121403313,-0.06536604608565512,-0.07837119024367592,-0.07977828707757943,-0.18730715645306548
-0.13107844397603338,-0.06958848615623663,-0.1353024062524529,-0.15130828589521805,-0.054028374060861674,-0.054875198914970974,-0.06586228667616609,-0.1382456852270321
-0.12468051224212955,-0.04832335897944901,-0.13305190855460475,-0.164031729614623,-0.05904150332511821,-0.087751621645395,-0.12569386216067774,-0.11900463895413183
-0.1173333448699271,-0.07557527775355567,-0.13894561765966,-0.1572438378485964,-0.049163270867765875,-0.08939652647458304,-0.12354778586291354,-0.07230861076152253
-0.12373767310092897,-0.07693889416417497,-0.13869955564034575,-0.17130852299143187,-0.058733061456717035,-0.12339068314935432,-0.13154105298292526,-0.0868110793452186
-0.1154355207223555,-0.03811396978509509,-0.1362592038501233,-0.15685247649831896,-0.08503434918044082,-0.08430001867750281,-0.13068292344377275,-0.08165693213406822
-0.12242078211979383,-0.03607254042115489,-0.1355143042250514,-0.1547842487772675,-0.07483720383418332,-0.12848647603409097,-0.1592080857464884,-0.04242232937883493
-0.13193157968076852,-0.048665075512675994,-0.13290813583834923,-0.15962145725052732,-0.07941544745199414,-0.09489435766065689,-0.18753709671557037,-0.0668921876659475
-0.12462233864508282,-0.05632277251541278,-0.13592494596142027,-0.1613821768735825,-0.062342684850130385,-0.1424567112754207,-0.15909340648351214,-0.07985632061967878
-0.11850766920505024,-0.04281814575887003,-0.13371300172533818,-0.16341219998150644,-0.07327782423219323,-0.10848137874283274,-0.13383842636778967,-0.05439783978992716
-0.1092156181843155,-0.06423343388759707,-0.13155537755107527,-0.1469933078208046,-0.05796288199099562,-0.11369404531478977,-0.11733389247299324,-0.13292364663882963
-0.11835413178561109,-0.0646842022133461,-0.13673912576527714,-0.14865444252698104,-0.04765520128891184,-0.08033275461155262,-0.08148242601229602,-0.1619162206703697
-0.12161032201237146,-0.06977579231335096,-0.12585553478055453,-0.15766125795807212,-0.055688025468679014,-0.07768234978265826,-0.0662311721435977,-0.18655275251169753
-0.11656333146895587,-0.06327279464279634,-0.14090117997908316,-0.15918753008770886,-0.06763805844490996,-0.08621709701519151,-0.055000072845215,-0.16016972470953905
-0.11876482802474056,-0.04686664123242697,-0.12938969623397625,-0.14818113074035355,-0.06670831672129839,-0.08886792789225677,-0.1017904511107229,-0.1284289609761092
-0.12251656200753992,-0.06252258896649532,-0.13888881934943081,-0.15681926188777867,-0.0767019797144538,-0.08931919362741125,-0.08998677007607916,-0.13579412007824582
-0.1149719393036494,-0.06606468491520735,-0.12233352975630743,-0.14380970021870546,-0.058305858725337396,-0.06828990237809965,-0.06892106614903308,-0.18834054741946812
-0.11974060970419703,-0.07235822677770387,-0.1272841881880278,-0.1528798347731214,-0.06357683039224835,-0.07145757589557698,-0.054708350396284584,-0.11060244425868544
-0.122246518974072,-0.03590196719023376,-0.12426132117891242,-0.1500282388728718,-0.0506824464144261,-0.10295171478464701,-0.0862190154665085,-0.10513525331335324
-0.12059229791456633,-0.05908504111999895,-0.12840315173129346,-0.14164735993296426,-0.05953210605321055,-0.11960615462022457,-0.08448025690082672,-0.08898947847503509
-0.12374210963104161,-0.05322410943546076,-0.12748978869210828,-0.1609038556751319,-0.05831186003711148,-0.09195499659819907,-0.10364442364521685,-0.13074867820334768
-0.1146414051867375,-0.05993688584412838,-0.13588514470483745,-0.158617117857487,-0.05100993736131637,-0.06712866216783564,-0.045796997014349826,-0.0856045440648796
-0.09654019683092069,-0.050632543038328925,-0.12478948408951848,-0.15004233804057313,-0.05323538458194253,-0.06130458634358679,-0.09101995148932504,-0.1562139042967895
-0.11837834327244502,-0.07437836315452222,-0.1275156240620723,-0.14799302921419957,-0.037657417892323,-0.0931256510077373,-0.030800903520613376,-0.12233667037165483
-0.11305759474851007,-0.05137150094515234,-0.12144330623953269,-0.14993604907056335,-0.0639294452984519,-0.11021071221653289,-0.09294754075386229,-0.09187849015526359
-0.1168653821104947,-0.04641007978988636,-0.12474388520216614,-0.15382207701604125,-0.054733940847208236,-0.11192229995922179,-0.12801852858814866,-0.07133238337551209
-0.12167070163228885,-0.04571032689481446,-0.11850078671220636,-0.14650212065279408,-0.061477327830109396,-0.07580569471143361,-0.09913241661894982,-0.12119039415926848
-0.10630437040989744,-0.05048311848030533,-0.11840760428060104,-0.1512444535661286,-0.05074848705786175,-0.1287891242114822,-0.08439425241332141,-0.10915738382228642
-0.12319718322405561,-0.051900147734806015,-0.1285138621222289,-0.14490891477143497,-0.08007851791957724,-0.09146248870477364,-0.12190039611877149,-0.08856734943590834
-0.12349380400458629,-0.0291954170233951,-0.12561568090720904,-0.15535576506684465,-0.08715351411263317,-0.08725494703556463,-0.1283134489290784,-0.08523391301744615
-0.1174520365594679,-0.04068925469924826,-0.1260024774085698,-0.14938051759138746,-0.07307605492190951,-0.08644673143880097,-0.0687263672631023,-0.10050394561015519
-0.11115356708054658,-0.04972871457803616,-0.12474440599570756,-0.1473652045224268,-0.07158795947261015,-0.0887917749310618,-0.055802036966510316,-0.09825350967428564
-0.11657320178880572,-0.06403844955970103,-0.12675580226401775,-0.1357168643304777,-0.051400773614147965,-0.09403238851504493,-0.0566144126125189,-0.13180687976191116
-0.12610247007196843,-0.05863165658619713,-0.12358912215233053,-0.16059673824258888,-0.05180461575010194,-0.09099220537138385,-0.05428482668837018,-0.13572114199307136
-0.11770546414307642,-0.04488524533778645,-0.12443921156279784,-0.1350690855163058,-0.05832704714394518,-0.0639428282822055,-0.06275637323162846,-0.15600969525704214
-0.11330595368617886,-0.05479020817344851,-0.12618910076893294,-0.1440720129172823,-0.06958035528869551,-0.08451381994661257,-0.04981522436446892,-0.1155575366814879
-0.12064631467763692,-0.05465669768314501,-0.12552540060840334,-0.1451178242941202,-0.06068931615162284,-0.05784380839478096,-0.06559782409545072,-0.10575495297502717
-0.1084455207290792,-0.06177720644764262,-0.12956381538325104,-0.15724080720118366,-0.07320226492328831,-0.10714281411303064,-0.06122264550960121,-0.10762581431729941
-0.11801465818668552,-0.04623721861621204,-0.12831205944821322,-0.15961510881849347,-0.06032328677220941,-0.08704519716954438,-0.0716741632816588,-0.07105373187955885
-0.11128570335572278,-0.028520997584155258,-0.12891665566732077,-0.15350571115837164,-0.07231602143296109,-0.09033717687293791,-0.0765978072955338,-0.0926479342077597
-0.11780125114365696,-0.05357090678389416,-0.11924169896864906,-0.13420304478791595,-0.04128212789704571,-0.07414355659952021,-0.028085762270292518,-0.13942464797910423
-0.11436536148268611,-0.050968981918437704,-0.12943638262722382,-0.1502900850760351,-0.03878942602718148,-0.07706173822014267,-0.051624159769877546,-0.12633957084113961
-0.1293499856649756,-0.03701727952351954,-0.12834642819987993,-0.15658562161591613,-0.05928735043023504,-0.057425468592796104,-0.026076989104075562,-0.15576733321685257
-0.12008674716912382,-0.032735423507666124,-0.126818327447465,-0.15853344841274292,-0.049901079881790864,-0.08286858704470222,-0.03231529487393827,-0.10796916579217619
-0.11840455261237531,-0.03983602213183846,-0.1318592627130549,-0.1491960312210305,-0.05415986320146746,-0.06027602733130523,-0.045065796576986825,-0.16365170123989536
-0.11123992224368344,-0.08004500095058907,-0.13029114369732137,-0.1534631614168366,-0.07417334321989875,-0.057415064706489764,-0.04512462204317553,-0.1429943781546056
-0.12112826817722461,-0.0602552980538769,-0.1366155141876417,-0.15695441766400345,-0.04493803489382868,-0.07280955189567849,-0.09106799723242225,-0.09972311685483674
-0.12452086093603475,-0.0435765302691392,-0.12419564633738249,-0.15866193152970415,-0.06825458394519258,-0.12868389464090976,-0.08202838519410145,-0.08939798361236174
