0.07477659039395698,-0.03739156431365431,0.08484550532867285,0.10912740272577186,-0.021688224974060324,0.08553508545610447,0.05796707620977445,-0.11320390910078415
0.11584412166674658,0.017214360941347106,0.16194586066399996,0.2202189886266522,0.04902023328310378,0.06597746795500652,0.08669084152848487,-0.20080072408521682
0.10352034882527948,-0.016771778806045166,0.16852570976888526,0.21804641901076244,0.02126600104144745,0.09989661409438444,0.0810332645939737,-0.20846718436518552
0.11928838833591976,-0.033369039808644946,0.15858296138534989,0.18182454123796774,0.09394330295090993,0.11725029440157196,0.11848353029396168,-0.050736360913309346
0.06879001980619041,0.027395021654180365,0.1184569516100673,0.15084732698177344,0.01981505786168617,0.08193684962615791,-0.01744894345014808,-0.05728260101045567
0.11700797230983208,0.03287151259427105,0.17299476420816776,0.20166185709094586,0.021606236397287513,0.1157833569083808,0.1028035367661507,-0.023846795080290657
0.13709482602005965,0.023358559411747748,0.20088260312101014,0.23593745798016605,0.04627602452330962,0.10866917580135514,0.10899383144313016,-0.12644229173194294
0.12818843076537215,0.04048559872498675,0.17698146743105678,0.20380863087616338,0.04127298531342049,0.10002705609237159,0.11769557404830229,0.0875374627053229
0.11162608639807832,-0.044426416422843895,0.12625142283545218,0.170628705034804,0.03365375007071943,0.08530350199333434,0.11058023488232858,-0.051334326578204054
0.07317547332347853,-0.019382644165454287,0.13128552267442398,0.15245976984894313,0.029631028260185672,0.09641515225651355,0.08612095796028754,-0.028647764110487087
0.15152064174084628,0.02643389064510979,0.17488756984880668,0.24591064778420946,0.08782024965355491,0.15432480505119792,0.19236396041499976,0.07608727297922886
0.12691852640704204,0.02230408638546547,0.19216956132074947,0.22389423083913837,0.09233241915169674,0.12501066058353652,0.16036452283896183,0.06828954304239543
0.09680979587725283,-0.015540861108398092,0.18333355221831776,0.19164650475913664,0.09550053855590676,0.1413620716285252,0.05576314187035163,-0.1982745931099058
0.09519843104861901,-0.08591568184881887,0.13518757706885337,0.1683669056473474,0.06042664278832525,0.08340170980182926,0.07113560237794893,0.09873246425391109
0.1531464739496782,0.03507405542944528,0.1893120803276118,0.25318772645819,0.08852957752956146,0.20004176970177526,0.1312076349004766,-0.037387389707240044
0.1440064046304151,0.05060512359997296,0.18067014268212683,0.22822476303317646,0.06881511796652155,0.2114827601747759,0.18342436170385612,-0.07961843553607603
0.13105403175445018,0.07456819162572681,0.18053352877040785,0.20854763544649524,0.07145346915413597,0.07944914006439775,0.15485757056641378,-0.1140903769893272
0.09320199566007627,-0.018936131899823603,0.15776845299366557,0.1967889891502177,0.038581215646062705,0.07894516654916701,0.05493025044919033,-0.07782492914472028
0.15671032019906445,-0.012133541532098195,0.22753178719441522,0.2824618503570485,0.07695207087745412,0.2196588386711027,0.15262404980280977,-0.1356720702595305
0.1345686309517916,0.06478944812884874,0.18493156765256544,0.25142808960737334,0.14596676175801768,0.15155896662779064,0.20927759773772173,-0.062127027632523785
0.12096394887873245,0.013439580377015441,0.18475424488152437,0.24289960766825525,0.052235535745857584,0.1886837743701648,0.12766471903542276,-0.04704435761727905
0.10582575771493433,0.058141173248033404,0.16723809728945757,0.20615952573994348,0.06333459455363263,0.11879900179064533,0.12217151309715428,-0.08770163085235579
0.1757631502418374,-0.028694157589442354,0.25806466682653567,0.2874098913256059,0.08124637900967853,0.2610712902575484,0.16923719977340515,-0.010464778927895439
0.15342535878876198,-0.00436004641792401,0.23355841104821848,0.28090169530804804,0.13883625869071603,0.17549821653107037,0.21837895569480262,-0.12787366752947876
0.15351339820536808,0.06441989539092723,0.18921756480191373,0.2544798413838105,0.16249116745795178,0.17757112553487597,0.2103279240347443,-0.06413175721538078
0.1163373046230799,0.014295276435086025,0.18300204648343382,0.23035617884693468,0.111042259954856,0.14875942666348438,0.15855527064580777,-0.04317931802071393
0.16172782006028807,-0.03777591417474903,0.25036534927087595,0.29018729734262305,0.10858415743498212,0.16579705757464916,0.16707083555480673,-0.12123552971721546
0.17783934298851656,0.024342609268352564,0.24851853613415162,0.2972692103670798,0.14125785221896264,0.25865994012046567,0.2263995935987502,0.017068269329370857
0.1687835460785617,0.013185845438179801,0.2008565511467084,0.2719133193911335,0.1412994458664898,0.20516875172956567,0.21410786968466056,-0.06631483350371127
0.114442181094077,-0.05577896454662797,0.18691277460772926,0.22618876588681155,0.11826458971142859,0.2120601328310003,0.19417096050797014,0.08913703003929482
0.14416615109500283,0.04227123670141122,0.22329429153620717,0.271324348259177,0.19077226738119374,0.18741923801844998,0.2063121928778912,-0.03018344279560636
0.2017987042565862,-0.006542861850310914,0.21170178561149988,0.29596206374889256,0.14332622626461736,0.21454353095847084,0.24589558889496915,0.018469446416963596
0.1550195581555299,-0.0027057879364622336,0.2214817809219477,0.28529358902047175,0.14131890599383937,0.23519006864692119,0.19504141303151878,-0.1270136447671558
0.15658777592199843,-0.02764215589048884,0.2047619207368443,0.24181964933199288,0.08458656657290474,0.15983058785780613,0.16026714157777028,0.08936822587039162
0.17287610583224677,-0.02383611315335006,0.20195063765625557,0.26966046909402175,0.11509799631094682,0.16673047769192312,0.24761709000620166,-0.08820098517278382
0.17770597675900024,-0.03607168920030514,0.2365087856033453,0.31382559607635296,0.1909795792680263,0.24925858909876542,0.26631963265974223,-0.04912994890648043
0.14735436510154562,-0.02836848545001327,0.22572865504300643,0.2926398501631005,0.20238864803008266,0.23691985277845778,0.3427128361276312,-0.1280573414023846
0.1411300575503782,-0.017083001869952878,0.2103945006204371,0.24232225627018958,0.21090929811782938,0.21881812336159367,0.26895733168419866,0.10647738455564798
0.1244570000945314,-0.0021013361535741786,0.1762717529370917,0.2365808453052423,0.07920287199171153,0.15003697306710542,0.19815026399771654,0.010975308958043
0.18597925852353347,0.08275738962177208,0.26456536014539694,0.31116405648489204,0.15259202008778072,0.25851421891199655,0.24819652861010075,-0.011329448190317724
0.19412523193517478,0.030913390872094597,0.24585126643108718,0.3095006017666034,0.20363587013144804,0.2418662565793208,0.2255815959877746,-0.07464084004576234
0.145557719992114,0.01076005169266395,0.2111638232875937,0.26872935464548303,0.13237341255252325,0.20497369855042977,0.14234633071255198,-0.03614209801050733
0.11823104644882174,-0.004887944059774537,0.1903708878983814,0.22887545180680818,0.09621001055769716,0.2113992693283772,0.19787432933494137,-0.06328624562185231
0.16711528512682436,-0.005949755600053117,0.21843191521318808,0.2831559215946414,0.15547627934409008,0.25024067083499896,0.23858364199530685,0.05204071450685758
0.17987215739542942,-0.006392951478712641,0.24015621353657363,0.302533933139318,0.1858993414260018,0.2615333176482196,0.1988437164733929,-0.12222518846481178
0.1504731907057447,-0.005339882689504021,0.23535709169872432,0.2748015266841631,0.13709754377452374,0.23301983420735783,0.18857664689844209,-0.033404099769967305
0.14292461055409572,-0.04400291263518759,0.22194278814497292,0.26261545195741876,0.14144700911542515,0.21178540563564707,0.12777877243125046,0.02385408341963113
0.124534573195146,-0.02908324182553114,0.1901651998587532,0.21057541851413075,0.089382470521397,0.19341143012534728,0.18083640343779192,-0.06884441025542924
0.1624842863398511,-0.02056333717294361,0.23628771457111292,0.28802375063936125,0.16854570514754427,0.2711882370639759,0.24611147694338364,-0.08831170163323324
0.17157581329163224,-0.007632870321478333,0.2683461256596097,0.2914744807427711,0.18863034785929506,0.245675605214859,0.2135842861703985,0.05227617179891397
0.12841869886912716,-0.03597483511957349,0.23243438490224472,0.27363978105523584,0.16313364131352764,0.2552934847089983,0.23268682400381857,-0.06681601603027384
0.11426991215947906,0.010623611086684638,0.16906687844699414,0.2034873900687369,0.15200088252685387,0.22937957042672008,0.15507903682544694,-0.06388737635865357
0.14697686707289478,0.0011738664108916516,0.22030526353258753,0.2587604321467503,0.1353107165490859,0.22548424200765074,0.2505203036040588,-0.04385781301843829
0.1819866100929994,0.0037643408822942517,0.24014590948089368,0.30007457010224875,0.170340044384395,0.2484283191219463,0.2081283143936335,-0.19524529932666967
0.16228125277666225,0.04110911749163136,0.222021148781291,0.25381706468574666,0.15532729059878286,0.21050683875113754,0.2013274451219722,-0.012009333394561138
0.11354754086639741,0.01378958529272233,0.17603009831454464,0.22522272438042185,0.10563697053235066,0.17853950310635094,0.16013326725673083,-0.16859334125685094
0.0984515069019236,-0.0286267529285834,0.19496988220595846,0.18796265595706813,0.09622321110097003,0.1417858664551558,0.17203150326780067,-0.09335567623364469
0.1618974727515302,0.03190709618585023,0.24426517444164256,0.27968397345645146,0.1845575758380126,0.21397352641575845,0.24249981760894063,-0.040828568626182005
0.17110480588869406,0.009421919989987385,0.2399417322863017,0.28310922389519527,0.17504568764230205,0.2398416803475229,0.09586051519692097,-0.06206251149500985
0.1430118052152881,0.012627809243960699,0.22716487919035844,0.24781478803435084,0.13864624773288856,0.15742652224587572,0.13781553713059164,-0.020084311072877663
0.09430063541936477,0.05617139450010122,0.16803250768486816,0.18061696229202648,0.1232668274860651,0.15772169275238968,0.12569280601843968,-0.0785704160938982
0.07994096632673335,-0.042403879460724575,0.13555450713940695,0.16480846946447258,0.06612795100011386,0.12478697616658593,0.05244753734700033,0.02604033085699333
0.1519195973706972,-0.00993316512945716,0.23441566533296151,0.26070034458232777,0.10572896435422195,0.18459920612577052,0.14970590106887957,0.11983276647620013
0.15313287135694675,0.01360834321450628,0.1949868168204469,0.23869015622077105,0.15001605193897008,0.15924480509400496,0.19957788195319565,0.03373229028954546
0.13181155546348228,-0.005805920706147739,0.17987298541463922,0.2094331593474392,0.08155413424063161,0.17210549649906023,0.14591274872819127,-0.08435942210631456
0.09298061758381275,-0.041898868066407406,0.15277275043694435,0.15202947639966002,0.09709028730882281,0.12462496494637551,0.08636070822529815,-0.043759775327451844
0.12211796088033822,0.011723468566936061,0.1935992289799481,0.21227180057924966,0.09911440184702555,0.18273341576646016,0.19050162858061523,-0.00912435834932021
0.13378918101670348,0.027630022883501314,0.20583825375610038,0.22204372963918434,0.06758585177610475,0.16648267903603087,0.14899880713582628,-0.09511882017475556
0.12624718646856567,-0.05087647674930359,0.19771369400901137,0.2068905746060414,0.06800249747502604,0.08991921116115784,0.15784941923970142,-0.0706727525454392
0.10046912585338628,-0.049233507752692134,0.14758233043951244,0.16061471614420275,0.05460648769238061,0.14791269022798567,0.12617013637468594,0.0362697107644665
0.097108192061279,-0.06859210355957314,0.1574609058844152,0.19130248059528265,0.06799569092457801,0.08223211558571127,0.12187648729164177,0.03258502679625852
0.1640845722577902,-0.04022526298740618,0.22533424820058975,0.22744486799610683,0.09166830218019996,0.16083478595729309,0.18195972396157076,-0.054822844734639706
0.12011657326481553,0.020103569298562413,0.191117159292873,0.19558608619623208,0.10891067847128236,0.1452442208700332,0.18577622757585227,0.03101554618449972
0.08764666019903736,-0.002541237849301516,0.15714858999133133,0.17103473126581015,0.14846049213749354,0.15276432434161244,0.11813622208008813,0.07754692717365459
0.06282511278137674,-0.04130441121432306,0.10439867707510181,0.12090903581752145,0.05122894696760949,0.10892501572470283,0.00894474751072738,0.1807520972213687
0.14628649328417648,-0.07779751482914075,0.18661546468623713,0.2097521802491638,0.08951236537435223,0.14233969014555853,0.0706301691144208,0.07970056180339828
0.1259713500573037,-0.055818793360154745,0.20738959325326878,0.20255832873992996,0.15774263419723045,0.13595004646375808,0.09235441440639201,0.1860460782109812
0.13221876465347962,-0.005216292727708639,0.17485842664139822,0.19135126149962192,0.05841313331326212,0.18092214207603738,0.12171751590425071,0.06870895488418233
0.08401776576846956,-0.031197591940414285,0.1593628146950337,0.14481183494735989,0.03397491050986677,0.1393040616350269,0.13767401640918805,0.06087435700048772
0.06240138244608882,-0.11940380414917687,0.13021086997609316,0.14515553248704038,0.022680592674862082,0.040660215619599795,0.02173821502233199,-0.02100698078819213
0.1481581969810587,-0.03822065788247581,0.17818291018129742,0.20898938298966355,0.1101457699792578,0.13121548297806057,0.15518354485610195,0.03876160230709398
0.13187500249266854,0.009064724235652067,0.19087163540699215,0.20036975976523383,0.11524768333412157,0.10539091435610229,0.12302956008833528,0.12432610346718714
0.10568267751243118,-0.03470940391537371,0.16110893436991033,0.18089332625224977,0.05034543636416273,0.08880415873938713,0.06596703397822302,0.048240223577020666
0.05983154648069448,-0.021119315502183097,0.09857591957735856,0.115694956685014,-0.01787489188968928,0.032353042133878566,0.05411187270233641,0.16207213526189773
0.09424702833105408,-0.08539385358852356,0.18156909875636335,0.17990010566489417,0.02455734881148071,0.05111014257595031,0.14760790225921158,0.11386195189634223
0.12103433190456878,-0.014745184094651939,0.18125221096870217,0.17550754829915904,0.08449536712526864,0.15184083018744066,0.1725893889173631,0.16954841473758528
0.11698110871661498,-0.0013858136015351488,0.15411859701298933,0.18082231885301603,0.11828529753050555,0.11423686223804595,0.11459786554146544,0.09629844454062478
0.09173499027775228,-0.040779676234193124,0.15541246196738412,0.14409557430700537,0.013540950963114858,0.12815497794212605,0.014241405952371089,-0.08729901928246574
0.09303944210390074,0.03343640968817714,0.1528823578241424,0.16956160527571415,0.03469640374627045,0.0898089734833821,0.07961613532177321,-0.06574837592801958
0.1203300707670639,0.03902143479037136,0.1971904575495094,0.2015910795636615,0.09398456495108415,0.11049042128591734,0.036228698897637385,-0.03079546798499385
0.12122289343595755,0.010066893486663534,0.16574260527804152,0.18175161036213341,0.056209996630381134,0.08442659858491003,0.11689097352028381,-0.016275087898617178
0.08763258768817227,0.017045249653642743,0.11650212643924233,0.14433401820173616,0.0882064348730809,0.0675868600498791,0.09372519786877373,-0.04835736870738496
0.08704778598822911,0.021727222707802574,0.1401061949481606,0.16764927906628627,-0.020059948739040556,0.08019595855851808,0.03493754375181114,-0.0798634942344173
0.13242779764705723,0.15170069260230182,0.19934090316937625,0.23739578174707393,0.09743788060892962,0.13768035360201322,0.1700686510211937,0.07568493932535111
0.13355314660293605,0.08774478416081676,0.20379008263191803,0.19430586151434057,0.08735957699510848,0.1599837935552802,0.10890308010954945,0.017877120701751136
0.10778664270153612,0.0391498845796104,0.13786380931850098,0.1588130913537769,0.0685784340221254,0.09936793418000871,0.08294598167243465,0.03483460961519881
0.10163444622755971,0.04569733782748334,0.14797132782375957,0.15251762509697198,0.03716893453169131,0.06730171526178906,0.04165591647468693,-0.045550570427769714
0.13963784977038832,-0.024676876409130993,0.21056724248858816,0.22889946547477957,0.0710152620319165,0.153645662047291,0.10482906005563902,0.08788685885694221
0.13310588474491974,0.029520618881916955,0.2055451932584219,0.2184300338516359,0.12880354680185105,0.1325651435147078,0.15236375649746228,-0.05062552791287007
0.13451225193459673,0.07035824292769727,0.1610615948311788,0.2011897262869549,0.031418333792506456,0.1441438966288435,0.17064690423685364,0.09276917400227275
0.10517486672131124,0.09664396337746765,0.1588449636040865,0.15002210109751973,0.02841862651110458,0.1042579636625381,0.07872006192429623,0.08157542614590672
0.1304690932059117,-0.003076247710339574,0.19118042105662109,0.24168204611115435,0.08210540511910452,0.16721512292329743,0.08211545726632466,0.07972219925281854
0.14583994344066506,0.02178952999352961,0.19843796027067986,0.24080832648716147,0.10561953126618247,0.1610887538264012,0.1738821015792573,0.05418627583191034
0.1453039928450967,0.11188078192598833,0.19925446241165648,0.215286017810648,0.050749361864066325,0.15655434879143887,0.09766340773128547,0.01583242359092931
0.11242521698707005,0.07535095057216468,0.18946582082935515,0.1774873468025796,0.0771922937033195,0.10051592272755654,0.06253057088174827,0.10468601691637058
0.1742702663935154,0.030027461507452467,0.23087298284216196,0.25036117525406193,0.10846369835018033,0.15886571746212175,0.1424037895466558,0.14648776728078106
0.16567097574645093,0.0688173499586918,0.22182073585527481,0.23288224761329104,0.09714101621917176,0.18822710771422602,0.1420892264965072,0.21912069757670588
0.14120129448992025,-0.02101993885765073,0.20227667816357664,0.20767814815803154,0.09799863202137962,0.14782800875816415,0.13846685679643922,0.04454050768816956
0.11230802515839909,0.06768048673483239,0.19385472652167385,0.17071414123077333,0.05843768169844209,0.1437500177758836,0.11431909269688768,0.13191027572139782
0.17507162379085492,0.1222117979020076,0.23405909858717666,0.23894296427275746,0.08492716570521153,0.12907396456869308,0.1408501693548664,0.2082681808842796
0.16758614852230047,0.10582922033752613,0.23772563915006445,0.267581378713431,0.10370816798696082,0.17351811736576458,0.17737206915851506,0.10510224534372675
0.1621357520944231,0.01900521589682956,0.1987400927220484,0.2393177655863735,0.0937984477110438,0.18184289143515794,0.18153092760959808,0.11588871060986383
0.13615880205969633,0.02425283000352951,0.1859730839379789,0.20694645889352214,0.08646555528564337,0.15609819514702658,0.14783890485718484,0.07680452544989244
0.12875788193295368,0.038575517469815086,0.19979809318332942,0.2260020548076619,0.08941354699782914,0.15174865578920008,0.1852411666686088,0.08624814120543213
0.16474584118431546,0.13105300582229717,0.257027266077132,0.2744731589176809,0.1199747688873272,0.19840984435487694,0.2636316750121655,0.15952415484100366
0.1606706618506598,0.08313501587791916,0.22350940691419588,0.2701179794676498,0.14403120650922227,0.1882890117084488,0.2687583165467356,0.2973909776842631
0.14020900474725595,0.045181196070908355,0.19818841543245982,0.22017399984825003,0.09186819997340513,0.1643357255838668,0.1607290084163564,0.15855923775993422
0.10686836011530222,-0.007402913716321093,0.19109232375039525,0.1921844813269678,0.058794671692648126,0.09468414941262793,0.15576358489815495,0.09426608462196316
0.15070246235360552,0.09731892269755194,0.2223238800273253,0.27672928181628437,0.11439694819587104,0.1747611339328839,0.20178446403807573,0.08448970676036535
0.1676919418564877,0.04478608490062303,0.23616687951005141,0.27064062025501195,0.13172090205085402,0.2236138588690607,0.19382630696389355,-8.672776092771581E-4
0.1409654875178799,0.03504674547377134,0.20259014459088767,0.23717334702511986,0.10314762630547983,0.1674706117742676,0.12043249705480412,-0.025251401147872166
0.09867836203111346,0.10016373362514958,0.2070210717323898,0.20011138706403026,0.11422878522562906,0.2022851374580824,0.06681250227884934,0.05638969087017969
0.16540918990788878,0.0634842317595909,0.24690802773167045,0.2774662332727819,0.14346271619858955,0.18738586379747055,0.21464172271415638,-0.019171305223131013
0.15825879021086686,0.04655398386358759,0.24739908332235347,0.28164163942431114,0.13690417707395805,0.16550937807997218,0.2157394004704029,0.1611309574893744
0.136423470902545,0.08034884521499176,0.21002869008953895,0.24269791782882583,0.11909099577901604,0.14747082910576007,0.13717888356737698,-0.01554222519524125
0.12061133047998988,0.042155281546058875,0.1764337334169392,0.20729718718124612,0.1519522284073599,0.12933610682542088,0.13250665210050988,-0.14471317803183456
0.15509311416627097,0.028439118739256596,0.23024659872143802,0.27086089781219846,0.12512646199956898,0.16193004042343032,0.2159997984526574,0.03593378324528861
0.16024099878167433,0.06184031649238,0.26124516372994006,0.2808404710417191,0.1081979158028004,0.2407675487229336,0.2170188667383784,0.050491739281861264
0.16595893492568084,0.04161385694425571,0.2093756978444183,0.2406279981327718,0.13626547622725863,0.1806354695981041,0.15403137174928253,0.09835545306290487
0.14090114450995464,0.01684559737324923,0.1949712949322338,0.21207187899482732,0.14279621322153682,0.16265862529964945,0.2000622702460166,0.12180889721713006
0.1296769295176016,0.003776171262069155,0.2211052804114365,0.2216026661274512,0.1180951596973022,0.08937198312731098,0.19493703956095756,0.01403329599058666
0.18168559912526452,0.08601434868478415,0.2679698412588163,0.3065865111564111,0.14613847394696913,0.18845520943521202,0.21363838195757048,0.031239279246235558
0.15898189293680942,0.03295932778697382,0.25230608917057074,0.2914386592030574,0.14393677326260726,0.24165729686991086,0.18487304350920547,0.14215109089842398
0.14823905783581845,0.04988826503602671,0.21746781103556895,0.2384185642152485,0.09741967862049802,0.19379621937652414,0.18796327764788395,0.021202738147839746
0.1312987216298677,0.013417831387117106,0.19622474028493306,0.21496605930764587,0.11373009421565225,0.14048434974734356,0.15908928768588537,-0.015144372257161868
0.18469418388905165,0.06376928359217958,0.2574817852854967,0.28145965071815815,0.09781000465653689,0.22290871778838794,0.24417680026065902,0.07991005666323034
0.1638169388822783,0.10056689041492495,0.24948710724701623,0.28530136076226165,0.18938515533092545,0.1678538682077476,0.24002678276027925,0.009288046291792036
0.18491756628533612,0.009346155716052854,0.22883045803368163,0.2601777432457579,0.15150636978938115,0.18945259382410817,0.1551292463331919,0.11380006308590263
0.12467852343787157,0.035825875620124556,0.18001476340368114,0.24674810957109927,0.09215740549684864,0.14155028159815183,0.17657109972301915,0.06440814446904522
0.16816721940501808,0.051661207494144046,0.26407560971808947,0.3082375579898877,0.1387742861802478,0.19925517315772195,0.20792538874065428,0.0668577264861914
0.17627366915702866,-0.043056387601320134,0.26770447379486434,0.29054415975408354,0.1460976642745324,0.21986996258672872,0.21900527064371647,0.13319357409561672
0.1690000547839496,0.08190776680462239,0.2198344542647026,0.2601922239072906,0.0868848621997058,0.16472774192916892,0.15730904361177264,-0.042018541729163
0.14108769915370323,0.0022470950704533837,0.19654306188161277,0.2510111353263636,0.09415579097421209,0.18823314869184726,0.17329909896147722,-0.06243724624108901
0.1802048370233702,0.052514371070074166,0.25604929422990014,0.30277840265641537,0.15772759837520398,0.2087517646119729,0.23114179210054078,0.01746097715599114
0.16393901413359382,0.07919808249442671,0.27040677183022604,0.31157950674909957,0.17535073105071625,0.2665597381990277,0.23563542603294535,0.03174184078101658
0.17499580138755852,0.0614191822039657,0.24352136507476033,0.2542141624621798,0.13910769946507875,0.2513406378842411,0.23128581674598006,-0.05815365459444796
0.12408237470798934,0.00563181406622909,0.17849501080530786,0.20888119956445256,0.10073792269336818,0.15466039513344004,0.1399382113046646,0.0017423838746554625
0.1721333439251614,0.07710395777611248,0.22599253814066342,0.28077493115584284,0.12094799317374579,0.13921422887295884,0.20388384978651072,0.12429960893664019
0.18102691924760186,0.03365246240008422,0.2316908216769733,0.30859374137120155,0.13774005589129132,0.22532798259818437,0.22872842489725892,-0.021029769766286753
0.1584380026580273,0.024585189450420545,0.2343694163063762,0.27204811728584394,0.14663078553751274,0.19976067330879937,0.2015127515076126,-0.10337488645326187
0.13995434952300342,0.023271551158855455,0.19012324165060718,0.24904158190519649,0.11436743235538578,0.19144775163893182,0.14999155977350664,-0.1306338343307738
0.17534650322387607,0.0022561139218934497,0.23265973575300145,0.3100072001132654,0.16046286298782717,0.198276210265844,0.18880615674988277,-0.04288192726478407
0.18972633625031488,0.05967099147492566,0.2586575403772135,0.30437370874023484,0.20137439450015657,0.22458641768930174,0.2034146758370837,-0.04078157469357467
0.16433101020846036,-0.0172636829108994,0.24617122790132412,0.28016190115356077,0.1217668737294697,0.185933287801627,0.20608669341765884,0.07466665695176318
0.13154491745317198,-0.00736443184061526,0.20979062063833057,0.23178897423724878,0.09587220730607779,0.2100058595121289,0.1288407882912814,0.025228163706945694
0.2086509550883495,0.06580818470562558,0.23922884301593872,0.3060450769249154,0.13250198320876244,0.23666443111083213,0.2763427551525968,-0.010345951220347004
0.19352174380912712,0.04794399793617412,0.2654756722593082,0.3278778393164927,0.1869301629514256,0.24863789767401984,0.23340818697640828,-7.409150482495547E-4
0.173703530220054,0.08035284236789289,0.23091944660713554,0.3027629931967134,0.14404460189092275,0.24325648144004697,0.3050996633034751,-0.08044481376113773
0.15431841005301591,0.021296561173311013,0.1912328950309047,0.26201211831412324,0.07066345164663344,0.15077683149607587,0.17587874487068927,0.047700172240612654
0.19575446702510632,0.006004064551823735,0.24029934961593685,0.29714639432585654,0.14806451098211051,0.24595067874654278,0.2612240379238101,0.07854220269664282
0.19519833819081184,0.05305676838031171,0.2500949556348246,0.3088315530982013,0.11904396742351421,0.19816448071628243,0.27895135869927445,-0.12387385427674276
0.17978096933434815,0.039693267185949795,0.21708147507686978,0.2708453896562306,0.17293746628601536,0.13443773215548824,0.20162583258817476,-0.06125005338804281
0.1428386714573324,-0.019654366814306507,0.20045846523587757,0.244409583880771,0.12229225160106073,0.15290603899026484,0.2338195955964043,-0.11635447193698409
0.18535647254389226,-0.02949537610405836,0.2547674818794441,0.30813577161390476,0.17434465624185908,0.19099474821989015,0.20222786789783487,-0.030277867343528907
0.18073637503467213,-0.03050211774889176,0.2584659294475131,0.29325344964437144,0.1482478841033292,0.18392714084983577,0.20145943775718422,-0.06815810437875634
0.1759481860809751,0.07759724870470885,0.20693808275558057,0.262775597150916,0.11395255040589491,0.20369914056612481,0.21178662155244368,0.061770411781032514
0.12236571881423565,-0.0016182750502618329,0.18302800687688564,0.23805048335651058,0.1275755834661361,0.130309782985303,0.1458054420402194,0.06869840479654735
0.1383058920891463,0.05096208512612078,0.2033295430554666,0.26015814420309574,0.13599277174063942,0.23053694160485885,0.21768327676925234,-0.058985317640954806
0.14926069189308247,0.047292317799244685,0.24603624815355354,0.2676810726080848,0.07782965326808179,0.2240779059777575,0.14742072323568053,-0.0803430489219797
0.14965717436533352,0.047891960734170916,0.21751735464381547,0.23421080612079484,0.14185791564992717,0.1842152275441726,0.164160722277936,-0.05223275328484793
0.11135702186843321,-0.0013610336774351824,0.18445140687812556,0.23234386417785827,0.0772455407903131,0.12537175488143576,0.0879835795491777,-0.004889799883160029
0.15772096187827114,0.03895075494164711,0.2138752906788733,0.25911316618267466,0.1363516656984147,0.19488483475867774,0.17777751742196765,-0.09210484935334899
0.13598364686939504,0.003739418868538905,0.19607857493420072,0.2375410848406949,0.09383107032073665,0.15887925583486928,0.19854454790855414,-0.10346866643893814
0.13088172511616172,-0.02154805225827403,0.17401617678945083,0.2144652863338194,0.06616778870145178,0.09544938785726093,0.19361949476395113,-0.04327468189772975
0.13772589834198892,-0.059844647837195133,0.19541141112839172,0.2223481355774918,0.10238046177031788,0.1985837457507436,0.1460745562075669,-0.030777525729160534
0.15598815419995926,-0.06616543453914851,0.18883926540626195,0.2546161149991761,0.11490041984493972,0.135675950156172,0.15978061354128895,-0.07255088950150013
0.11892339366257432,-0.057072673574963484,0.12788500547255752,0.1992949281436407,0.07064392514703147,0.11132257845150173,0.14319731884365958,-0.09099171486985036
0.09435045628899344,-0.04960492418169278,0.14120695709295264,0.17084020571352418,0.037437579500272794,0.05065708955676918,0.04185630880467267,0.023533159839600602
0.1250693491239765,-0.025269203075387273,0.19387924634420833,0.21836950805212066,0.09406999112009931,0.08615338037518115,0.18519191025423412,-0.15924943765122626
0.13776783202075624,0.006944462890363883,0.18771529525338632,0.24064666724902478,0.09226585884894102,0.11582898044551976,0.13949287053957113,0.12871908661643205
0.1003735155676216,-0.016423984388539058,0.15916962335616847,0.20404687399436217,0.024606438547409064,0.15711131355978403,0.11578559848008088,-0.06991969461439985
0.11868334552518195,-0.028204020133580712,0.1470574137836364,0.19551102446446594,0.07487833195171993,0.1147369687761626,0.1322990906472251,-0.18511093020148955
0.13091292360589363,-0.0019146059252599936,0.19784225663604094,0.24718194434547805,0.09131465917378596,0.09343581536517097,0.18623670973340029,-0.07799198806839491
0.14711677121338168,-0.0720794870340234,0.18474474551997422,0.20601790642575826,0.11473533844068831,0.1723587001408615,0.12232394960185825,-0.07545051572057546
0.10032524921122375,-0.07765549872507393,0.12868010199358998,0.1915848686077088,0.0655903221794225,0.07830214993858403,0.06475922804829652,-0.04432391759584296
0.12353849094821634,-0.11797089561495178,0.18838709104287385,0.22593674094561575,0.061567478472049936,0.16799952478157112,0.1903211170194712,-0.16004036418467116
0.1450231083003196,0.013047473901573719,0.20429900003476636,0.2573503853441181,0.060255316061295014,0.137839130691266,0.12117680777701766,-0.13464247663138662
0.11076143434552038,0.008542491930874207,0.18065221999905315,0.1791982338691667,0.01600640245071275,0.10506643275783761,0.10439093152321982,-0.04452502148620558
0.11007952276798473,-0.060109002285106204,0.1294093595379324,0.17697139729141484,0.040049070470073674,0.08263256903421937,0.09198271962287269,-0.09200717008639056
0.12571732968676683,-0.05020770235187697,0.18804626866360577,0.2278665784844053,0.066600905494615,0.1449056794827281,0.2212207020948013,0.005565387745435382
0.1337469792878355,-0.021676165637540514,0.17218014513251345,0.2234074792094104,0.08109914592530662,0.17615198004823857,0.1713429440798312,-0.029865821631664794
0.11969888580844912,-0.014446963016404059,0.14793693883434525,0.1991795228962358,0.06652905434664191,0.1013384916832006,0.11236986160059961,-0.029773696043827444
0.14151913380068934,-0.023962423243888455,0.1839626847289664,0.2057170073008594,0.09035783347190274,0.07771943216614861,0.15265476245303178,-0.06360884021791413
0.1337609782435083,-0.04469886056795231,0.20156999949884027,0.2490323471761354,0.07507068120965794,0.13703181173709322,0.15039941056980674,0.04706271290911238
0.12517464251556665,-0.040856809701172614,0.17339924091540027,0.21196256232297117,0.07888590710402893,0.13340609756310734,0.13750261474677145,0.0704026294436205
0.09507190865449479,-0.025827136194550643,0.17186249227483458,0.1934096783024052,0.07120552657476524,0.1354761549749711,0.070890583871114,-0.033471991163613296
0.15312240919975548,-0.019186793662280308,0.202317511952975,0.2565401018365232,0.0215955145912214,0.08416638681484762,0.14629761429439367,-0.18689963429263917
0.14506119848672133,-0.04585789480424699,0.17214069609978425,0.23540883970327248,0.059044900408295624,0.16005148605327324,0.2168796613375369,0.07120669814998107
0.13714188115005602,0.008441144520973354,0.14059984668406675,0.16298764451660042,0.0731451040431798,0.15409268749101124,0.08539378935650817,0.08461853451062083
0.1396430134963732,-0.026436906079250658,0.1713089143289929,0.2466735804545846,0.07209622669224128,0.13281755429104466,0.16629774524977836,-0.10795372143215018
0.17725600655984952,0.005872643694046936,0.20639470177542849,0.2561883552360215,0.13139975423207953,0.13506828436130724,0.15858618445103473,0.030511746360080888
0.1424012462373102,-0.05584415015142361,0.1760523753923075,0.22900502064185535,0.10540000763138814,0.1346897251635959,0.180269815527596,0.18026695978161683
0.1374262068603393,-0.034220177838219325,0.18191177939821862,0.22398561196254865,0.041032786469239815,0.13126324405967835,0.0749240129859002,0.12757401222119538
0.1974300658034624,-0.029489478704764042,0.2264890990816761,0.26174485065073344,0.09905468354476508,0.1680361809218997,0.16602407762757782,0.22943839818789877
0.17386718183525784,-0.01059175094083922,0.19805062251569416,0.27660109417099993,0.10262361189582125,0.1526593174795473,0.1590951461525672,0.2748456497690579
0.13705506320488461,-0.10317251256649929,0.20695568292797903,0.2319145150737714,0.06764102356903859,0.11054758069267437,0.15455498388474348,0.043308207861826244
0.1819871093839205,-0.036483261899210064,0.20200552228160862,0.24324527360274445,0.07687773676736001,0.1225472247355864,0.1538482588566162,0.08029702737305165
0.1818163516476748,0.00222246445806239,0.23325476080951396,0.27445276165415977,0.09294880614119488,0.19097470016615978,0.201146895136152,-0.02588673410502007
0.17531888761666647,0.0018224772550243672,0.22419752356519315,0.2746891788017584,0.14976281329322502,0.196182354372795,0.18291284313536502,0.06554841093638378
0.16204033742390614,0.04088536936378897,0.22041531876755516,0.2532713823159535,0.1221467932249659,0.09114941517966689,0.17792073651986048,0.1109124386567963
0.18074510306836836,-0.04306086673237705,0.2091894513926769,0.2710312865581988,0.13207428890026157,0.18784814874402989,0.16646656167721452,0.27499592952886703
0.19155936775564925,0.04946945254896837,0.26116161014094186,0.3166334806330099,0.11240585239190784,0.1851167256492501,0.212770271451917,0.21141883900344974
0.1847263770287128,0.0691634466125504,0.20686092971828407,0.27882320503350955,0.11859854222432578,0.1580003739481283,0.18889673471073395,0.10949068581379716
0.15570630384534007,-0.04217848244507353,0.18160862731097505,0.2080771362178424,0.10914655541840494,0.12785414578227505,0.13444958043730082,0.02884586919076702
0.17207425510687357,-0.026236276270020016,0.19845038133125806,0.26687423103377833,0.15363440160650182,0.08803114157899426,0.10004886296475114,0.0012660084927450213
0.1632667599297709,-0.0626747778507075,0.19965513448485955,0.26843336733659506,0.13017560760102403,0.17512524167298804,0.1629817560187078,0.057864032711436884
0.15401489496363138,-0.08408350352141115,0.1801919270981024,0.23167909981238602,0.09785880087296184,0.15316717454411272,0.1816674209236255,0.16631788125675706
0.15205411644529998,-0.010277163833428827,0.20125817830508136,0.249066513642321,0.07865961957768955,0.10363009753436818,0.1336665901104974,0.012773641277600624
0.18366205463204385,0.009393011840296658,0.2160860342877289,0.28778637438139454,0.10009845947231055,0.14930870199760005,0.11509159121254778,0.14182655999583593
0.15771924797950337,-0.04590326642996043,0.21656897745615458,0.25463249658881953,0.08740676198560919,0.19390681906612917,0.16023440746035839,-0.04544223982925662
0.13057841934037046,-0.05575263225776193,0.20639772594560288,0.22520713158143588,0.04185962198906582,0.10793922181369658,0.07848019191503695,0.15172118199859308
0.14283417476737303,-6.336478885796583E-4,0.188856415882643,0.23943172972156795,0.03510160385013777,0.11789166329021825,0.13426113908071644,0.10976780591052945
0.1702529317137679,0.03249160500875508,0.20399601117619082,0.2641218125367882,0.1493967780868189,0.14640451117637598,0.17432745927218152,0.0912065253584995
0.17293455672498018,0.005867911894826907,0.17506583835972425,0.2466142220404702,0.11238291385006009,0.15788169682817507,0.1760477300409311,-0.010202981077967738
0.12917510140332233,-0.04288903147736107,0.1625090703441676,0.20909177831451697,0.0688625449030081,0.10191241706147701,0.05335275530119936,0.02760276037426281
0.14792240791513073,-0.013386745387699957,0.1964300039873936,0.23740146105930954,0.06800307123201102,0.09729306542314915,0.1193497257130346,0.07683430914140313
0.18343241655269804,-0.03874162783161559,0.2083672659563559,0.27453347153945057,0.1124340893459368,0.15109553571461398,0.15589586540626182,0.1565968520841491
0.15171680944831145,-0.01225662114747759,0.19136488877620011,0.2315462516818208,0.09929370453876851,0.11834611381326976,0.08282747598540253,0.056306958359345016
0.13790455307795538,-0.01871607592067651,0.12835754147872666,0.19887090839801738,0.05254385412455756,0.09927183575463858,0.08230418681351578,-0.08432705199258358
0.15213489152272103,-0.04613088089358078,0.16966539186785706,0.21686082392055953,0.05897293708834565,0.20040056081130594,0.0818997420610562,-0.07480457777988937
0.1680446985530905,-0.03611058768832503,0.22326268582399442,0.23350524715269763,0.10943974956086054,0.1536474314990588,0.12483370959815178,-0.07574026951904264
0.14881929341147687,0.03085007900692002,0.16004460770853224,0.2374562565757042,0.08123814710539598,0.10527489800929414,0.09393055920265228,0.08611864599586916
0.1194753234229536,0.009390773007439249,0.1514390524825437,0.16954310303941234,0.049375607519133814,0.07103541492760444,0.09354193834178341,0.07830165907194714
0.16260083749350754,-0.11214302380589411,0.1648180103116421,0.2462634249798278,0.03106585256554049,0.10813727674717755,0.08817405663863424,-0.04244370393184214
0.182674268580701,0.018022170194221723,0.1972486105269484,0.23051970328229168,0.09009209423159473,0.12062794739614012,0.16289418368366435,0.10294113375500116
0.1571624411721998,-0.0030052783782932575,0.1670713127545366,0.21260938737141105,0.10073444697719755,0.04491110921490535,0.1833477261382728,0.018462242925598216
0.13844793586158408,-0.02898597043075941,0.14048729579925462,0.164599473763288,0.08016013443339923,0.08646842459535514,0.0532607832194159,-0.006579791256815254
0.14973353215743104,-0.007521135876818118,0.18746225744364967,0.20897370107168262,0.07066117522416565,0.07314482313573328,0.05179756417075407,0.017620985336403786
0.1762295821751538,-0.0035602271688535856,0.19381604327304267,0.2400547513131167,0.07424975151035997,0.07297921657165207,0.07915083980111884,0.036406368598721844
0.14937171728946969,-0.02677678209016097,0.18419516137440062,0.23674300316964045,0.008347366522307411,0.04482058908341694,0.1539592717377929,-0.125567249085317
0.1402519372951979,0.021704643793584045,0.14640090885740265,0.1834879064919311,0.07581213810812215,0.09462386047985664,0.05094716692542372,0.11621667181290182
0.12716898952270994,0.022890253050624754,0.13164558224082645,0.18264549346918127,-0.022465586222282247,0.03773486512635114,0.12632136386506226,0.040719948936957046
0.16655042982262103,0.020798323806089678,0.20235480310838727,0.2337038192124858,0.07977184180663144,0.07170958773115138,0.09881089155813802,0.04561857641723019
0.13966185550512528,-0.026038014581477954,0.17538823159163386,0.20598269712931697,0.07798435069457164,0.09273206827853349,0.10196358731444927,-0.11942916501061275
0.14708294808530803,-0.012611156172264555,0.15483650133659446,0.18401001496537012,0.04441598681033235,0.08516770437984653,0.0284848043375387,0.020486588697203992
0.11265208166610095,-0.0411636072505292,0.10882213517976327,0.13596695974342327,-0.007931804733603366,0.05890596982588316,0.055429686755874126,-0.055748425151128086
0.16534261323817512,-0.04051325429900546,0.1816163168650167,0.21622661822975214,0.05060205580752676,0.06337900824900983,0.044809050234669454,-0.09802619558494638
0.1688419685687803,-0.0420619812691623,0.19028715959017245,0.21391811219189932,0.0014679472617669886,0.003123819824817287,0.09368451486881707,-0.003520933335448774
0.12150184964642599,-0.051149328765244494,0.1732455549676224,0.19104372847595846,0.05925232866315971,0.021425844578638706,0.07842605104183432,0.01784952486408976
0.08950666360993828,-0.08916532369884651,0.13102133022461923,0.14837013464743415,0.012111722970860616,0.04549136995622832,0.004030451946412993,0.143830638518579
0.12947753184441463,-0.02959852749907144,0.18048615950967664,0.2098308567471695,0.0667823662818687,0.03362661114735319,0.11729015413153922,0.0019497215728760111
0.14232078992651329,-0.06800235236395957,0.21131404845106377,0.2017822367179625,0.007028819265616926,0.07974198175933732,0.09801329690308908,-0.12038824455877069
0.1356385663761534,-0.0023248328235634043,0.14996865986675784,0.18323062469546028,0.010125434264748809,0.08799519832963407,0.07891198622873229,-0.10504986132631276
0.12633477374610158,-0.04240399127067034,0.12828519959041038,0.1450110956100849,0.03358255285031147,0.031771134594005816,0.02066024553692995,-0.11281052465602312
0.13097332424813077,0.01622909736528035,0.149814501693201,0.1637157630116128,-0.02565195567054312,0.055005484109289036,-0.03531141712369375,-0.02544805201306182
0.1414427670621512,-0.01611357084084415,0.1952992710163099,0.22092708735843267,0.010906907061040949,0.07402401479247453,0.05503840136646019,-0.13510945748330894
0.14641537679402658,0.013634042424339445,0.1839402815174834,0.18292142073439857,0.01634055122491489,0.08263870696406155,0.09243319887374737,-0.11437121046409361
0.13382960334719393,-0.020591251071227144,0.12434641616766429,0.17046894686241254,0.014584155876787762,0.002274392878730328,-0.01717714494127549,-0.08236398899869907
0.08591505258803815,-0.07270605584478589,0.1025393332500403,0.12380493942257347,-0.0054824326042754905,0.029702637812658177,0.0410935313138836,-0.04345698620260384
0.13537949220845907,0.09139520069000048,0.18680012805088256,0.18567424949093636,-0.003318435525270494,0.05942140397739399,0.051923888110350445,-0.029100621062904408
0.1369826130356443,-0.03159721705486467,0.1830167490162974,0.20464003327873548,0.05867510023928347,0.09187404228645857,0.07136860550420626,-0.07940070660031483
0.10597026529273798,-0.006648509458661301,0.1263706202920127,0.14672367877065004,0.013455466209054452,0.036979099933330435,0.09836743704050335,-0.023566953364447224
0.09944557845067795,-0.07104579777864906,0.12112045753689724,0.11904688564844708,0.0034813087738895174,-0.0026905536730482595,0.015034642560121424,-0.05034809243428811
0.130120017915612,0.018982103599329947,0.16509603009925072,0.17541904492852448,0.01860560369896964,0.014576723397165401,0.05116432289943694,-0.041911439283597134
0.15094673882848741,-0.059564438695241514,0.1648357693716696,0.17457023405017744,0.057349869601802494,0.06941603625475506,0.039767410586543275,-0.10189410512869837
0.13320681521173783,0.004409475626259161,0.1518750618242263,0.16791879288834718,0.0651437424532104,0.029281758660756288,0.014404728982945963,0.06771720736564682
0.08867619342669836,-0.021864142758879098,0.10589394444650235,0.12286857083767426,-0.003662086107859894,0.016049053559239253,-0.015757846996778447,0.022656596633021598
0.09283203577382679,-0.01807129261458102,0.1337216214067388,0.16026561842251247,0.006244409413932985,0.0608468023709782,0.027796715023873104,-0.008559722842068128
0.13998970736552582,9.152886935466043E-4,0.1822872981818717,0.19062863098005833,-0.031231819360088543,0.060927786490307646,0.00907401505449822,0.006286491370089093
0.1129716526007776,-0.02862795761393968,0.12910283529556876,0.15242459882493112,0.0024576393242879933,0.05560099618493459,0.09122066998050259,-0.07183696743651147
0.08834750906783567,-0.0036428967961465884,0.1085330575946605,0.11712832412781002,-0.03479700518119052,-6.349298899996422E-4,-0.05824082840245102,-0.16229211817852887
0.07931644801654456,0.04482806217222804,0.10975250972300518,0.1218393812902186,-0.03265530928695811,-0.01554094297164068,-4.8493745749320457E-4,-0.00830016142742094
0.15100795828991354,-0.008956020639713529,0.16961908691373231,0.19985792099995278,0.02350530357810621,0.04251957240833495,0.04804759380367737,-0.11802302090943899
0.12933728536345154,-0.026205622504474967,0.16537818086448364,0.16313727899101724,0.012172075375639631,0.032141072211219875,-0.01020951738120757,-0.1315407948386005
0.08120612312911545,-0.14182888365526033,0.11445866962903573,0.11843873896793439,-0.027275432518748158,-0.027309391261540996,-0.024567733438819857,-0.2009789211138339
0.0627960599092453,-0.15314569658256072,0.07317977950770234,0.10367404072249503,0.004924211275433844,-0.010245255867397543,0.03590098282766393,0.0163686636707884
0.12127011495160442,-0.06491484656548373,0.15241625108703524,0.14896044967182612,-0.015878657185049657,0.044982800549001715,-0.012384211721383431,-0.016049122802965964
0.09806622724220339,-0.1295787805082387,0.13959409325795075,0.15661513627670587,-0.024437330148353534,0.03272200203911246,0.04530621336035811,0.10863469474823922
0.10018915014237217,-0.1315381479533443,0.11760460875518113,0.12876261280685983,-0.02850845770414184,0.03840570921340822,0.045998049143358005,-0.04582823714969274
0.06526693681668974,-0.16512859311928021,0.07657066848150987,0.09922186567798918,-0.09251096334680337,-0.020960851133873255,-0.015919195977350916,0.040183703167193593
0.12382214369332575,-0.14192141455143845,0.15861929149549467,0.18126493809459146,0.04833682699082818,0.049469216606176286,0.0767331581191876,0.1091161083639014
0.14109844917778114,-0.13226748910444608,0.15327408128014192,0.19134403921138143,0.031229178830631043,0.021616056366616277,0.08072978099338667,0.14188387294353727
0.11778768039480304,-0.16273990895131138,0.15212812176441265,0.15968108129037187,0.015489029782737633,0.04026850511110276,0.1026072292322858,0.1279998164300669
0.08243609190987382,-0.1669047222824673,0.11043602661179142,0.12111141806259204,-0.0025512831986631407,0.07420330807955722,0.05155824699150723,0.18317432956415822
0.15248848427741016,-0.13387656329741202,0.16613092581029568,0.18877671894787806,0.0030881826753421256,0.15026468489419445,0.08455331919325501,0.20654890367527054
0.12405008667244131,-0.1349781110959777,0.1731493945532088,0.1839870516489684,0.06278328245565977,0.06563430634635671,0.0903409362256296,0.27828639315185816
0.1048359506488628,-0.15455250508486953,0.13238742174541313,0.14931859088920818,0.05581241570954296,0.06057976451376332,0.13347672148950301,0.2588366366117016
0.08142915513656608,-0.1303948743210364,0.10529058560517868,0.07992660003377298,0.01602748038884753,-0.02374459424769341,0.044833845103626174,0.14034840124620088
0.13855486213320442,-0.09327764205004266,0.17052654394102326,0.1619255610998061,0.03786244493019204,0.058445710596452885,0.08711078904076722,0.1792821219222233
0.14290115285984384,-0.09783197799633979,0.15660719213170662,0.1678042343574042,0.08731348746363048,0.08126239414768888,0.08670556457727192,0.19352708262365734
0.0961329191466546,-0.0664193447312405,0.1546816099804006,0.1373092356916102,0.03524820619541829,0.047498806617489134,0.10534374392615346,0.37055978244192656
0.10219913216301847,-0.1084784077531541,0.09353431028183457,0.09984442174890415,0.010927694539438641,0.0671488267514393,0.01359854860615534,0.3332974164293872
0.11521546993962167,-0.06556363459349732,0.13713316081331753,0.1362868801986974,0.036856841262139416,0.04839083691549718,0.037520435879220604,0.3655431620649705
0.12399758789767112,-0.05534753914377132,0.1517623215985636,0.15955488114963245,0.0695785019730094,0.07302204571783807,0.06874028532595378,0.20986562483496868
0.1217139825683736,-0.04140323626574237,0.13717571657006664,0.11426876321772722,0.062143205658601944,0.09122180687002429,0.041988986472529057,0.2301181780771428
0.06960602168967396,-0.0954735813699184,0.09115752474699121,0.0793375721886102,-0.02361637183180205,0.006762033870437574,0.077689436889547,0.21499706699841253
0.0967519460436665,-0.11432829551871157,0.12178246869812477,0.12042113332632462,-0.05417321711421123,0.02796792027655332,0.02416430969755541,0.2565037401336361
0.10936619642039774,-0.03518817019571932,0.12581665762507116,0.141588612241953,0.040544801857688786,0.08555986038931687,0.05074632481191585,0.2542125143588551
0.0956657321783092,-0.11564811051777248,0.12013177303349928,0.10673837481846292,-0.007216046379170709,0.06497306421999621,0.04973442450116205,0.14782564744422805
0.06794705455980322,-0.09990285439552025,0.0842778738990804,0.09871298966332098,-0.03471449828060342,0.04965554061101135,-0.004851833061554427,0.40157091788414745
0.1021815565632083,-0.0905174146152076,0.106134402981373,0.11650453918520472,0.014274605103954674,0.06935785468111733,0.054313146731762046,0.4882594727452873
0.11137615198784537,-0.1052640890620372,0.13124700649931278,0.16166164440421774,0.04237506825419829,0.09355775992326235,0.17185997810300616,0.6328570217505114
0.09268089480556782,-0.004990916172330777,0.10876095083743481,0.11716866607116767,0.006408228328333141,0.08881371929549942,0.08423201799174346,0.507262937958621
0.07731566810049838,-0.0757268615617053,0.07389689122393067,0.08626881093287309,-0.01094114653693328,0.054087854231052404,0.04735570885457861,0.5139837023350404
0.08133439906936016,-0.10604982907222421,0.10915145908749303,0.1073267847799964,0.019179154020149247,-0.01067866324435772,-0.03105308103526097,0.47399245231241494
0.10142150989505681,-0.07048499342348621,0.14108093903667657,0.15116468797776147,0.05015903269935758,0.06690353408186006,0.12403825704585066,0.6157106588067757
0.10990222606099823,-0.06793882559356942,0.10700367698868132,0.12039459534868927,0.06381808630074431,0.06961826543956647,0.16035356336076118,0.5097316131956365
0.06725118918128539,-0.1346999114720891,0.07585184255124933,0.06989497317862668,0.047634612542625715,0.029816798718783667,0.13035159387971393,0.5574751902775965
0.08941442362375579,-0.031147690756661413,0.1184985239055675,0.10087272254457084,-0.0038064273261347514,0.03825411344535252,0.022401889744857146,0.5183908029031146
0.12093544604402437,-0.06711383082689677,0.14776336882545574,0.1484247970570677,0.044040701137254924,0.12339509476933314,0.05464633518320335,0.6904237561011226
0.08652911771437762,-0.11793422640509656,0.09042394705410352,0.1438409813278639,0.024751428000865296,0.06270829101263727,0.11001334752554742,0.5854478183059051
0.07551064555271798,-0.08275474484172485,0.09398951493439305,0.10211150756123596,0.008789749167505951,0.02681556412209026,0.009340139757830719,0.49559858695706105
0.10382436499279553,-0.05742600582461374,0.07724154799181213,0.11914058239905627,-0.012362241730677874,-0.021693403528283747,0.06784748419958805,0.5752044344706074
0.1252919600401418,-0.06420770209160039,0.13208565990727436,0.1498446268486293,0.06607572948960286,0.14212732677390377,0.12884233140244256,0.4727760296933089
0.09697430320834972,-0.08756431721722507,0.1134119364673772,0.1420732831100499,-0.017524915401363667,0.1501086951637821,0.16051692008082916,0.5535153815713486
0.08224333062289113,-0.07190969401552785,0.08636001480862093,0.09874174585994194,-0.0018785556839639702,0.06260314828840517,0.06950043228086734,0.4346275835128775
0.09053253333064559,-0.030096644211221837,0.12088499725075744,0.1331901281427559,0.06191973617861537,0.023500090242004768,-0.005401934645909834,0.5795631139196364
0.11914984908122088,-0.07146765785504511,0.16762779265152147,0.1659923302801603,0.012666199043061117,0.07746031914982306,0.11418063096642106,0.4575329620189786
0.10652982279256307,-0.05457764557699042,0.16543864085308113,0.1450234430942192,0.02538711786446668,0.11683845828805747,0.027816981240755313,0.37293915132908456
0.08238571846557229,-0.06915473902681633,0.09277901569919837,0.12449620889005995,0.033691182707003546,0.05363592870553198,0.054997409952088495,0.4353437487881761
0.09349505531219925,9.870732093593363E-4,0.10756196754005595,0.11303216102971651,0.06356051144499758,0.019510094475811812,0.04281316507590731,0.3810809123087131
0.13826743960596363,0.05429680857876636,0.17935416321740758,0.18262284233464895,0.10035899248266895,0.12916673727850933,0.1515716809214992,0.32220857891186017
0.1210288244551309,-0.051813395130716276,0.15243501862700973,0.1482175237327801,0.09868275048563142,0.06512242367787202,0.08622593977562182,0.22629785967887944
0.09942950513362298,-0.003226497293853944,0.12185707366732716,0.11334245102803835,-0.007584211706807406,0.07818643378580385,0.03454803903268689,0.23627032622641408
0.08026633298154022,-0.011534274061653568,0.11188758323814227,0.12094671265611166,-0.027130262065156386,0.013285212218351342,0.03805984015764613,0.2079804046620937
0.12477592656083503,-0.04053341550597841,0.1633156442004511,0.1696122466828976,0.026206664780080775,0.09997197017883598,0.16742562486917378,0.20197887171023507
0.10871468750178283,-4.593205763932621E-4,0.13838477123197485,0.16555349846331655,0.03480986159380863,0.10742331047815334,0.07473023567242318,0.4143537449189638
0.10830596510750033,-0.14741977214021004,0.12943030476508638,0.11885122589517569,-0.01277918693264395,0.04814888011439197,0.05093110035343734,0.30443486568835715
0.08477751531379157,-0.08357452952547653,0.1178165105086574,0.10854687577990084,-0.030153370663086317,0.061354286341166284,0.03981772715441309,0.1283789360375248
0.13486352845427785,-0.16260886148513712,0.17661124877085305,0.16588916104665152,0.0025358786758068633,0.09464428147036823,0.08101865316231319,0.3237606841951526
0.11908451793013089,-0.09912450356717495,0.14796102754375676,0.18305079205178768,-0.004196325145446238,0.01964103722534571,0.11489553904998387,0.15596190383253264
0.13135143984006925,-0.09290901014833858,0.1256741480559916,0.12628667167224453,0.04294327206739929,0.059838723780242596,0.08251788841598981,0.12106554084723299
0.0757296994969995,-0.13908631994376225,0.09151030679473185,0.08808422089229907,0.026309020719878066,0.01286939728775152,0.03861294288624623,0.21777214711507398
0.11790278239313598,-0.10911812390315546,0.15798957129012092,0.18427083614997847,0.02584851024785422,0.07447795182116655,0.06958767042697378,0.05965430093098294
0.13674561933489768,-0.09690696912342593,0.13646893086473755,0.16824415430281492,0.04518195047320364,0.06416240165932637,0.10235993275745042,0.2435467795225678
0.1088464351590651,-0.06939177810320839,0.13844754377317917,0.1233222285660833,0.026518393899125456,0.03840053189414309,0.051870728669886235,0.2123734827949589
0.06942522611101913,-0.1532855447588336,0.07806093128053337,0.09510244809543059,-0.02683798239014178,0.03159727495712903,0.03201545627216167,0.3491743984000328
0.09977545624099994,-0.11584630238370947,0.12377858632556316,0.14067780459483437,0.024307762245721842,0.021696868710059217,0.06940060903092883,0.10245823734142456
0.12622429460516615,-0.09828434005655858,0.14973285902668554,0.14829391520158086,0.023945848517390476,0.055742927347837486,0.07388647333375056,0.08481946692502206
0.11398419153746779,-0.017662569263797976,0.13006055440350794,0.14941920877293094,0.027026901819484923,0.10183518658964924,0.14032176054299503,0.1675980183195672
0.11345582202686715,-0.04336136038898312,0.09371616347198172,0.08023082633567623,0.008402841292815232,0.01323843649007899,0.03679686105418739,-0.043883979802051526
0.072112399224176,0.010083897737868223,0.08033419386414799,0.07957320401782282,-0.04620757881912403,-0.040012743929075556,0.009389846470939465,-0.09764152599461279
0.13013869661381564,0.018830320633801773,0.14961401912842892,0.16754962624756337,0.019329513786150835,0.05623311172212193,0.015965330797701523,-0.1553812365278565
0.10137744693883634,-0.042968525875313586,0.1327112837955951,0.1350150401137546,-0.01678307594547758,7.852308616238234E-4,0.016953213433615857,-0.13390071221015076
0.06983748910965241,-0.16797638762383574,0.07840605680871836,0.10339227774814104,-0.04929843149817971,-0.006374909806262998,0.02404399237980476,-0.03218769091329656
0.04779664230160649,-0.10545006265216934,0.08535900320645634,0.062527916128733,-0.07787448374982688,-0.01983778310317852,0.0018292518021881525,0.06565644581799333
0.11309936955905242,-0.04231878715721678,0.14697367103766412,0.17499444189582053,0.008784665828230426,0.03130063975181452,0.055179406325229836,-0.00901302126586919
0.09689211338678383,-0.07741422399944972,0.13565357748324078,0.12845042214059332,0.04546523134853468,0.03937384272396791,0.008316877249488062,-0.0320559997315388
0.06526027199806907,-0.09013050667077228,0.10350840292004217,0.09349323183370176,-0.07158950408572257,-0.006493330640829265,0.012448387718047543,0.2534554682244958
0.03144973719062515,-0.13436520455145506,0.07642383386523834,0.05943970072293242,-0.04866726421379131,0.009389665264906763,-0.04748803470572076,0.05110372567693411
0.0823955699345622,-0.15458587400568416,0.09687218827389588,0.14885918073672877,0.03427700912718994,0.01753238354646814,0.043849389882923195,0.22127956228283444
0.10414073018499077,-0.1362308660040494,0.11489314732432716,0.15440155091274607,0.01880045612437996,0.030288676557772603,0.024924097229577332,0.24746524643506815
0.07225794939859073,-0.06689477668833264,0.08617979732339022,0.11373060104742887,-0.02842522811208857,-0.006304761661904714,0.0011022190687735667,0.2311586643324351
0.056849768259256014,-0.14632681402068426,0.061005779747900016,0.05609923741157322,-0.04893377043781361,-0.006665276476645709,-0.03670082004899008,0.026673574600789892
0.11420946976461348,-0.11498900792838297,0.12495512780929154,0.13237169987082442,-0.006968038541288938,0.01865697213842621,-0.021306232698585878,0.08180707240808233
0.09995596006723288,-0.13802753793538725,0.1347695690627894,0.143385811922474,0.03488677489131877,0.010927042869690547,0.05675347870445012,0.33183797548297245
0.07753467401917855,-0.1088368057255933,0.09230114334756692,0.11689666367559075,0.005813016609709448,0.017989909923265067,0.030196500313268267,0.20809773468166703
0.055006249605230935,-0.1542624810641898,0.08109136140572122,0.05688678473283515,-0.006044982476650358,-0.012729456903418705,0.017766744160767598,0.11711532425139891
0.05543476606641238,-0.1291841115452432,0.08360224588873791,0.09615782667277976,-0.0022038557613808076,-0.02144843227995011,-4.2277799819574237E-4,-0.0013258726011027295
0.12097328220867248,-0.17181841459306618,0.1326417620650983,0.13276876763346657,0.05971050227679243,0.03172307466174816,0.026235769797030666,0.09726026288084624
0.08778779313673479,-0.05372560800793942,0.1304968279281087,0.11780572379332778,0.012472725538704715,0.003427075849433727,0.027786455784314237,0.1695685957801792
0.0711647752579939,-0.10652695998882356,0.06461889688822843,0.07374827122462535,-0.10279896126500564,-0.07429610785031761,0.011920891081988665,0.12570702370019066
0.06966846717988369,-0.07653996980422519,0.080098792946222,0.061299183018743146,-0.056624993757420146,-0.05565776078230789,-0.02653597916689135,0.17998408495235266
0.09591161317222087,-0.058110117751902154,0.12476334895163484,0.1287387535839579,0.061709315391676144,0.06919477807993449,0.027257961582878402,0.2254111716240269
0.07380699224907755,-0.08268844580496136,0.10430009804742661,0.10042477797488698,0.018091948404526048,0.06878035831446795,-0.013127205864080864,0.2758708655125643
0.05319381063148667,-0.07267332774611311,0.05978772124685798,0.07503117439464317,-0.03777266940739966,0.05503162836786253,-0.018500662651234717,0.21144449842220012
0.06893806773484254,-0.04091066016132938,0.06291448043603594,0.06454461115865939,-0.03190633701850211,-0.06508719582429151,-0.012537091482831221,0.22111774651270968
0.08510075903600882,-0.09092555326215757,0.12291887664642699,0.11762574337878763,0.022248561482019494,-0.013951800759672338,0.0788088268757429,0.13837734292350748
0.07658109111625698,-0.1184777716207686,0.07804959369952813,0.08330378400193775,-0.014049839984455002,0.06605004773393573,-0.008472488872168584,0.27240921527141454
0.046922488275794726,-0.08794965493417856,0.0524769876105658,0.056910172837611184,-0.0751500685971436,0.014686566820706827,0.0073619614834062675,0.30863730177199733
0.009900304207209306,-0.10239831581873843,0.056714172822444876,0.027691199896809245,-0.04720747608569606,-0.039072347943693596,-0.04547707410433961,0.2393249538608924
0.07337590394174585,-0.09435796755111807,0.10113102153987172,0.10606897972096314,0.004517214164504726,-0.007399739785765218,-0.013913463846366674,0.2878846086558407
0.08948027540166348,-0.061511955476459344,0.07391794407069936,0.09862039817808783,0.04018339270846974,0.01682073102141488,0.01555746418725857,0.05036684335568225
0.054040779640217924,-0.09211214315608099,0.08147753584652238,0.06797617304852972,-0.07821789165221923,0.0315327097096485,-0.024963824839763088,0.15869777718410918
0.034013884707873455,-0.03555510315839075,0.054243144873704234,0.01332111369414857,-0.06243516872699767,-0.05524439546801541,-0.07464347574210146,0.15199378223742102
0.06242283000707429,-0.08357113156365531,0.09868587944631536,0.07073201233420179,-0.01792670263964914,-0.0301429366488566,-0.05931485527680381,0.16599798313376002
0.06897813879734367,-0.04733968578363595,0.11013874297711997,0.10990751596860225,0.025976543633016467,0.0032729562548602436,0.12015934809865218,0.154295602747564
0.06658954787587279,-0.11820715687012098,0.07622362781024458,0.07505996915694373,-0.037355265874983806,0.014132632895522261,-0.008692308910996892,0.3640898111228091
0.03373384989389213,-0.16499499433584106,0.05607394507935239,0.026462206931493364,-0.018595098532513878,-0.07002033082544583,-0.07917754782645867,0.2546805371933033
0.043730564161107634,-0.07289218819059179,0.09105701840052707,0.051168174835566724,-0.061635084366951795,-0.029077561254516177,-0.04578902523566249,0.2563991886700186
0.08224393565175317,-0.008103823597649664,0.11589036452678034,0.10516714739330459,0.04854712684562345,-0.001044231761771023,0.03629956212885309,0.3042235555343177
0.08110353710803735,-0.023550521238281087,0.08436831741412738,0.09548217522057166,0.017880116688751536,0.011508363162297497,0.06087337100341339,0.3909495535392039
0.05995102115601258,-0.05882624579441535,0.05273713693003039,0.03771044056432909,-0.013514483474905269,-0.007905617848821545,-0.03045219168497245,0.410208029380767
0.04448402786090615,-0.06128879245678896,0.08300744817298233,0.06758774938529533,-0.004265189062790812,-0.01818426915746898,0.03941769479827875,0.4036651777095799
0.07649847726540546,-0.02482976528686921,0.10305188430814213,0.1071474993558305,0.02219690304067014,0.038492295007502814,0.0364942441118986,0.30415969499275547
0.0762039556934682,-0.04733011971273237,0.07889626361530508,0.07435306987633616,-0.013443477842137392,0.0068861139421445275,0.0027172050800587173,0.19325496507120488
0.06161763532625036,-2.6515638107186103E-4,0.06034693303273493,0.03618361272519744,-0.056535738345657456,-0.011380217279121115,0.0238317629864725,0.219889438284183
0.027794142601630743,-0.10807235711364638,0.02651762175365265,-0.023493485961989784,-0.06339316969257469,-0.028998486444148822,-0.05566860066589341,0.16933162301201146
0.0968249434914857,-0.04532544188922868,0.11054468494363974,0.1230744194976874,-0.06109882432235168,0.025049786992204493,0.03041355639976043,0.2752475532339472
0.09568480356257619,0.017367564728314876,0.11099882156649668,0.08163057357067172,0.007973046119428244,-0.014286609071885316,0.03899400938673587,0.43804834112668756
0.051637525553599975,-0.04866109073336801,0.08522374408452629,0.059454895467490415,-0.03232143097653345,-0.0011611499702427655,0.0012595968416461642,0.3744411425439064
0.04253133431236116,-0.10324096524052537,0.046954509671936304,0.0037314641539072627,-0.05200972587474793,-0.06571950766354792,-0.006069264072499793,0.530565112622921
0.04070220652891232,-0.06863045726834623,0.06304380647713982,0.023930707750635244,-0.03937042628754328,-0.06048914265039405,-0.039532676534438434,0.45610967752290815
0.1051160590767566,-0.057173117706415574,0.13188969676275591,0.0898728542747914,-0.026699977467604538,0.0702334678617392,0.03933465812734196,0.4101481962788695
0.09273200558258261,-9.295087575300682E-4,0.10831677982191916,0.08465266479243024,0.036124682275123596,-0.04575046025050491,0.017778986834547945,0.4017268899741068
0.04615201391480246,-0.04766809749248834,0.07894387312807731,0.03660432771170237,-0.023812374021764237,0.0405661158262505,-0.04302743686233836,0.37114563796261796
0.013776676243439949,-0.10408379766063384,0.016007536212829757,-0.0051965114886349745,-0.029375130095384006,-0.01692944708531777,-0.008782256362384073,0.24112314869900586
0.05123672437411464,-0.11947087187379747,0.05869640676951988,0.017226794001945808,-0.07555277113871475,-0.03635207576912653,-0.04113643023318881,0.14032292206901284
0.06960170559125105,-0.0903093483365055,0.11087727429110089,0.1018454210038263,-0.022048869827078807,0.02697143688405215,0.09900274845637162,0.2476835154307375
0.06649725061706192,-0.0830171883260221,0.09022335477997358,0.08272443959434486,-0.031484071589134126,-0.05370993275358051,0.03750291624080602,0.2436449161410447
0.03691791531053277,-0.07614457789627432,0.07306002251995375,0.03946913807150016,0.059250255629234624,-0.03695855777612996,0.01793112526058247,0.39951763126757117
0.010614381653018553,-0.05401754230578388,0.043076815437932625,0.001774722342559463,-0.08472382990677725,-0.040718854954158744,-0.05790596592615869,0.42504959898650174
0.08388796686503043,0.029425441826238467,0.11000332175896436,0.10876890625605046,0.016759254726401614,0.00967092255085054,-0.012976578400448599,0.39416636349694956
0.08413810704327174,-0.01802072325305067,0.07438874545047908,0.06305029013069281,0.0278581690337603,0.05522784149278385,0.041064185700269096,0.3087753768333815
0.06353573603256592,-0.033369217751274494,0.05888665876603918,0.051602080824663325,-0.031973354434277027,0.004749646632426924,0.0034344215232157945,0.48810070087490853
0.029237245531904255,-0.12941849003192524,0.03478512796839629,0.020135536230364674,-0.06393785171829913,-0.07784585253191012,-0.047856523853540285,0.3433052745172828
0.06832583436762883,-0.038143485893511055,0.08886137692254378,0.06258661649255538,-0.03505317897304071,-0.047856968261912096,-0.029479078162655117,0.2480300684934872
0.09987773493263243,-0.07224645061119782,0.10015659609949006,0.08687407820965883,-0.04868982127566132,0.022079890141522118,0.03126022432317715,0.12413165974676188
0.09396889231392289,-0.0591922923829305,0.083338734905841,0.06003085573983615,0.015539999282567706,0.007913361200631016,0.02195849345839495,0.22717868978853561
0.046920372988749195,-0.040059426333567474,0.04891833784202285,0.018691991429560493,-0.013186909857957587,0.008092521593431627,8.226011975386437E-4,0.22498680780682992
0.02500495583097402,-0.08435657243918786,0.039138824575333075,-0.005548823582767595,-0.061661554754189045,-0.08735983414417232,-0.05580574146351511,0.32673525530880454
0.11098833301440088,-0.030239991570420847,0.11854237157985936,0.0927957836333536,0.005452123659681613,0.04073646557069322,0.04584371622943279,0.5098470318441182
0.10031777347110069,-0.03434283884586734,0.12777950524780163,0.11254456142798,0.03394193971410477,0.006098449846146308,0.035541543742732,0.3771811711347176
0.0724606019900691,-0.029431727849009034,0.07914873878957346,0.061914117914823916,-0.03263369192885719,0.004857651820614838,-0.04080706600543398,0.3348665321805568
0.03469575950676174,-0.08094014939851597,0.056319902505556324,0.01358158749746182,-0.03695247355208443,-0.018639574291940048,-0.04687119074373215,0.3021574260196211
0.04410559701073392,-0.13052259310815884,0.06296186957498721,0.028213490238442787,-0.08892226718893056,-0.02045604469428444,-0.05347178693193102,0.24990205318271122
0.11142434458761914,0.0036693863851191837,0.0926032908380798,0.11581711064489317,0.03593281877799524,-0.017931227569790653,-0.008057582446140119,0.10895885011478539
0.07292586626139179,-0.09018333615040765,0.11438916427498068,0.10465970628094834,-0.007761011096980897,0.04720840401324463,0.04361663136247549,0.18322673595988018
0.08165173961348658,-0.03480963702972942,0.09408102369546087,0.06356050876698792,-0.014991425127465966,-0.06602868662095518,0.04564790303934049,0.10342839744044192
0.06059712170616267,-0.11312758239320077,0.04695375447450855,0.01803809287249635,-0.03602843260544872,-0.01827420953855698,-0.005120169552515869,0.3205657069787503
0.09998001844047588,-0.04089118221337119,0.1628814493802695,0.10908047489257458,-0.05850585363578126,-8.956223769909269E-4,0.0162114131794992,0.3713275258959904
0.09703252806183049,-0.021145557832254705,0.12540877994415195,0.09692361325447388,0.04544413277564957,0.05444034819722419,-0.004376563581765795,0.23525293616792867
0.08988734747045098,-0.04655970513338663,0.09340086621282574,0.09228202486743425,0.0326810831704222,0.004877761880640453,0.0071882314112559275,0.30523030048909344
0.0558757723242608,0.020250747472336454,0.09850359935407553,0.03728503861606256,-0.013795918838619595,-0.022639441349093757,-0.04171548255593564,0.23067900178437248
0.09881910943115592,-0.04537835506992081,0.12008751958440259,0.09125600071826866,0.037465193983900295,0.014016867999054,0.03265543819729732,0.27916020251393164
0.1430082187306432,-0.01635465749299002,0.14772483333325243,0.12359979050132534,0.005390380523779765,0.043266031426735,0.0290339458987321,0.31982781755049056
0.11324820475896703,-0.04724190635037957,0.11626313239669753,0.09522234577103267,0.06636072604665266,0.005498750909666175,-0.0014456700293641461,0.2277654558830891
0.08172027764110473,-0.054868337720014454,0.08054803773953749,0.068362935288324,-0.020890542316543345,0.026700567248934912,0.03137020004520464,0.23339597213974586
0.06943679669105371,0.03766721636684807,0.09299086984313024,0.04323763240310313,-0.01233010247131877,0.027348497953639382,0.00912748097355325,0.37311042024238694
0.1386523881107574,0.02821866332167636,0.1436404890825789,0.13824147975868656,0.024451898929814246,0.06278569357794475,0.06381279631051172,0.199710703839784
0.12105543491377065,-0.026980223562752936,0.15797244727597426,0.12341617432268814,0.011935031221674408,0.1120105909448694,0.10269201241051278,0.33847335506483245
0.11028625072358177,6.081550139239782E-5,0.14586666567329182,0.1112356555648414,-0.024127982628492015,0.03955484324203261,8.181457355512132E-4,0.2468964914102753
0.07164217244017194,-0.03429065191087333,0.09276397198638851,0.05556246229881255,-0.019983169581060303,0.029800004977894923,-0.0028388665437484996,0.35975651102154843
0.12080600197881863,-0.04025809296838442,0.1298438463409291,0.1067132644755745,0.03837399438233553,0.08027829389951835,-0.028550745842654393,0.30732655501001677
0.14421544654438626,0.02777928958460095,0.16438567182282984,0.16904961765470652,0.07726458530442294,0.11428033958583074,0.08803108292213459,0.389755094648272
0.13474875701713135,-0.0054888531445393424,0.16545600979620811,0.150824941573362,0.09182987028249626,0.0795322689239875,0.10427992060009028,0.3227364426093066
0.0752025265016326,0.006759222199234995,0.11992278397087895,0.1105370033115927,0.050164891225381564,0.09054556073788507,-0.010663812757913435,0.3727281195705851
0.09643984777143233,-0.01848277174030478,0.11702574982020228,0.07559799822413864,0.03693431627118275,0.04523227587224084,0.006407827220620769,0.24444837617820614
0.14950937969950173,0.04529231967194568,0.19147996549871152,0.15773729275462378,-0.021481264407828278,0.10617892298648969,0.04303252055323106,0.2987633010020791
0.13566380340675113,0.020710952320943176,0.16751817842181985,0.1410722922842082,0.07923161457275177,0.11575960660419245,0.07509604878515087,0.298361934846798
0.10589758522537955,0.07673647074508565,0.16059876474372617,0.13314401800792725,0.027636046493824243,0.11688729269564216,0.01650927374104398,0.343124019478104
0.0780383144497997,0.05156166578288978,0.11764202579413818,0.10421999095464603,0.00832605120517639,0.0465451460782193,0.06943886193060039,0.3819372849168912
0.13613737216898664,-0.015395215595035594,0.17295064360192672,0.149868119212452,0.0603218289550685,0.09691217921255404,0.09153253704900821,0.40868985058007135
0.14525071752312668,0.05336852350596833,0.19249450687601705,0.19214498501370322,0.064689756468029,0.09697267022206217,0.09270160139531589,0.3510136235091665
0.14186422923908096,0.029520137099287424,0.1539153157349952,0.14127046912725763,0.02709155079103126,0.06447793321546859,0.14658139971692957,0.37591309335468537
0.09692080860394495,-0.011381219544724024,0.13613253422996557,0.1129103025681299,0.07071809262883948,0.03257797411689368,0.08265101051032171,0.5235749071040277
0.09865806613635965,0.09441635727124338,0.1366106310643079,0.10403334265009428,0.08577719372279904,0.10418109067095947,0.14407869149282979,0.5865984484430643
0.14030525843626465,0.08941054868289412,0.2059734914448071,0.1660980666667494,0.12271401928022845,0.17833088889213705,0.13770766848750682,0.5753110182585051
0.15752067873347847,0.048926996958448724,0.2042648810871301,0.17075562728222846,0.1641200473675375,0.12734315799107884,0.16639838116371422,0.5578551763510046
0.12609358863038175,-0.002421817182059657,0.16947375813635354,0.16052253135076242,0.08609166150894505,0.10029105112989556,0.05957999493661366,0.5448490296527538
0.10430733125061106,0.059654913564191295,0.12781052521558103,0.09944842909017301,0.038219660366619834,0.08537314247627496,0.060033052943409076,0.5739662117962024
0.1252472812192932,9.728250992972932E-4,0.1643012437924032,0.13248533347758049,0.09916255374270898,0.07967736196740875,0.1311586357485265,0.28813487163265616
0.1514659155676805,0.005767873707177086,0.17995744689373705,0.18594702390640794,0.09603777686297983,0.17260954370480897,0.10210001523706842,0.26810728028421
0.1427163614815996,0.04724150776677737,0.1848142658304642,0.17659788937596727,0.04715581616284819,0.13346101793517762,0.14041823457759436,0.16813175668609065
0.09592202540888288,-0.014758175177558902,0.1318892928438059,0.1340036934359585,0.06256635029905612,0.0961671615986902,0.08480365705325367,0.4135700239196739
0.09456755534933214,0.04642369572462383,0.11573096131583338,0.08661218466545158,0.07518350110722916,0.07470953653612909,0.008430536220194493,0.4147774537766732
0.14159487641648147,-0.0034626318094018995,0.193627752761765,0.16442628216122943,0.05742725058843711,0.09730082720947199,0.13255858195568665,0.40756205307334037
0.1429651768743539,0.07060346742237257,0.18768792638046192,0.19182828967145119,0.1483289878941629,0.11983300299444921,0.13047059333039993,0.3810122295438037
0.14284244470842766,0.008907073811282196,0.19239062657025333,0.1672944632074417,0.1112217798551476,0.14596411003220322,0.11948710025283586,0.39878078613380397
0.09549016977612819,-0.035064319170044524,0.13836347632124385,0.13209463615626,0.051102974803813636,0.04889591765737968,0.08145601053941257,0.3976857779478053
0.12075484549102328,0.012844659571194938,0.16224191857024134,0.12928135837615828,0.05200480151592818,0.08552120817080691,0.011761551628395876,0.2690385211537876
0.14648251321884082,0.002179214387575212,0.21673179247503507,0.19619971543991682,0.0993811983031502,0.12576733247259175,0.138776025690881,0.12937328117043775
0.1377148889157208,-0.005415193941955043,0.16478837086984294,0.1857637661969944,0.021668928276399477,0.06732370149779886,0.10508844719301132,0.2790048040018902
0.11208625527080546,-0.005661620259539788,0.1485414187052186,0.15096699884537204,0.07103453387975757,0.021657412015010303,0.14742803015730635,0.2270085019914622
0.09820291781556002,-0.01998815123435696,0.0842844410949477,0.11926686703606221,-0.009447097046952107,0.025760659773840018,0.05959324334731476,0.3525989889091559
0.12679963846579856,0.025288154879167617,0.17755180893205727,0.1928395441108832,0.07680423321231857,0.11791841864200457,0.1129857788123518,0.522101221006385
0.15321141479594116,0.05219843613028878,0.19350430797328272,0.18492684885295288,0.08905289248644248,0.17778550082013397,0.12723092949681525,0.47396461784190175
0.12437497043884883,-0.011117310423873034,0.18678158472282025,0.17419784895419935,0.11816365911614074,0.17302295808265886,0.1771991982673664,0.5246840746543955
0.11851270180972683,0.020986424215168723,0.1425875566014519,0.1399443152559582,0.0833739354728829,0.08308988403518608,0.14585606974183343,0.45282316031030007
0.07120953955230921,0.02540264759209206,0.1158580721483052,0.09637916582713751,0.04052917239521108,0.01990193776979571,0.08391158864794604,0.3292721976075222
0.14615935585466816,0.01997125868783769,0.19457846932220643,0.20368921820860453,0.12066283309628223,0.16692219387443813,0.05930655343226921,0.4096044086264422
0.13483345076702793,0.041532489225666054,0.20273022626692522,0.22340315589582196,0.13899226726432226,0.09415017481381983,0.17161847756402193,0.4746982232298459
0.1514258266862654,0.03843320131587121,0.16337291058460984,0.17153252579829428,0.10137327440554435,0.1540791583641166,0.12928291808153108,0.3928711785704201
0.09013752953418612,0.03965969224226924,0.15182907169527277,0.153704297628608,0.08234765190309311,0.1293086660776598,0.09921463084045648,0.2397823609962882
0.10395681099151641,0.01911209350756813,0.10925605062252533,0.11999823596822826,0.03273853099733719,0.08391067674304788,0.04287049152460687,0.36020676349926706
0.1403765830356569,0.11508681933873277,0.18724565047550762,0.1803834432285386,0.08485016157277844,0.1195420320424775,0.14940115843065818,0.2448875328951516
0.13228200411311603,0.10816309220793972,0.16482248187641113,0.18424694177110904,0.09262455421629924,0.08430547628290523,0.11911744540705618,0.4893475007950623
0.09775495462514919,0.12624266362126194,0.13005904571642127,0.17219194972317178,0.08499529719023878,0.1423584897984829,0.15367864800125644,0.3584881978097584
0.10337068024543038,0.09349576156215059,0.12825873246707697,0.11860792000044908,0.08794443216855329,0.09168467437694196,0.054027890860161465,0.34686968554765213
0.149043016779959,0.08545596005541711,0.2013654096085852,0.20837658862729888,0.09282058383588492,0.12551051652421533,0.056189600919409104,0.40006324221246325
0.11923987441851264,0.046948867192679385,0.17552786503681733,0.1947695455699837,0.05287218602828702,0.19715604603312215,0.10745564493312254,0.43450296912794545
0.11835426098342239,0.04724319704811797,0.16744184133698622,0.16016101490390577,0.009369958987609553,0.12661426556092947,0.06009301501778414,0.2285764000490563
0.07953395741667083,0.06268594876585858,0.10939517981039577,0.13108953032592216,0.01517608443991825,0.09567918840045452,0.08116359204737782,0.3059387542353849
0.12747276771533636,0.11561950764130104,0.17725722807344615,0.188571574561644,0.08550889690619352,0.08239452966189402,0.09318175992862454,0.3032174222827192
0.1332698153960787,0.04352910905710544,0.21108585194798177,0.23948306485831525,0.09404983076696666,0.17146463119035307,0.18767046054567735,0.39683544809708043
0.1312040712784156,0.11224843480931207,0.1999026123885999,0.20709699067455747,0.09964211430667916,0.2162579898169566,0.15485764054688655,0.584788040507875
0.1178137117946892,0.06193527734498518,0.16706423239298684,0.19456971001893414,0.0485327994852162,0.12773605680100159,0.09603390825088699,0.5282584976037845
0.11049245527777307,0.0330783435117261,0.16622929000959757,0.16578933893022504,0.12958213292545911,0.13114586826898617,0.05705707676443587,0.6148889654930213
0.1627341193010502,0.019089399595877056,0.19402631686822142,0.24568487415934886,0.153809477360377,0.1362413271468439,0.16000648873553977,0.5584563808114461
0.14145377184292682,-0.003932462256185375,0.18861504552816508,0.22583968366726992,0.10818708365337422,0.16323645104508577,0.10281344726498522,0.2707352131485977
0.09842974917433468,-0.009938256032738782,0.15895249768654932,0.17583847345276613,0.02189914258382185,0.10205016698121533,0.12894650587377895,0.19749921295269876
0.0768060893804128,0.0055008331081984295,0.14462498214861397,0.1357956119074088,0.0075340259658667275,0.08135220262220781,0.13603252405921024,0.27117752644270177
0.1375810955724601,0.10248629296382719,0.18926764168335894,0.19274338676358205,0.09773225499029684,0.09215743558845217,0.10372300073983254,0.3373439036512741
0.1581592185174109,0.0987183617842491,0.19487443646827973,0.2308056356915673,0.03917079079749755,0.15021032728925288,0.1459262550789588,0.29017983097887745
0.13260749259565593,0.05546705128947963,0.16558844357545352,0.2111231471584599,0.11378450170072471,0.08459968542498872,0.08487900137498114,0.4805023476973274
0.09667425085590557,0.03606381449175934,0.1535786436372639,0.1745957546570631,0.09160176838408093,0.14314442186873474,0.1106562564307626,0.3736660729034685
0.1264484051181201,0.09226194595995323,0.18546575288399048,0.1716511191152491,0.06080555470959133,0.07150050934503116,0.10274783238689647,0.37743266093352174
0.1304045880188557,-0.011415382435319223,0.18052985551197226,0.22120003891805787,0.11101956203577537,0.15223217360203778,0.10504431963457327,0.17485711728739298
0.1352194633189028,0.09218870776343557,0.18520132379246515,0.23698889526931713,0.09247748179376057,0.1262319629781806,0.08280564001327083,0.25227082615435387
0.1100419763641941,0.04666808146073492,0.13699024937066268,0.1798371621589288,0.06682044036784628,0.12867957849233755,0.10369246222885707,0.3044887987476386
0.09570405671538558,0.0035709068719631254,0.1435535446449967,0.17609690966200897,0.1344950364518912,0.09892913870262239,0.01068529846259124,0.40798267603712957
0.16113337978864037,0.05939045104899004,0.2149187127230927,0.23366555217362367,0.100142260615101,0.15699769827025953,0.08441453013349345,0.37015670633008724
0.15539748871130063,0.137866670946447,0.1806288737477028,0.20829850244328382,0.09600099183911687,0.17367010526080412,0.17460688709563885,0.44042700149754715
0.11507652001546845,0.07533330763037482,0.1664810608205435,0.17590074212028997,0.06443034042564484,0.13063713751056524,0.1483117147689038,0.6177949763781188
0.08513343857606903,0.04181036185725135,0.1214583479151794,0.15430718129278398,0.05376283611156136,0.05806891238447394,0.07774244491467897,0.6295560423068814
0.15556055558839696,0.02729517023759728,0.22423230357481633,0.23141394455497633,0.08350907142364629,0.10882524903088305,0.138405795348653,0.3468775633265518
0.16477301244452053,0.022002217320018558,0.22707243409384206,0.22987661383824914,0.07762513804342909,0.1263040545913308,0.11119635129415119,0.3907001282253198
0.14876961086189094,-0.004811840831255118,0.18187835299420954,0.22502377000230334,0.08981857688245017,0.11623975719820563,0.15260664484629186,0.27751287157906807
0.11441509240121764,-8.220876767976111E-4,0.1386431326572699,0.1609284317349786,0.060167778629515625,0.09629480722287435,0.10424372123902348,0.4037162579535324
0.11499326006734172,0.05016654865045532,0.1688543232253051,0.18653827571162535,0.043365878115778286,0.07660729052491327,0.14885026427729764,0.345581471342688
0.15663891035575345,0.04728115056187322,0.22077971022266366,0.2425578269089988,0.10823926155992672,0.14761745028430892,0.1637271605549493,0.5469423375444652
0.14184528279843664,-0.0028479203583982606,0.19151889227212207,0.20998930909302677,0.10862950554356032,0.1524837648984439,0.06695880955734612,0.4604359490696946
0.11198040400472926,0.05597547905791024,0.14289067086875654,0.19460172675856774,0.07791963121235508,0.09467086649590704,0.15036111574559985,0.3906351731592256
0.09734499578985557,0.05200338107609971,0.18305803438138418,0.16823257960974053,0.09451951313147106,0.07815145638666376,0.09576779321390738,0.4517830307252434
0.1607101852230879,0.01108559821143945,0.21391172938012307,0.22714858137629187,0.09258707212243326,0.13788360619138043,0.1836434285911705,0.3428755668089591
0.13558776108427256,0.026423448434453753,0.20653515905735856,0.24126654637040612,0.09763883383592878,0.15973962307658526,0.23007569428966002,0.3556765643387228
0.10464906700496761,0.044797971260611476,0.1724175490992392,0.17950162143083603,0.038313080120276774,0.11944537476260021,0.1258367109603833,0.2754891794009622
0.09734417747711105,0.005491051466792308,0.15267192668432192,0.16040836264058914,0.0013811819686217364,0.05889442399306612,0.038589022708682794,0.19684530863312208
0.14845784997732855,0.01821969879861974,0.23460924964304408,0.23176913195290397,0.08429085986619343,0.11690228384615794,0.11395453227790099,0.18303618581596148
0.1549437305929282,0.04035164750133822,0.19845279264319432,0.24130275336325935,0.06355432864387832,0.08837122892095724,0.13186346740752575,0.16261733480444224
0.13441569279816012,0.024048443219398224,0.18285490793994735,0.216883226588481,0.058243810192201304,0.0848765022095638,0.14563331877017457,0.3549408355435172
0.10186997539819749,0.08842839179006415,0.15214588041695928,0.1792512448920445,0.09855873194470534,0.06567676676348157,0.08607630954974657,0.38428331202878874
0.1276439639381382,0.09538284003617555,0.1666111114661783,0.18986182433185617,0.05543486633312458,0.03305325056057611,0.08799663446189104,0.4048943503513926
0.14045393826071473,0.10765310236031035,0.19717401227407516,0.2306398515781567,0.10042173681748126,0.15945248488426259,0.17842144752461891,0.34735384064519775
0.14165824472502148,0.00681486553885353,0.19904199231709988,0.21877897913313676,0.0744849964028893,0.13275641583431644,0.10091850757384918,0.40446086314817714
0.124634936739352,-0.0250837712933105,0.1400368359460822,0.18981691555029848,0.01661971519600727,0.08692898841193171,0.026748288115169983,0.24461437456475002
0.10890235824089765,-0.04593280329374774,0.1197621215132483,0.14075943479086664,0.022225763484573224,0.03362286504888872,0.02697760303448439,0.15241063186311796
0.16595683836416616,-0.013893040588727252,0.1862043130362815,0.23775871760520637,0.03017294310138584,0.1201720266999706,0.08201863761689938,0.16365780530566088
0.14500616485117815,0.02951212552158192,0.21972758558820984,0.22366338297602528,0.02484779039819102,0.0808674742966758,0.1193077302654461,0.23731796278896208
0.11877483725748514,0.034873270170993745,0.18506021294204164,0.19094420234268908,0.04866363679756157,0.12530885374942308,0.04409029739924416,0.2806809657708102
0.10276298560851736,-0.004161502251618426,0.14392831515061558,0.1781161402816294,0.05096257695170911,0.09342058546330832,0.08493452482950435,0.30478537773258724
0.13922908036142614,0.11537877517666925,0.20173723139740965,0.22741958091132636,-0.0035415869489280345,0.08254132712158808,0.14166334759734905,0.32758797760826985
0.15132432272121177,0.02656915069457982,0.19210701505665959,0.2401227021304269,0.021748627604824503,0.08817964860110952,0.12977519932678705,0.416545361914815
0.10799227816089194,0.06190639488499934,0.19747409019157244,0.19982778318874528,0.0800591599693559,0.13820948040910294,0.13333269186109584,0.2956334220885225
0.10094317834349015,0.027715428823331677,0.13647752847470118,0.1791498648840552,0.03488184290615541,0.06329262821969658,0.07101677925889809,0.2937226799414858
0.12456428370654432,0.07212895469489579,0.16612951017061559,0.21659959700958384,0.021215712755358176,0.0808443650647458,0.09453700410003897,0.20844500061489823
0.15525541602313211,0.05216593733041169,0.210288821008995,0.2221754279918478,0.04723789456353719,0.08290083568397598,0.10815172722569596,0.20574663090721637
0.1399860224439431,-0.020342394274352874,0.18271743951866848,0.20515180410209738,0.06311441784557972,0.11668547607730663,0.178820703490824,0.0059960002003062
0.12094436991486633,0.017594320326152144,0.18646655131923282,0.15845893813241027,0.02948984910689592,0.07023196490786211,0.016222662387902403,0.02296930468513589
0.09745614529742774,-0.01534116145338321,0.13834240457372776,0.1643455193232591,0.0031890428249410686,0.07655938669941326,0.10528127085475458,0.1426586039908206
0.16927926484841355,0.05505468708608016,0.20581584372148307,0.2351442328948399,0.13834688151635302,0.09693233663828414,0.16314461132121238,0.2328852253515605
0.15830267064062664,-0.04125858494840367,0.21728463517901425,0.23723246988062968,0.04549897843705809,0.09406257643268642,0.11476783300906991,0.3072796531631024
0.13616486094105015,-0.026917485962255797,0.1738958041663346,0.1950142182279172,0.03238963660859763,0.1295648707881682,0.09289479686726236,0.32866039285397863
0.10214494446756733,0.009154094962867438,0.13311873854615366,0.14531963336433315,-0.008593599200015858,0.03845288567277943,0.1280066504606757,0.33827002512866805
0.12018495251970754,-0.007607362277973934,0.19067438989093222,0.20212434913326333,0.07201851335285019,0.05906459309759216,0.07686859707705389,0.07768115445477289
0.1510870633627932,0.026464454221830077,0.1945121545490465,0.24113925603196468,0.041838915517167355,0.11161805434211422,0.12030360616349532,0.04487073446032612
0.1321389060678057,-0.007310343556231854,0.16968222126601762,0.21901004847775343,-3.3474862420921557E-4,0.07657058175509088,0.10409030090289174,0.04778199026307694
0.10257234192927948,-0.051502561336222975,0.15792984233855256,0.17118263066252326,-0.028333113452716413,0.04263665364851637,0.05318602312914128,0.10694954556981291
0.0969337415001508,0.022758523680079554,0.15154027894824193,0.18782544972813675,-0.007063948975516654,0.02172229301923849,0.10821711970533765,-0.16402022074515707
0.13711123424365532,-0.024101751194488267,0.19355802957588628,0.2490702794663473,0.04930663693395641,0.07216067599148736,0.03595770203078159,-0.0020190533346331105
0.14545339691119916,0.06277998028172478,0.1985827814816188,0.22376480515473152,0.014543646366546184,0.1152491881650129,0.14799805423193363,0.18091314682960505
0.11480387556722803,1.2880894957618415E-4,0.14803879028469738,0.2025166819436923,0.09217945498130699,0.06777121912683134,0.06892854451500363,0.2327978358820306
0.11149401726382155,-0.070630725232747,0.15785747870530342,0.17089661519603735,0.0665714643702406,0.05046159756557353,0.07963243390723762,0.2544847934554062
0.14878029980538818,-5.632915958764408E-4,0.20436576970331888,0.2392006355267897,0.062474176688621624,0.0912050376744261,0.09551021048873991,0.026741791423786646
0.12810431182694745,0.011910505529276007,0.2166777797919273,0.23121573588450103,0.011556657207699444,0.10356083144549572,0.09955052863735014,0.056931162901288385
0.122992390058483,0.0037261688593107634,0.1435643123481895,0.2052496299273945,0.018458549476732394,0.08507874369474769,0.0763966113202278,0.13066042100214953
0.10796856867848267,-0.04711434728071113,0.142033785761431,0.12481014587420602,0.01780098370822919,0.03084051628325312,0.0642178387072292,0.027935751212883764
0.13189323196055008,-0.04717492469584735,0.2006229791040187,0.21779543999736783,0.05158113520158865,0.017778528389984467,0.0151541606981318,-0.003599382504846742
0.17130967970783856,-0.026062909012764018,0.2099508451508037,0.22146344625037095,0.03707716531560398,0.11247773937595987,0.1268379800913762,0.06237571018660536
0.13999781634707328,0.010228452914768841,0.1808763933378088,0.2344710748325418,0.04873063926482734,0.070297148513345,0.13640848974586184,0.19537430979533565
0.11796750008152,0.012611924933641792,0.1812761146115425,0.16513275401984043,0.026071969833228282,0.09289440490471204,0.0467132953721652,0.38680837352270353
0.10888645347602795,-0.05254424645622116,0.13855886035037707,0.16128905996167175,-0.0023355788009775335,0.07359922256602311,0.05789200527516436,0.24333813620653916
0.15158015585393833,0.0030443973240790734,0.233870510517212,0.23320703726803574,0.02978563785532398,0.1130213786634792,0.12466240235377957,0.17395796713379114
0.14886601487507325,0.049490469554789696,0.18932096039013427,0.21346868288629267,0.010624382484500748,0.07101159211707207,0.08030874725331331,0.20245792389053907
0.12351235259994196,-0.02992761906137827,0.13851593627465095,0.20787623633267407,0.06905012522660638,0.13988755871397124,0.09854594615327014,0.08217259004752224
0.0818824691211029,-0.007687135699257956,0.13461390267632503,0.13093656619276686,0.008932579843872059,0.039790620273800426,0.09108200757261499,0.058069086160548615
0.11583717963287292,-0.038680949995520006,0.1834826285585007,0.20735459023918587,-0.009244382010700452,0.03504825108396676,0.030196927182840432,-0.12188366307330056
0.14707454780552356,0.010884121947736806,0.20635930925425217,0.22150868903011595,-0.0015859311083751767,0.055515946475480644,0.042828363796278426,0.10267427093293234
0.12784267907046923,-0.03191212990744882,0.16802211786068724,0.18914247429459355,0.009497362376490173,0.0932477190551824,0.06966172974238165,0.3391033270913797
0.11265365591981476,0.008108773124595367,0.13654821961054175,0.14548071527492518,0.048597075535584025,0.06499714129456752,0.052750529085523766,0.37596306086808023
0.1227884206290583,0.030806987644727772,0.16110742185613405,0.16994152255699063,0.028273641784922525,-0.022342456471761904,0.048239773824823876,0.23703462787959398
0.1484041483367467,-0.005806886454530926,0.19405425879545934,0.22675039199879832,0.0863447812678613,0.05411378094860363,0.15670718964654626,0.16902940187695376
0.13697196089709618,0.06852192754263238,0.17061847579763995,0.18751782366352315,0.05568321373148364,0.07860119040504338,0.09009331365320429,0.3837017493023816
0.11141982068885214,0.0028137031641288736,0.16369506481395524,0.14477096683941915,0.019094951871930704,0.08199603620263586,0.06585266119503244,0.40112414571866994
0.07757673101918001,-0.0494244477151574,0.11412887920325251,0.10316181011207468,-0.052561745145098066,0.05768267772609182,0.02948018462380761,0.21898470588785848
0.14906392612752703,0.017924310823844197,0.17806433907058328,0.21093510147517774,0.008109053294950324,0.09411106123458379,0.11458631872863619,-0.12182334118205856
0.15429950201988243,-0.0721687989901811,0.19813703779839162,0.1928172220927428,0.0720264673715156,0.0362349356524443,0.08535365625876627,-0.028349449032027102
0.12124175558765973,-0.001576683271628985,0.16932278689284888,0.18911476914883163,0.037437985420028345,0.05610152302015647,0.07044057942573605,0.18971393463832797
0.10643294621598892,0.03393983584558107,0.13134965452512035,0.14696079213875593,-0.003593639595747296,-0.004650981950262766,0.002356543181698345,0.18088189380928898
0.08791291808599523,-0.067919017418889,0.12063336119365754,0.14738230094330107,0.044506652722118414,0.023258035733545054,0.01848536920996406,0.17718928771729545
0.14392564277516182,0.02172300691396709,0.19700460704020145,0.24558624604594062,0.011395853266826766,0.1285928877582863,0.12382591399343196,0.17494261903669706
0.14484611715358808,0.05758821034711037,0.1804221761283347,0.19653542417271086,0.029496488894873583,0.1047439761139771,0.08109118126428082,0.2435458222998821
0.09271691655559755,-0.0040396714510053024,0.16891157068598658,0.17941335411557857,0.02800693653818066,0.06810502831879747,0.10293110824094039,0.18881992016487137
0.08226958754213083,-0.04781378621015362,0.12061757235611245,0.12937746708568562,0.0032793538404042024,0.0012596067057277574,0.032371984391999,0.15815491291572134
0.14082522137439119,-0.05866539763486528,0.1741100216448623,0.2047466087857907,0.025045737090891307,0.07570240344541156,0.10640236766229137,0.18900611981662593
0.15522683635478143,-0.012414632597217116,0.2095617012566681,0.21648115958337247,0.046671297094451496,0.04929481766400838,0.07547717323035463,0.04885116156460063
0.10267640270824321,0.059657707557211476,0.1811240393447594,0.20762538625187937,0.027443592561786315,0.03202172938796849,0.06769495142667442,0.031556597871605
0.09745460002153229,-0.036165320501519445,0.15192098036890136,0.16468824262262124,-0.04577157921360673,0.03684664984191201,0.025503456135058052,0.16424486802593175
0.14207211235042952,0.007353788869499284,0.18870695982403088,0.2213039572557583,0.051932046573611716,0.10258342451215215,0.13602801130638995,0.02971657854211838
0.1566479624851128,-0.014245942032568886,0.23093343613850204,0.24438208751408508,0.02296106766273673,0.19640925003524567,0.1582201475880916,-0.107673011823554
0.17274906650462177,7.05796946116856E-4,0.23020531356717122,0.24643750185460875,0.05563092806125492,0.13506563226452176,0.2021825464113527,-0.04271387590820874
0.10468601680283005,-0.016462371320268274,0.15964571773634106,0.1982508120632876,-0.04041808267569018,0.015343276492034362,0.10905020669382526,-0.05752870711173043
0.13675749771557685,-0.022102111090777688,0.2060603542500781,0.24283427066504815,0.03452162521764981,0.06958916500570937,0.085857852109935,0.03463216408855105
0.1841432334601066,-0.06023849386035942,0.23246092320251616,0.28125884653488953,0.03407686767503855,0.1479096797669306,0.1289301843969433,-0.17486927291994617
0.16290542362832347,-0.04615054037125696,0.2285022008687633,0.29784497581266467,0.019223361268922753,0.1613907324868109,0.13516635913260053,-0.42679337322658284
0.12983323644529582,-0.01322716308148459,0.21232884596136103,0.24029780511893112,-0.012106069471426478,0.09588120492651389,0.09290846811105387,-0.5657222251121511
0.1438316529306718,-0.02668023555032129,0.22411353425790478,0.2626191330287052,-0.014230984189703123,0.15742605490252579,0.18542037811268589,-0.3387179129643951
0.19406526556896272,-0.021843786385464945,0.24862568474068297,0.32689844759500597,0.03934622249790575,0.19285521637883915,0.14206145043547855,-0.08244468482217028
0.16880587101548403,0.011353069749619336,0.2425512418637144,0.2966701324345767,0.06807866850992288,0.10669389275066085,0.1404915337092532,0.1394630585138348
0.15425402739295158,0.033736870479113425,0.20808726360168098,0.25778966376835355,-0.007001623937098365,0.12105925060305751,0.10759459594271703,-0.05741832454152826
0.16767272362445212,-0.0292936842557757,0.26632910666323306,0.31804269803877944,0.0484304899790101,0.11054998372177538,0.13050652153807632,-0.09186040000330334
0.18237814425835244,-0.03205920038970628,0.27892905846116856,0.33421176117343887,0.07386616410285116,0.11425172130689332,0.14928150259786846,-0.044873629755924536
0.18277088249990484,-0.04134743441698341,0.2416400663367555,0.28858821600501816,0.03279733190791803,0.14297047492590798,0.22260867267922543,-0.11062689042778354
0.16242983014560738,-0.0921632303624554,0.23369752725729875,0.29288589940557463,0.03211600512252474,0.08575924581507956,0.14143764899312997,-0.07096154720729433
0.20727718830415343,-0.05098912382962172,0.27295616302494463,0.32573669278353257,0.0575653187162218,0.16976626195261088,0.0934141855124591,-0.053024670859973616
0.16351266505493697,-0.019494063154168614,0.23286391607131712,0.2904267773534556,0.09265406628754443,0.13094580616414528,0.15219718501544685,0.08900890861855179
0.1248760499778905,-0.021691683178071065,0.19519507719361648,0.24093913495628996,0.0489975443188691,0.07776065307086798,0.1498311778107079,0.052644592598898574
0.11466596802697457,-0.007023332221771288,0.19044950464902197,0.23109320794620353,0.07034193194197419,0.08425214188237207,0.16499000517904566,0.18007615048512923
0.19202632216707263,-0.007971330001490154,0.25334238610304816,0.3382217214047969,0.07169697003399053,0.11805467337097786,0.1706096526586327,0.07450416165845375
0.17901285967360842,0.015040692683795523,0.2803462124325539,0.3198293302650094,0.08075161516282843,0.17585716606844454,0.19519745121708143,0.05990108768075936
0.17035984539954255,-0.07874291858708729,0.2678122698443984,0.298343321336121,0.04896849970291253,0.16898314595931047,0.09935363343061354,0.0780275920421493
0.17162151622555155,-0.015646615354735296,0.2335400783209612,0.29352831094570614,0.04190026659875651,0.11989711665269875,0.1801131196733451,0.05199667472454873
0.21163951957295082,-0.03463947555884535,0.30590740043886333,0.36133628546368507,0.0846118889752892,0.207047983767991,0.2161482629669223,0.08918261998848429
0.1954258830970837,-0.010328896284197269,0.2851745387184711,0.3388278452925853,0.11820897659885296,0.17207613972899843,0.13800836290791643,0.02194496551716101
0.19034979214350317,0.011455136283080349,0.2658898274276592,0.30256676766218266,0.09666270775816789,0.11539651187197587,0.18865013230638694,0.1759647198948418
0.17038255616866566,-0.03410071641628754,0.2616280305126682,0.2879934247173651,0.08508281602295638,0.14589914375423554,0.17944147107273442,0.28620947123198315
0.22413813300247493,-0.04192198581569976,0.29868143157656823,0.3574983250735799,0.10984878755115282,0.19126033930724465,0.22459502804770337,0.25477563271508896
0.21482484713028238,0.024582245496181106,0.2959661076525304,0.33503029447599564,0.10916836418614562,0.20129533435766053,0.2193745266457649,0.30308840837067236
0.18689943623663632,0.06959342188782777,0.2595245591605985,0.29638167234053286,0.14302921993397652,0.18031801676398337,0.20156048965634873,0.32925263049409276
0.14565382521829198,-0.022168019203188876,0.22726336364640587,0.2659498413063561,0.07570172977702996,0.13935918804285705,0.1508731127897642,0.13532542392312819
0.20422635237814465,-0.07200550748679467,0.26816522367821183,0.33541499583994844,0.16815817036376968,0.18347589282838747,0.17962339554223536,0.17210304735102855
0.211302943881463,-0.03204491692288612,0.2908594056851758,0.37053393538845825,0.10002670720910276,0.23685820852494696,0.16242045650022047,0.22367674812191563
0.22082036688311116,0.011230316017649077,0.2952362538547047,0.35164758382108957,0.07841659422563246,0.18252606552377698,0.21845740829030516,0.2551999786892856
0.16155506714152526,-0.011632580282705949,0.2390621671544881,0.2958979871491468,0.12212540557860542,0.11152496366009146,0.2178558786926079,0.25260752923131674
0.14643298110517114,-0.05444382654183946,0.21198476903004637,0.27152829965063857,0.07482117836973888,0.11630440052143305,0.14425370735243756,0.27839593126465073
0.2186069170280749,-0.03745258586785517,0.26283128235997566,0.35033953993554834,0.08367861007114127,0.16523452900728117,0.18168018993985047,0.16502509700567974
0.211691788366899,0.041712829902635196,0.2530862039047314,0.2966758211689928,0.10726170324770995,0.14163070135136666,0.16378228795442884,0.2764166490568187
0.172190643373774,0.01976012700200127,0.23740057496094316,0.30106880220987503,0.0663497940822558,0.10199120454754865,0.14042565418085692,0.30759652696537504
0.15502063619503736,-0.049023161164112435,0.19503489712191283,0.24122116307118494,0.0780241304920524,0.1022247431779127,0.16372219769585272,0.2125427457926741
0.18777541266752967,-0.0907805106158285,0.25645940535947054,0.2851123387685022,0.02736917380536627,0.1594405889371107,0.1492463924093964,0.11158706310875963
0.1947300585136097,-0.0377740668351061,0.2612895073030565,0.324886720415608,0.021006311356776514,0.1500693262809475,0.16989079423096268,0.10270636416596379
0.18165160672998465,0.018452554414565486,0.258998582444828,0.2951483741038999,0.06392203790725005,0.11024760731326018,0.10166671205808935,0.10846066294727683
0.15362931664335014,-0.027142510595765022,0.20623836767018697,0.24053205045243334,0.04049485487242361,0.11171146432440208,0.08436939762846424,0.24401303087540901
0.1311537618966919,-0.05500400725806244,0.19714870134048654,0.21435683766452826,0.02561211690426399,0.07281488289974083,0.11848743028946641,0.13166963020062925
0.19073936817396003,-0.03781332509564984,0.264904827239877,0.3227152418462548,0.04645489577211631,0.12729747976800174,0.16657220065126815,-0.05809619679441449
0.17551364369116887,-0.003700210950950403,0.2754620903527727,0.31906667062975036,0.08304830766044057,0.10614747200247075,0.11931884519599857,0.04897130687277129
0.18122384064125618,-0.06408771585039885,0.2549166139234241,0.31234929220582597,0.006291771322633852,0.12084145173686256,0.16921777903991714,-0.04691192825859914
0.1572488470649793,-0.05190636195764764,0.20301253796565663,0.23928248226900242,-0.010809081640529183,0.06834499623634642,0.08065330921227123,0.051823279877829094
0.19305009826412725,-0.0675432677473828,0.25140583723499976,0.311456570334131,0.038091016992130064,0.09354646874538709,0.10396292907527849,0.05495503726535312
0.1982717747055069,-0.023865341485557787,0.2775650473367373,0.34450953083017233,0.04914172017421146,0.07167467259981516,0.1269956673205663,-0.09853631904816348
0.2110314455127695,-0.03883951341616172,0.2720395429918068,0.33150448811688454,0.04885965488403057,0.1388856727191445,0.1747814766803664,-0.12286496866499207
0.1801708082182595,0.062030626540219326,0.24167605356439625,0.2710231598433461,0.02876231277229153,0.052342710648523076,0.12978738696597322,-0.014079399670416066
0.1739959250724735,-1.215466020604154E-4,0.2463095530692081,0.27118762643754035,0.0314612330315232,0.11434760848545365,0.1362768375099234,0.05521473562608479
0.20822131578193626,-0.06659802528950678,0.2906399446773348,0.3569074846988643,0.07334248925198181,0.1715626148665089,0.09726824926146738,0.02908400147534746
0.19675545931974145,-0.10461398519186883,0.28138982077254066,0.2945330070396556,0.09326019867280352,0.10988740208871664,0.13424609757745612,0.04504371823088122
0.19261761234335004,-0.10295691892121793,0.25669787416939416,0.27549041464375573,0.022420286651683292,0.1195400876648796,0.1424092019649505,0.3087770380903478
0.11850868392806638,0.021722133510497402,0.20670342862924465,0.2262129352005895,0.06812112960977988,0.045829417428521396,0.15468752542807665,0.39309942655283037
0.16565581439121344,-0.04305967142778587,0.25803754770787607,0.28211543679994516,0.077651352410699,0.09094691253551543,0.07261915459029478,0.3570112027026573
0.18796613069212842,-0.01040179819577225,0.2586540027036633,0.31834437485166056,0.11227354252013312,0.17642781497409224,0.13955381010407183,0.5271757898640701
0.17609211865768146,-0.04277746313505159,0.2480842718165598,0.29266977542669004,0.0949290660941644,0.1307469217517466,0.16690071670259465,0.45299077784566505
0.14723860666259095,-0.08273943548762307,0.20940019344770458,0.2571812405796376,0.02885866303926965,0.09691635572579255,0.13066982839385247,0.5640719863968993
0.11907205998845462,-0.03680068764769731,0.1801965093928713,0.2114480051489574,0.0785167718396667,0.12886460316136583,0.08841512462484816,0.6030595990788075
0.16424037737560954,-0.06992482329557433,0.2330733763212675,0.2672136234547775,0.04341263566026436,0.1180524805534562,0.17875929160278647,0.5460980990216499
0.14145958377183973,0.02062604714746791,0.24098769721483046,0.2977524794511026,0.09094783248093974,0.1761294718832684,0.10391761732338577,0.6321302866538854
0.16022923039677905,0.09070774314209033,0.19188238287541187,0.23889384773136302,0.1101817368399272,0.13899778782263295,0.16502274156009342,0.6330321592321674
0.10109450350501734,0.03538058287655555,0.18448367244500566,0.18596913804885246,0.014253781536113874,0.050567722062553055,0.11531428363303418,0.41067928484667604
0.1391129780857492,-0.05713580280155789,0.1975339387253136,0.24334028431074284,0.063646829143556,0.14729486123523988,0.12414751712699215,0.15765952363851482
0.15917995514394462,-0.05509448609716729,0.22918556035824345,0.26501907806367725,0.015362798203186997,0.11715355895563644,0.11549819753288715,0.37393877373964995
0.15712480235328638,-0.018263311607225472,0.21670979236959687,0.2292330524863028,0.10517815060187544,0.1249445241891495,0.1667125772160924,0.3851015473007774
0.12538909727320477,-0.05767162168311778,0.17936507423218512,0.17493911353522149,0.026211798450134383,0.06646254102331485,0.11157293956945227,0.3885026688140878
0.12442827276415647,-0.03573705584674598,0.16860022079961903,0.22626637702906607,0.04793292913985046,0.08798285391202314,0.08042302128626042,0.35841255973421515
0.16336283914382876,-0.0771758893855291,0.24761247064221734,0.28091436127022484,0.08380258389003656,0.12475096266892005,0.14084802693939283,0.2623129733111568
0.18236148920967896,0.004462010565168867,0.21900728797036442,0.26963932539258206,0.01705203338330326,0.12743047868132085,0.12296308870293121,0.3804830518642251
0.12754676464445253,0.05338666101899873,0.19414520037304234,0.2141530301949623,0.0611931526031099,0.11630410540806971,0.07302944835815302,0.4227498768846901
0.11309999622447146,0.01639659650686533,0.17530547221265017,0.17100317086155511,0.036322198330333774,0.06377832308941994,0.0813094194840303,0.555155949834133
0.16945741281785426,-0.0412801694947899,0.21889370110002074,0.2597175065804041,0.04800211568546111,0.05443158323769596,0.11748196966306415,0.33951708264703784
0.15236363632194128,-0.06383205665424471,0.21405860091986512,0.2541626777172475,0.005098661922657727,0.07379873326965596,0.11380828037227096,0.10130860375703576
0.13577869011626215,-0.00767696036497339,0.20678075737356766,0.2138896841209709,-0.06472556555285683,0.025376676639743308,0.11271020148687295,-0.10516015027340934
0.11342366479187257,-0.039916183804732414,0.17674782455781843,0.21725045085136066,-0.025506657772909693,0.019921590221699155,0.07140595566912945,-0.014152293620615965
0.17631192588114658,-0.12427812102114905,0.2264266502655085,0.2581057352074256,0.02661503589580033,-0.002639139801826655,0.0926517371269313,-0.06084781987699383
0.17153448414973177,-0.15907107379370122,0.22800355892017923,0.2503874725238769,-0.013849578654772323,0.04703170197403626,0.09919324756925163,-0.33165768203338725
0.1575415393768495,-0.12299170626902076,0.21292159041270617,0.2263990823675163,-0.017783235761829018,0.007351678258576114,0.10782228749450957,-0.2625412667510966
0.13699098243818697,-0.141493763904435,0.16863662559120837,0.1928503241474381,-0.06030147958215602,0.01624301371795404,0.022223533139494094,-0.11076331689840584
0.16977589768283863,-0.1225319237957665,0.2507037063410421,0.26228992409190216,0.002302433196326805,0.050329536562341216,0.12470040808300299,-0.1747142049888505
0.16998436139085787,0.00296406675271459,0.2386011792486348,0.24515317758275187,0.006642847303161952,0.10393234219153485,0.10065238000905964,0.15231403505392022
0.16199238222064807,-0.04190489104286343,0.24255956979539253,0.23772807554338607,0.026769105875718024,0.11192713351533161,0.1486204304005735,0.508728719704206
0.13556838586476982,0.028518456070993632,0.17798903248069214,0.22208272936285062,0.05214472496586028,0.0894171382645931,0.08291474918369454,0.5703528917269708
0.18183229775120271,0.00333739544069672,0.266180672347221,0.27361131870828564,0.058108688875082366,0.11265243725869863,0.10886174110880381,0.5312057091809242
0.19547278359117723,-0.03444780707674604,0.2640771929906509,0.2793283121799583,0.04711240428279154,0.12978531835401869,0.11309972258561084,0.24275836832833467
0.18080002444536986,0.03257915421912355,0.25422285676904527,0.24549914514350768,0.1005233407075521,0.14279662187804293,0.14937374958872549,0.3885264639829603
0.13592597242745066,-0.005394394674699801,0.17755580065749235,0.1969614640983039,0.0580668800525741,0.07162837841916697,0.16113361558358075,0.5000746792055464
0.1601273110403563,-0.01677707699410935,0.2206492481949095,0.24818909984152715,0.036977490766731035,0.07010628070021366,0.08996064786714841,0.27412557846652774
0.18691429787355535,-0.06431284308826701,0.24537598915572925,0.2866882554779112,0.03176344361817747,0.1550467601313086,0.16479939291240897,0.13605155454601048
0.19743633181398587,-0.006358701532511785,0.22800081343689035,0.22948180183769462,0.08902223988496238,0.15844773227020043,0.10938630960656547,0.026110956294919274
0.13577700313257085,-0.05631322727309047,0.2029050102738263,0.22689623325795003,0.024415345869368728,0.08984168305775847,0.12448700405639512,0.3035894536920584
0.1697565005128977,-0.006895367381739646,0.2616335357980026,0.26509765446979644,0.05208960614736615,0.07513307749293943,0.1392683396577606,0.23936995696867247
0.17014995279679235,-0.01731004588899717,0.27495163384667304,0.297035114259255,0.11923781844324645,0.11050017998735576,0.22744702433957067,0.44280157229191835
0.1943063472183566,0.08594971257180783,0.2731817390256553,0.2904719738516725,0.05628776265546305,0.139737150892415,0.15564034827178994,0.37404328110825363
0.16682461032773763,-0.060489498960905844,0.21375700532944128,0.25514015206965157,0.03247886904898061,0.09823901622512413,0.13216985915002444,0.02418780401855907
0.19991449678566278,-0.10284703884573058,0.24550258985658951,0.30075711969486396,0.029279445158722456,0.08113952656361037,0.11301926024764274,-0.06606227078236207
0.2282494946720814,-0.04978825569122319,0.279089201462159,0.32744590884890185,0.06461838097058734,0.14829958931496945,0.18756801297837203,0.17213167311614347
0.20115588636445456,-0.015497148660853343,0.2712946294869888,0.2987910724384724,0.10112263490810235,0.18096882349587579,0.13148725241199843,0.19869713005406445
0.17864104483854498,-0.009736312024435059,0.24497862369319268,0.2489647553800648,0.06967730592923847,0.09580465133286421,0.18551540618651624,-0.045565810475334666
0.20878024028764444,-0.11364676672893648,0.24024037402832168,0.2818516057071713,0.06762881115271457,0.05613915944003471,0.0966903851552412,0.027684115124268036
0.2263865126346532,-0.03938617543350808,0.293500542778008,0.33569328714805413,0.11918597754671419,0.13769453356905095,0.11738276279822837,0.1383010226735809
0.2135022603851989,-0.025571575002528796,0.2948770090199108,0.31539129232984375,0.10841000969069195,0.14431038602201937,0.20250762004261194,0.270381768081272
0.17190479293155111,0.02641142053515064,0.2510542555659413,0.26370197006788304,0.08597977206431304,0.14472318617666888,0.10823230314349101,0.32131401038493596
0.1940064337940116,-0.025552587525258304,0.239084321975213,0.28017678437672894,0.08988656885533745,0.1370251976864149,0.1393154578331934,0.4259977046910164
0.23532878962208478,-0.0023364813741856274,0.29777285900282124,0.31729994151345775,0.10634970940044916,0.15776069583552624,0.1650796287085757,0.4494947746323165
0.22020755465770336,0.016961122697929928,0.314248241524093,0.3032138102348958,0.13703949488040182,0.13927545591213364,0.15767553387921507,0.3520203380203761
0.2106736714003602,-0.022610398278424725,0.24422107960516062,0.2787938802613076,0.11640896479552916,0.07936558772803844,0.15060722023150497,0.3480961081764397
0.17111373188500892,0.013582256750621887,0.2636021429570189,0.27520963732902826,0.0711342078175567,0.10672582815912139,0.1467084366241062,0.22789001218865904
0.22267537642287472,-0.04624700826253834,0.29704568403754017,0.34568433939002935,0.13620378159138424,0.12211010778464473,0.1834354853055016,-0.02210230770793196
0.22072228466707258,-0.10780857805971907,0.29751804802068704,0.3411506679710483,0.10535815307904896,0.17709775621715104,0.18542357315041796,0.16166905795961942
0.2100029716215581,-9.282880500375766E-4,0.25702931257256806,0.27344236901056335,0.07110386656820455,0.14225969274875447,0.19608005677552176,0.4225877181815097
0.18813957538428436,-0.050823188527764296,0.24454848830736756,0.2712145899310662,0.08758276254344952,0.14269727787420833,0.18817644419397841,0.3726577849584917
0.24110343547084667,-0.041355669546007605,0.28994378420719397,0.3415167320023001,0.15444137401127683,0.1588381792365096,0.22975740175655196,0.5136525941592902
0.2367500014958364,-0.08437285624130571,0.3030600474953606,0.34033482348913063,0.11559471040638751,0.2082818183180076,0.1957344929903238,0.34201720944521913
0.2102470619065424,-0.06773851799081482,0.2856148723512091,0.3164698468563274,0.13619339164307703,0.17270546276512547,0.17017298826458893,0.5128446006781912
0.19102039755053898,0.0902207900816012,0.2636120502852212,0.2715122749886278,0.11733516168040804,0.10405758005105191,0.21174252142039637,0.3805662397030818
0.22644494913976107,-0.004056904800140544,0.2981785581075347,0.3231018904342539,0.07860462647815641,0.13082141898266142,0.18723276333752914,0.1658275495125733
0.2333088472716578,-0.05167787545539591,0.28395193125052437,0.3417131818630486,0.11577945978392815,0.237876470643472,0.1653202595576763,0.09919680507246405
0.20597670619179836,-0.05777165958960133,0.2605244462716292,0.2847945400482894,0.09798525016142086,0.13103989550832948,0.23286056825919665,0.2764318016694448
0.18187608075146627,0.029372101400457738,0.23622956199958997,0.2606160710345894,0.1708446282964094,0.15597994917770186,0.20691744022773845,0.6464399632567628
0.1968584006535592,0.10228402154259025,0.27250792230979687,0.2708673680588193,0.12979624379021842,0.170732529114858,0.1891087704289033,0.7380440796747234
0.1987335898632848,0.011702178801486336,0.2963382869740213,0.30202717617579006,0.1386771116766583,0.15222883993121242,0.19752744207442263,0.422851628081873
0.20704164266197556,-0.028054665669442532,0.2654184025278171,0.2805308791789257,0.11590537344957386,0.14058325118032353,0.18079677871867098,0.27657398856481674
0.1809312154437103,-7.334545333789833E-4,0.2700180045935382,0.25311702996317165,0.12184435264014618,0.20335926484548122,0.10993584176923497,0.30407324634479266
0.1868320835637641,-0.00497346396938719,0.27978960176042805,0.2504975838284549,0.1286168825021043,0.12828886252859334,0.1416589255677116,0.5927661775586908
0.22654186734332468,0.05524602117445093,0.26941712719562666,0.31354832335880284,0.12188632599179093,0.1429328815700101,0.2154221065817466,0.4138094577576747
0.2086092234654109,-0.06686820396180827,0.2538383681757868,0.2875021976242996,0.09398850436485667,0.16515597678412391,0.1532886804849615,0.2711488619230088
0.19024539239964505,-0.0593636539333685,0.23780202288489535,0.2589043682758754,0.10437864329093713,0.14106844789059006,0.06221810810332204,0.13884125280608403
0.17447041447013914,-0.11011379075883837,0.24729755170369408,0.2524129385020149,0.08748888915036136,0.09457475660237967,0.1216272467294537,0.2883206808749847
0.2092148230469386,0.04106861719238423,0.2879998824078894,0.29870593723297295,0.10380628632456138,0.16618955090761905,0.19296999059355843,0.24509904797503296
0.20615072152610864,-0.08390933001383195,0.2676032386383779,0.29466998747131334,0.15492324262538873,0.11813955084195799,0.13165163381124248,0.09646993337800698
0.17769594527208163,-0.09584323542253789,0.22537800182991222,0.2521478077367095,0.08203702594340351,0.16930388255452072,0.15095747568387793,0.16647180440382706
0.15474313197173467,-0.01975345714993333,0.19490105538495645,0.21929552713572636,0.032577841723105704,0.08094264038890861,0.04272079227402955,0.4518796622607112
0.19907230154508984,0.08021877553154531,0.2672228014174637,0.28244335883303473,0.13113343863952648,0.12137154861564163,0.1721454895277327,0.6179630642421559
0.20467276852894029,-0.016300494265409915,0.2408997790891193,0.27050954677973965,0.1251708069764881,0.13627437976176426,0.15690325524936152,0.46415185402312853
0.1664340763521826,-0.06918598738691475,0.21492214387798658,0.22137139228688762,0.07298010647961406,0.07054760023826788,0.11285587447052657,0.16864849829974154
0.1720514410027699,-0.01776130187531356,0.21672329470924867,0.22732656853767433,0.06344732950731444,0.09841345770841951,0.07266112942261015,0.24991226825676027
0.2119392362174694,-0.008976228578094488,0.2550939230166536,0.28570953184539083,0.1313576692125014,0.20330319959891166,0.22518925945048635,0.47159525187035567
0.2008974253800046,0.07004292684707747,0.22720520902769292,0.21790394592316598,0.14228111608840266,0.10254778499664592,0.18396466473870823,0.22383964762638492
0.16462496318780484,0.006872455479074191,0.19175195474288537,0.21218258712342325,0.1003497170353172,0.10310207974745964,0.11859495787937424,0.1194744772530779
0.16080162306614887,-0.11078807380766699,0.20081327787798156,0.21198856866670532,-0.02025685527615477,0.13314918934176997,0.1367204739031618,0.04176497864381774
0.18617072389057798,-0.005875671851357139,0.2561623570463795,0.2655985003886488,0.1247867388572033,0.12762434339024709,0.18775567305981614,0.31746337451073203
0.1892007519368865,-0.01262338841479808,0.2289999770628767,0.24054763503089355,0.12849957462776535,0.1609483644188857,0.1600341924443493,0.6313993889622409
0.15895276777683992,0.031899891289717035,0.21293608854078075,0.21672746279435273,0.08826535002869307,0.12553811942624535,0.13129962114504656,0.3252909293337381
0.15943857335283232,-0.07139609691564348,0.21851294467248095,0.21732521599792526,0.06723670949670864,0.11868332306960526,0.09387430944900409,0.28651447237183897
0.19260760896487253,-0.03066691787160407,0.2620111224903253,0.27807478840931915,0.08416366977648697,0.11209124916793149,0.14508599835838099,0.33732115314116545
0.1762695458135723,0.04893259539164577,0.2517476431249718,0.2650273982374832,0.0848242985710317,0.15607951058613412,0.1351641582299179,0.41316405728386113
0.15836884639459986,-0.003952324286228737,0.21931997723851915,0.2084483647267506,0.08796660668355169,0.12168761199438512,0.15547534745331204,0.3570277641006532
0.1493068305515071,-0.08418291460506439,0.2206787033935463,0.22195138375463938,0.05575182254540295,0.15174965929238887,0.10735047856840023,0.20578410481340187
0.21279861913097414,-0.02411346661638916,0.27423311954051505,0.2851676619771734,0.12524571470380727,0.1530961862188895,0.14411587617122984,0.10004904778685544
0.21833383551038713,0.0665150507835037,0.2511870739650585,0.28163245189991126,0.11502589164922895,0.19588373632023198,0.14610300031035497,0.413297445639173
0.18768502114369753,0.024727458029427985,0.25028531391959263,0.2783463251970913,0.1037217024598508,0.20840862001319083,0.1526221794537069,0.5783744247694156
0.19758404404502342,0.07593041552689485,0.23572968054229623,0.24575770270870403,0.1219744534832808,0.11512694600901785,0.12432710462284036,0.5771870386336622
