0.050710822232715086,-0.038378194540259015,0.06059298945269033,0.06857342174505376,-0.0012903029696314412,0.03080590200559065,0.036053546492439324,-0.11001120606929723
0.09484254886114303,0.01788020248813517,0.1391452794368286,0.17863695068236052,0.04381081439979874,0.05789108882921748,0.06087243124088121,-0.1798741678890577
0.093798561064093,-0.0037744200576690073,0.143571557418103,0.18174204318003997,0.023366317425956636,0.07402129957598293,0.0631133768330579,-0.17342090893871343
0.10190081492276294,-0.014617643659199785,0.13138486261817775,0.1602006589972436,0.058845325347350035,0.08765585146382787,0.07844181250062177,-0.06901406046396973
0.04518942823697232,0.0206353787567654,0.09239493801364988,0.11745476701892114,0.005201384814597747,0.046805730059667365,-0.012915291353426655,-0.05535753238448569
0.09594842099373115,0.02867304874914543,0.14075756029871075,0.1649089557762963,0.038361612503984954,0.08674324381878419,0.0841133089334502,-0.021573692347832758
0.12078562063481868,0.036356910049015055,0.177137400373144,0.19482082497021405,0.058334040654574544,0.09735496789554107,0.0964568468388625,-0.10930695610729164
0.10438009762922218,0.04386717826700817,0.1533132870720463,0.17503832345370376,0.046200965936428064,0.08543948899380585,0.10183154563306786,0.06349838503503766
0.08300142594700712,-0.028853611542075802,0.10680677607839806,0.13201065309068824,0.023780169936582274,0.07380637051082467,0.08494189694317825,-0.04669902004024416
0.05877818501453033,-0.014828081587052507,0.10403217039498494,0.12065211559412903,0.03642801904626082,0.06256698783916576,0.06039866161323852,-0.0152320600811331
0.13726378867127378,0.034560213735833456,0.15482449040157095,0.2084129545325451,0.081007977667866,0.14085240905853338,0.18015890036754742,0.06844636300567167
0.11479419235320418,0.0375689721051424,0.16974651313120395,0.19025844211641102,0.08256716475607714,0.1141954384653186,0.13310411168154043,0.0640643856108688
0.08821652110648572,-0.0050432636485073755,0.15328528644758949,0.15860843084085297,0.07908142354308309,0.09052337294400326,0.04703188970500727,-0.1412522526414285
0.07527065754055814,-0.06569846300930392,0.10332066236654194,0.131266480450022,0.038305563468166395,0.05617605126673633,0.05730308971055364,0.06724947464332691
0.12325142779576057,0.04012426537995097,0.16846165248582862,0.22128167152270523,0.09866784282302626,0.14791595696301846,0.10267806185645179,-0.02919155842161968
0.12063261964118972,0.054841361138205834,0.16075179031627418,0.19099060940333767,0.060955800013525886,0.16358179770608425,0.13434656374615056,-0.06035343036353797
0.10350870289232464,0.06547349264967842,0.14907882391968436,0.17058551478035727,0.06759982589896932,0.05659416488760004,0.12270887227032179,-0.09130159891188604
0.07490842646066886,-0.01302206473986043,0.1282630235924491,0.15839327450846097,0.007878727404019077,0.037499096624425104,0.046718156026567516,-0.07873213112081633
0.15071715610663022,0.003995159283103308,0.1990809983184828,0.2355498422533447,0.08135456805382868,0.16397203065182608,0.15016141100535746,-0.1015005027018403
0.12225250907056191,0.07562501937167475,0.17215009693257854,0.21903781021844093,0.1074647718872844,0.1261153181869529,0.1554641513441131,-0.058918561768530525
0.1052201408465567,0.023753483143103785,0.15880403588787886,0.19074614534446563,0.05654540750494257,0.13146034010185598,0.09103828408958162,-0.02492021029468453
0.08477804735564566,0.06006344200390832,0.13963578800211268,0.16678448908165974,0.0631763702311547,0.08324739882465584,0.05027075895172821,-0.08265862911956338
0.15693303417601592,-0.0024538883762745337,0.23053614209262993,0.24867738573347867,0.0843761948706386,0.21229487923123622,0.11517637189154857,-0.004667949490427811
0.14214309468348355,0.023972021851167022,0.2145609936104329,0.24875850254173257,0.12503207455351142,0.15190629847993156,0.15795157249542574,-0.10793271919806482
0.13999356128052537,0.06711461606398302,0.1709758068777874,0.21499624751871704,0.1371473070428493,0.14670326097906491,0.18161026051294188,-0.03722538271184676
0.09779689125726357,0.020922355816487825,0.15826370422716463,0.1929758115832696,0.1168297155153068,0.12517795181743896,0.11880457640661912,-0.05469927154072857
0.14036377326370153,-0.006571688984168038,0.2187592517007254,0.25257235859460175,0.11505350760246108,0.14187196111798372,0.1611376471392621,-0.07955694769572752
0.16225843430043965,0.05567986206476961,0.22311868984586608,0.26458977925011046,0.14771376951886117,0.23650155750899615,0.1871318331568509,0.02122750452879615
0.15746526269147,0.03370719245743931,0.18163024726325255,0.23459872287768288,0.14915224348045725,0.19934918239914476,0.19512417960643844,-0.046307505880240254
0.10106843895538975,-0.02779750695164514,0.16212154953713465,0.19398119752847603,0.1144144496449884,0.1527634521524459,0.17253723508020158,0.08914872781412375
0.12474709832457084,0.05238659078632887,0.1920973668685231,0.23051684913573908,0.1566187525985945,0.15917839115310575,0.16396279140520237,0.0038463832297263544
0.1776228420959345,0.022998839584534206,0.1945285793899073,0.2605450150826963,0.14059239444406543,0.21370691884111248,0.20985138624832203,0.019550964148446988
0.14274938357661623,0.024213594230162956,0.20724905612136854,0.23925620872070946,0.14080912940435733,0.22093373061100335,0.174767057614003,-0.08240734011465825
0.1300074861145854,-0.00834193642136907,0.17668230452960768,0.20250647925861653,0.09615344933153544,0.1656367746646067,0.17259152064559355,0.06347421387915367
0.1534754123190691,0.005592435488473851,0.17754407018649726,0.22994864920634703,0.09883457869034734,0.12479991832066525,0.1693823665185652,-0.07219907791740973
0.16841008472476618,0.001725434009628081,0.21863285586124384,0.279097463916892,0.1784830824595245,0.2154094706376448,0.23638141324851095,-0.01067973838184677
0.13043493852042398,0.007455824560346706,0.20749204644409736,0.24425773267543632,0.1742430430869793,0.19544949014832402,0.27167938121087054,-0.08545094967972958
0.13012240535600764,0.005358367717405169,0.18933868238803278,0.20552809000130118,0.1821622752773424,0.17879850025666252,0.25073459256851,0.09970601307029058
0.11183980581845807,0.012860159077251996,0.15519701866691749,0.192212901850537,0.07840246590900277,0.12290560967625741,0.15572366313046504,0.013810086694199853
0.16730599671230698,0.09152734471339562,0.2395616841045141,0.2692749924028922,0.14700710628873448,0.2062002621891917,0.21811772556446013,0.011605918094121518
0.17010506048867305,0.05559507645252042,0.2253321504972557,0.2589570037941402,0.2035607744252945,0.20035433202325,0.18732912588568393,-0.039307326849442846
0.13743035858317268,0.03240530646850191,0.18959670962335717,0.21965568933335544,0.12773837563658633,0.18248071017774853,0.16414597712625212,-0.016364516756837234
0.10430989017771337,0.011507792624831887,0.1639827854185231,0.1837296900763835,0.10600853746833919,0.1624380095350358,0.17502000564204268,-0.04441083221650472
0.14452120649908742,0.008285711494517622,0.18832154094914516,0.2245336330739603,0.15230656480244975,0.19340085225186227,0.1917041984682474,0.05642052682552158
0.16258724856310414,0.02602365024531471,0.2182071915210667,0.2605844794958483,0.16314855518892835,0.24157184625065667,0.206762104861914,-0.08522511958714872
0.1402667864383143,0.016363757665740965,0.21243772748456663,0.22388199667587277,0.1386503562975546,0.21036902508654226,0.1800193789671769,-0.013883165654525239
0.1184777796065819,-0.027261672069199647,0.186028818904959,0.21922192685834554,0.14399883122388243,0.17651932635579093,0.14585653573985105,0.03472662457894651
0.09587375871307749,-0.013890961176844723,0.15757759400999405,0.16502686175943337,0.09168193989351063,0.14651981512681078,0.155223614669145,-0.03531277136565198
0.14608465308746527,0.004049403438285703,0.2107158357026161,0.24509685883420948,0.16239779891319434,0.23175099275127425,0.2331682462759857,-0.06111020249832836
0.14772376670968235,0.0164020468398438,0.2361777835099108,0.2397752554483556,0.1652529880877169,0.19644342422881542,0.19949646656642592,0.05344115752415653
0.10981099328920027,-0.01629717070761041,0.2049140794394978,0.21398568687462743,0.13587969880390743,0.22835152464382516,0.2017939647752819,-0.028030262276301225
0.09274641081448354,0.012453434114120206,0.14010047388574576,0.15627978926693015,0.15003176494820722,0.16060260818657562,0.1423952797907291,-0.04442510331275073
0.12780369708417702,0.018842661450895883,0.19330298079322555,0.20784003307637341,0.1336624321536952,0.18551486906192227,0.22202178820704627,-0.026077176273956167
0.15420150838284316,0.028993289753592524,0.21142175829880086,0.24622098922444563,0.15443823703229526,0.19892623965281478,0.1947056493357208,-0.142335994030083
0.1405917378328833,0.05203303056467318,0.18983600895383584,0.2076635628914282,0.14447725063328157,0.1932049052916493,0.17633622218079287,0.0011289044378644097
0.09873493311378634,0.021057168729802452,0.14614039115841543,0.17248719449773225,0.09103236370787232,0.14924317548980368,0.12779038929920578,-0.1238754751999138
0.07684484982354202,-0.0153481538971946,0.14899339696675803,0.13510169936599029,0.07727871092646046,0.10076539779157273,0.13080299745604876,-0.10538388496204253
0.13872225608040703,0.043115978003445486,0.21141853788125795,0.22135878113146903,0.15460838744670172,0.1621006944855516,0.20371407835353264,-0.027056384237627157
0.14487809483766098,0.03986669394527678,0.20468319734184978,0.23217999943556672,0.1632412744406876,0.18645879684684288,0.113754742362232,-0.027154791756823136
0.11720831345715937,0.01658774295364119,0.18632572849692708,0.1838560289996524,0.13074136999186894,0.12530256421442215,0.13984203026998307,-0.008490670482014977
0.07258926897607135,0.0407396515422106,0.1296450127082769,0.13651172197859637,0.0801535227948688,0.09471416244035294,0.07133660239479214,-0.06003385078372871
0.059213270902780515,-0.03702407000607758,0.10297073190168374,0.10006330115015796,0.050522156362735944,0.11305729250105975,0.007080533468943419,-4.168814205046216E-4
0.12972547089003036,0.005828876371217392,0.19521674724329355,0.1984259519575253,0.1015879885353867,0.15494957122535036,0.11499942413142727,0.07774902422008356
0.12484179416771699,0.022153500659676667,0.1640641402679953,0.1810344189142153,0.11721318188919623,0.13104943390696516,0.16853886740643942,0.014993387991361282
0.10130064834896065,-0.0028099921420026547,0.14591555774736364,0.15022323191642878,0.06690269991126592,0.1315052141187314,0.1079383025582081,-0.08625743594750024
0.059550914312868984,-0.04055505037464746,0.11088703868488214,0.09610166590787994,0.06496008717447596,0.09954523875953641,0.07676720784440617,-0.0485469294260262
0.09371383849420553,0.0038999908528373362,0.14878284063240438,0.15402150694702718,0.09907928342111802,0.13208690255494526,0.15067703424165285,-0.015491045306374473
0.10679485367602282,0.027603458427070536,0.1612843137544959,0.16282941532031348,0.06220042691228032,0.1367398676145905,0.09962000369239839,-0.08951152309700029
0.09841504835431317,-0.03846716126082813,0.15141408103699755,0.14579785579928256,0.07095668789194104,0.05658966637277219,0.12767902751251162,-0.045036300466260476
0.06954104673244138,-0.04762037137660514,0.10536246135874205,0.0938688747663331,0.03916943976144874,0.10525232445606977,0.08184262954153616,0.02077073377436934
0.06132250113493668,-0.06546543790273948,0.11667414689329489,0.11312132740485224,0.037509738794572305,0.0449655085244174,0.10129317731371075,0.009135410222356796
0.12310868907330058,-0.025677940961330425,0.18064543095689917,0.16315101309982669,0.07375588197320539,0.12168633595167597,0.13461291918855478,-0.02649914060946323
0.09189865641803525,0.01737140470092696,0.15095923447743648,0.13412206254543213,0.08937123229823953,0.10653379792180702,0.13015241823208912,0.02540494231328634
0.05298018039396312,-0.013544643287614315,0.11217199626152091,0.09629911798401322,0.10695003827827704,0.11066062922687173,0.10453889853917946,0.045738678500513504
0.0261726206793104,-0.05450724943161464,0.06458035880666035,0.05150573796157719,0.027276053252706635,0.08741631696460567,-0.0010852380971031507,0.1248974422172664
0.10769728912760576,-0.06135123973936904,0.14225123862700303,0.13783990281848618,0.06663592852864529,0.10543865153579546,0.07599588844113735,0.032937825716970584
0.09971377742437225,-0.038689141982443845,0.16204824355902153,0.14477258114612415,0.11881204893458958,0.10978677173740566,0.11738863140456476,0.1395995204488532
0.0908054397373533,-0.0030964100687806027,0.12882894604967743,0.12229948710061594,0.041391905568317996,0.12476572459215311,0.11728953997871568,0.05049663087846244
0.047132606147432275,-0.04090950229034813,0.1111275256186538,0.07485745682997706,0.026280836898619826,0.08886287586403424,0.09014124849579522,0.03565793124558848
0.03132724663695518,-0.10840338190759574,0.08814517871233257,0.06994431399110686,0.0020023761383898622,0.04207483798238456,0.015206572531802298,-0.022359944837902594
0.11218998558915358,-0.031200840984845393,0.14093545642810984,0.14443488342713984,0.08860776532396546,0.10340601951277276,0.12762157929208465,0.01806953207961246
0.0978408503191172,0.008426384737720062,0.14415125404349582,0.13761952679465506,0.09221334167351494,0.08006532973774266,0.10374277850968626,0.0914913969090133
0.06830298248452288,-0.03206319868517381,0.12155940728988271,0.11096743939126844,0.04823974992203117,0.07030692331749835,0.06497854351627717,0.026653727442145662
0.021143114559156587,-0.03214752177016347,0.057941372793585584,0.04064793537254817,-0.024509346557477767,0.015593474896275574,0.017279756209123615,0.10257065482053757
0.05991544076135349,-0.07715086414901244,0.12911908182801976,0.11565368243341656,0.026005014147126564,0.04016009206469068,0.09078781756909257,0.07272065863836377
0.09442010776270053,-0.019969535303170454,0.13637747310738949,0.11479428458683794,0.0730561710379124,0.1160201197056071,0.12929739329678877,0.12161143504361457
0.07762777592713925,-0.006253508046068846,0.11245019959186059,0.11066435412967748,0.08747963422749505,0.08284470213448775,0.10362613869251744,0.06625309241538042
0.048894397731727594,-0.04380353894019831,0.1021008580953134,0.06776117575664564,0.009799103504067949,0.05375993484204242,0.0024415228666398343,-0.09930189126033304
0.05884580618551631,0.016454959722678585,0.10527352425739417,0.10517567533254424,0.021935697094611482,0.03075860815519757,0.06070492160288298,-0.07218007981297733
0.08883129540999901,0.033959648525682666,0.15535021739544763,0.13895965967299573,0.06391569613713102,0.049214688568590806,0.0033038991805024107,-0.047045768973700205
0.0812653636676821,0.008228422716408012,0.12251750304532899,0.11468667138909519,0.03433369458946503,0.05774199122344005,0.10005509523951221,-0.043049169486086766
0.0553261890540705,0.00285873907472251,0.07251301064607371,0.0753990548248092,0.04117478337173968,0.034510073664858414,0.04801925615055336,-0.058677555359021735
0.051364952015304596,0.007291078087857259,0.09415186016980974,0.1010633786839345,-0.02707001815622893,0.043842720986222064,0.037168631183386494,-0.0788154174285661
0.10611878996776616,0.13362274897602958,0.1608655793075821,0.17515620094760087,0.06647451666427483,0.10167003043065956,0.13833657063046412,0.053463238048972905
0.10188873056252089,0.07219624993688564,0.15886397283100576,0.14077282124671295,0.06187982759554028,0.11858816189291721,0.09280896456205345,9.68776931259973E-4
0.08261375058387978,0.019999623904889203,0.10119282438304766,0.09695463038332441,0.056980595774512324,0.06080789308730069,0.05833498525962573,0.0093539866666194
0.05735779467564979,0.03063047274439303,0.10269527778327966,0.0927477077384361,0.02354365238336976,0.048419505670657254,0.024146643140245866,-0.0735866285230564
0.10836358211277822,-0.009007881191623934,0.1751049924866963,0.16789435239776246,0.07393419753776447,0.13904601146045353,0.0982516532153764,0.056488988140857684
0.11505587329658559,0.0283776529572234,0.1662096920266967,0.1503608027957256,0.09857004273075609,0.10804426635821496,0.12040559700173567,-0.03885120470927718
0.09411564819226911,0.05622944068308789,0.11860387032072317,0.13442985422055928,0.035669948058363134,0.07088722694653346,0.0763345955404822,0.053692963674651435
0.07459619110507691,0.06982477651115915,0.11516331632520127,0.09789745193959304,0.03313165794181091,0.07202692557982332,0.030509952542933913,0.03866322815729167
0.10617698732738526,0.0074608038337052145,0.15482576503953938,0.1735647884193346,0.07939137079344095,0.1354753149971242,0.10849056579203198,0.06503668613829705
0.11473038448278995,0.019745317339826405,0.16367791240438992,0.1790359404117854,0.102997614769225,0.12560853840022143,0.13763661553214793,0.03562202699805003
0.1081095626150827,0.0871068299102088,0.15266970485186154,0.14792415766462497,0.0689320369250715,0.11530719265961367,0.09915210271479737,0.01915444295516254
0.09048730309186781,0.05790214623245858,0.14669422911860405,0.10955574683940829,0.07064749309911142,0.06840942917044969,0.07901083007767831,0.08163376488558735
0.14573396695338248,0.034710634731124755,0.18836892961616314,0.1864241099521708,0.10099170102656554,0.14180684670413848,0.13971276593600437,0.11595851122262107
0.13373842068741532,0.0716875877985868,0.19101601669728036,0.18862257314048936,0.1028313707262244,0.15384725530802132,0.14280650762581512,0.17343190330191346
0.10823151207107198,-0.016591933507787163,0.16438625843181415,0.14683239425651518,0.10304826655666977,0.1280383130767597,0.11678289485041188,0.06133450124739932
0.08613740474696617,0.05405596313918503,0.1461753707842499,0.11077775385029565,0.06419010794224847,0.11027057102963284,0.11038965508423779,0.11592205428285977
0.14358153910951219,0.10766666192723907,0.19210417565724908,0.18242483515902091,0.09958901065879477,0.10367070981768185,0.16435986156441718,0.17696203332184707
0.14555019454436857,0.09647805364761626,0.19718773105262477,0.20050591557873965,0.11671150742173902,0.15221251001371294,0.17179248533608812,0.07785876212456733
0.12629766708901222,0.013169877067568192,0.16960531931851666,0.1784941230309497,0.09320081933695243,0.13422608481582793,0.14868282210482892,0.10267629228563792
0.10704217148586294,0.0324600295536288,0.15000763435163866,0.14558927222712245,0.08380864834292343,0.1386005051071639,0.12545012828048624,0.05230364760483178
0.10709756763767918,0.04289800978600808,0.16306575878339785,0.1579352570145789,0.09479113041311743,0.1207921281437821,0.1430456248794611,0.0789771366543991
0.14711237306193603,0.12299073935877677,0.21341937666067426,0.2232338486032647,0.11395790492801781,0.17450314847032156,0.2561141983074055,0.158842250485651
0.14906591607685676,0.09317002544343743,0.18849784805629802,0.21614387085584086,0.1543794469865397,0.18131774349526808,0.25460991032763025,0.2460333916793933
0.11373196263777835,0.04561073533781542,0.16499044869898472,0.1662658333147234,0.0910143419339283,0.13596580876142456,0.17556406745502356,0.13717817554416348
0.08859208911865296,2.900147953479211E-4,0.145559182970813,0.14009363513517742,0.0599170959206613,0.07911319993201307,0.11781201777027549,0.0882180637945426
0.1347359980483181,0.09587878752067136,0.18485928479267333,0.2171469663519376,0.11149227888335789,0.1546321138735431,0.16870944921158545,0.09027131545660176
0.13790694378396468,0.05285067164910336,0.20188833529300457,0.22357225846472875,0.12825906390812905,0.18664087248636116,0.20773554386427096,0.019612657623914988
0.11273796312225642,0.04712017815499297,0.16474393352386915,0.18981871222888516,0.13341008907963195,0.14877992899875156,0.13015411650310754,-0.028614810041904484
0.08474685772212551,0.08606446555367966,0.161837049073303,0.15041283416694012,0.100058820039687,0.13978968813090933,0.07847981938441051,0.038160631693105435
0.138850719884791,0.07222391221096224,0.20626339246234923,0.21718228542328852,0.13162733327171813,0.1531414739069303,0.19348476264344608,-0.01331091758528681
0.14227808708645417,0.05861966339313342,0.20885150961314003,0.23155096896988467,0.1370072000273916,0.1528092814750165,0.19908443585585217,0.14280792903238193
0.11293861436460652,0.07416039488964106,0.1767454164112122,0.2008128464407738,0.10882369656802349,0.1299463789421694,0.13063485656027266,-0.023507186851689604
0.08940818840443149,0.036273002298706655,0.14067323361024053,0.15693620971428782,0.1230689694674841,0.09411416490070242,0.09517006215229175,-0.13064506128644904
0.1350346220237748,0.035931178212831906,0.18967126453319658,0.21033729927155115,0.11704103668817989,0.11846855387479718,0.17320584153186147,0.02823093948484439
0.13377132311048823,0.0744556560236844,0.22482850745977145,0.24763055179219343,0.11932521928305367,0.20107776847486394,0.19548316577242442,0.04466282186309368
0.13490468005148643,0.05235843153401541,0.1797113116887163,0.21000566153960168,0.12899211679780923,0.14319117015888388,0.1448452681752777,0.10643668111787685
0.1198509006338138,0.03268840969837396,0.15611592758257414,0.1776936500108044,0.12156937893107682,0.12345088136525957,0.18099001695506323,0.08405208322148067
0.09835982522454031,0.015088485976415043,0.17603872678047663,0.17833477509776052,0.10881755746316195,0.10926657026597265,0.1796301296346393,0.007200413878640836
0.15211354098887714,0.09264729151665967,0.23188333424143787,0.26316984295288015,0.14862335675994912,0.15023817019759833,0.18556916095157877,0.04361110879182676
0.14740910930853618,0.0566704105015014,0.2173620215964131,0.24431261725915668,0.1298179721434662,0.1985144354161545,0.189401135495388,0.11225637552145824
0.1246192917369242,0.061984369819552576,0.18052533654437097,0.1966233350592167,0.10359202180641469,0.14161372039958559,0.16844814213071815,0.027063871175194945
0.09210870560461525,0.016153695227242058,0.16041332348136506,0.1632490485043781,0.10184069563495787,0.09305235704624944,0.1328081327695575,-0.0011233421990523035
0.15337422753455604,0.07520388665612948,0.2210657782171166,0.2280374547699254,0.10517009727803235,0.18970205174264965,0.21446391608146761,0.08727000790594959
0.14234653448292028,0.10758250372244844,0.21457438476346807,0.24109429854201156,0.1622765651901497,0.12359997619453487,0.2112895673387153,0.02165614363334141
0.1450777915607292,0.02655913515726999,0.1890053142232944,0.21640117408185766,0.12310394183858908,0.1599341225511514,0.13367788583560955,0.10317370980795987
0.1002400035439666,0.03567914424271144,0.14723945437911531,0.18275282962923953,0.07988936981198864,0.11780291378178073,0.16201268623578696,0.042754814444415534
0.13976746896161293,0.05782205340668744,0.2255111234246378,0.2536051717132724,0.12024426823755255,0.17610594421901593,0.19284368875229863,0.06835424512100019
0.15046140745886372,-0.007920636292152977,0.2267078765240582,0.24287923604322395,0.12283505353492903,0.1708091390340788,0.19695241313114378,0.12650402639561434
0.1420982873625608,0.0738208803493337,0.18192806756941457,0.21318543967860482,0.09144565010046873,0.12319218625069554,0.1553385467734017,-0.02591716307726442
0.10726097547324719,0.011684549895966232,0.15262368052589706,0.1945241927023486,0.07297284394744102,0.13317066839978972,0.16303750896887342,-0.038251639247724
0.15074343758597025,0.058209165051785264,0.21204315276897714,0.24535706520924028,0.13561576047533996,0.15497796683194215,0.1931232450837288,0.030573890513885923
0.13844795941612192,0.08572741819245608,0.2289229835921497,0.26378331006067707,0.14551495212323345,0.2299008070894529,0.19081888532749414,0.019422573963506738
0.14033537391155537,0.06870218912801644,0.20251040596741035,0.20971125378607824,0.11393053544352952,0.1878487569574669,0.19498984751641502,-0.044335470674575855
0.09568154283686098,0.0017866253656920635,0.1332890814287244,0.15413012676423204,0.07946527998153223,0.11651205497532446,0.11160682867851901,-0.024322557631764868
0.1447112125675503,0.07271055463072344,0.18086699590139244,0.23740884236414408,0.10224377737414651,0.11165695651350428,0.18577263880719794,0.08890544684535677
0.15255017781683441,0.045154372009858126,0.19582019437071269,0.25968276320490796,0.11608617675618364,0.15770466232748093,0.1889504823654574,-0.022918391937706763
0.1318734939214153,0.03706797838046797,0.18680140344080798,0.21604906789082368,0.1154928432106194,0.17588019850077197,0.15639823945943965,-0.09842119217415365
0.10808335759660817,0.01981517113943459,0.15175359069364283,0.20001186761551937,0.07229009821589738,0.15612918790472297,0.14375429334472434,-0.10002538551601314
0.14646901078023208,0.016122131861115666,0.19550542475164814,0.25868928311598954,0.1283201519024729,0.1535718287537132,0.1695989517075822,-0.05698138139328251
0.15924516609259268,0.0668793950401338,0.2150530552936864,0.25955947632896925,0.16672100666919387,0.15955766520288614,0.18946769581575293,-0.021423011700399983
0.13002667001688745,-0.0029023378459421805,0.20081701234741578,0.22750790944309623,0.10012011271102869,0.14136376078078225,0.19738559562512922,0.04837449910259774
0.10303046274727054,-0.004169920187163933,0.1581211789135123,0.17681529403165205,0.07216691791143709,0.14707760875738793,0.1391940839315068,0.018782659972635524
0.1581004474427701,0.06060650609467968,0.19710172257525868,0.253966307297148,0.11395528157251611,0.2002774086620099,0.21958384259055758,-0.023408166081423626
0.1620823803938059,0.05848451986260616,0.22644559465218406,0.26326537381802395,0.13210913841426275,0.2100305083880742,0.19907991690764723,-0.007799049386264521
0.13196134394564302,0.07084531465579022,0.18946259187735084,0.23506825041983906,0.1133242653549842,0.18733658797603542,0.24578958784016555,-0.06734309927433248
0.11831068967541936,0.019279676778554578,0.14445029310176258,0.20601234220563153,0.04004595044684608,0.11470306364846827,0.14878805177854612,0.0224798720517072
0.15343392726189364,0.011452460297282467,0.19253438198255252,0.2478961035383973,0.1255503812389525,0.20606700759619107,0.18796368203895406,0.04389355612510212
0.15220949842941722,0.053908985915072996,0.21042472598019119,0.25429459918196845,0.09314970359296976,0.14791398832269217,0.21891635168292556,-0.08721051560679847
0.145287303526058,0.04432123436074313,0.173591781305671,0.21893819439579346,0.14313238998863956,0.1141716176455249,0.169046530897526,-0.07605453697256467
0.09947815546660238,-0.012322570920286281,0.15372631403367104,0.19317953085336242,0.0945438186897386,0.09667461495437281,0.17229376638010482,-0.110390431616038
0.14257965545149187,-0.013809971277901394,0.2077502478657799,0.2517495697913553,0.1264074275274506,0.1440871328183299,0.1674784157593041,-0.043197306963437515
0.1438430460501004,-0.007282296208261686,0.21157825468803312,0.2368737394502633,0.10219154457819149,0.1463747699897629,0.17089941061205816,-0.04953574334892335
0.1300460239301689,0.07186833843920741,0.1672687900398605,0.21769118885457894,0.0878358679587917,0.15181430076006555,0.13809047621316364,0.03992234607474437
0.08134917511694721,-0.00455368464496964,0.13370136580477635,0.17081034794294286,0.09511407902108106,0.10434339551750274,0.1022678187389217,0.026538360604790222
0.10221425826822353,0.047746095887147684,0.15091390187690615,0.1994670574958592,0.07011816621084245,0.16598018681958498,0.13903717782009245,-0.06015791976073115
0.10435771234859766,0.03758337437651047,0.18619092569063864,0.20761653988899337,0.04153385825596947,0.16321447844499049,0.10031586438130174,-0.08185635612962458
0.10741303855647003,0.0411768521819737,0.16152681655106038,0.17736618461807702,0.08069009589896493,0.12222533121900836,0.11358048328531402,-0.06410309587769808
0.07335254725050494,-0.010847019329414518,0.13113345605120458,0.1670411224155001,0.02499008730302757,0.06213010184943238,0.06553010880985666,-0.03750440581858268
0.11366959394690915,0.02368491766552641,0.15785608398752304,0.19566721309027144,0.09504677835248582,0.1413503497603795,0.13756102538685588,-0.09255339767487777
0.08925247818923351,-0.002033463379662001,0.14592347491689736,0.17694455067013026,0.06091932499753246,0.11751326343584764,0.15530769781788534,-0.10854023180083486
0.08804746145065163,-0.03118160459937591,0.1202247816723076,0.1473709167470753,0.03295583833215309,0.0513493958958072,0.13588483206585364,-0.06567556929103588
0.09630447861200664,-0.05820105105252195,0.13557796432688937,0.1599084622396351,0.05225917225174787,0.11706726049054542,0.10930898456244101,-0.054104742555102225
0.10901023597036788,-0.05398761804886734,0.13504913864639576,0.19416538719718549,0.05903690281111155,0.10548900863426475,0.08816102189557946,-0.09046422164033158
0.07362790850413722,-0.06457363630462838,0.07644618288354167,0.13287250625069957,0.023590005983739212,0.04487423137330897,0.08223659711332487,-0.11902469096408286
0.032458816431573737,-0.05466640004673832,0.07848921281841822,0.09293337805542734,-0.0023973755752439777,-0.0025807959303082093,-0.008183649694153236,-0.02623550906470251
0.08070418307304775,-0.033903451328578006,0.1282387902044832,0.14818778006122627,0.04022718892771513,0.027749516220071983,0.10081718127663172,-0.17433862567888592
0.07777615155878254,-0.006450961114063848,0.13172622251969218,0.1698132119720257,0.04198478116870238,0.06656792935345611,0.06464403893493191,0.04000064783610151
0.04992017926061427,-0.025696756323708717,0.10090542486726539,0.12152317973373034,-0.01445819022077087,0.08886417314035834,0.051891455672899794,-0.0878907569468344
0.06185858607756419,-0.04542501192411165,0.08451487991674471,0.12792118174434125,0.033197783198955624,0.047039873962337775,0.05592610924150525,-0.1857329032493384
0.0856371836849219,-0.018437113060095513,0.13965545047336717,0.16554636124444366,0.035026845116743734,0.061199938157990984,0.12909840683565454,-0.10610065314025682
0.0905666636024241,-0.07279252569688725,0.11974849432078888,0.135110290730252,0.049866360183191044,0.09671483702017084,0.035118423974571586,-0.1000520266753736
0.05241875713891916,-0.0835879708802034,0.06742560453801094,0.11278368170860728,3.896961898500889E-4,0.004000511782491556,0.0031495140429569565,-0.08407693973647064
0.06826374929678888,-0.11487978000462629,0.12465322746825343,0.1494770543206983,0.003943885094449012,0.09131583646167109,0.07391566764003335,-0.17541823560567565
0.09085689556332807,-0.004939835876953257,0.14311167355565815,0.17143873810119742,0.03651635130617063,0.06194975758946235,0.05899604059620269,-0.14458124406737538
0.062155498343810574,-0.011016777528678343,0.11316882593061595,0.10610291885746762,-0.009253107130047556,0.04981764086143066,0.046830726177327725,-0.07201058027240531
0.04649854537135678,-0.07274519066990316,0.060959699014996385,0.09670133270689223,-0.014709689776617567,-0.004696854139593837,0.0447408187204958,-0.12179531281683807
0.07113977398776809,-0.051585846971174354,0.12579115800798618,0.14557565409022907,0.017277579906596452,0.061268331459479644,0.13473034540633777,-0.03162680542440184
0.07884739335819538,-0.038149061425701736,0.10956562221450486,0.14285888766567684,0.02305581694641158,0.10988853696172758,0.08729989770865011,-0.05310883965927335
0.05653934146119256,-0.035117801725878334,0.08586997274665566,0.12237407890811154,-0.008456342717558296,0.025684488512852238,0.05640094051211933,-0.07259734365745213
0.080271780744121,-0.036341502266574614,0.11350906784896672,0.13007116977305283,0.03309882014458734,0.03839469233443405,0.05852717298705987,-0.11514655558429096
0.0906291802196526,-0.04761671313914686,0.13465963845988682,0.17034964803776317,0.020352378908337514,0.0866223475590698,0.09237515192327525,0.008916980724902518
0.0779423148901641,-0.043359197515999745,0.11214210242605246,0.14564993070829596,0.036596249624687514,0.061710141560632134,0.073624922913698,0.027852687728538737
0.05627360791517013,-0.04507951703090172,0.10807460659630207,0.12088820068137059,0.008455299872693292,0.06008447963530561,0.010127729559399813,-0.07733318770682579
0.09493272220596333,-0.024202688213178742,0.1397394987324494,0.18039825016205288,0.009751304698887148,0.053015788277459536,0.09644027029832572,-0.19141020195349065
0.09320292344085525,-0.050900534107566786,0.11273797248623046,0.15993111752292982,0.03161199245159492,0.08579877750191044,0.1451136743149457,0.019684178288105494
0.07018022421534979,-0.010910448030845338,0.08625477372109158,0.1077516487703653,0.023908135972980166,0.04968227728066481,0.03627874041026016,0.03472377373551408
0.09193892659918182,-0.040574223869562394,0.11838385831299558,0.1793165902113677,0.032906442305889266,0.08110238561309953,0.10540763946060816,-0.13371257863553204
0.11914747385385849,-0.0011554535380004132,0.1468912810319412,0.19212067738381589,0.08482206295662337,0.07962181424743894,0.10774695965975875,-0.014709506876200977
0.08241639104162062,-0.058573913856707176,0.11745027006520292,0.168734906583865,0.06331961075394996,0.07898330080571168,0.1221051541763762,0.11078019255425044
0.08080391639524896,-0.044871156187643105,0.12144339887146696,0.15005175991690373,0.014343886220130816,0.07006076112095541,0.08770668520698419,0.08463271711207133
0.1356637900007286,-0.022933372683741446,0.1641286430578427,0.20528267534395672,0.055533850650609506,0.11101222689824383,0.14083629724612612,0.15341593250905475
0.12101966256342289,-0.014923462412826022,0.14442384711354297,0.20004991666319347,0.056787311554201574,0.10669474671778154,0.1268527801469497,0.20484648915745038
0.08492827961606153,-0.0900524663149775,0.14676732287516167,0.16739241161207866,0.025993398466985514,0.07292655203378937,0.11231751513727264,-0.0022078365077404724
0.11319220844243762,-0.040984510476094346,0.13566608492870863,0.17357214424683132,0.046510674900215224,0.05662245064249789,0.09517349915562318,0.020761323077294447
0.13201097232823575,-0.0014519337796084879,0.1720879643073749,0.2221845558507067,0.04935154004981325,0.12565134001664968,0.09382016104423657,-0.0668039911246473
0.11572405320678021,-6.052520499260545E-4,0.16801946913075108,0.2102471169839905,0.08932379214821487,0.1423589194844354,0.11806353854645833,0.044752634691869755
0.11106095440354057,0.01672078963217,0.15837760871030826,0.1868209880613949,0.07498556694315373,0.06138778381243333,0.130051798976849,0.06146266774853393
0.12742774229138118,-0.039537101892677666,0.15114760068627042,0.2133682728181882,0.09119110304938716,0.13732756741860352,0.161144343918682,0.21193392953568013
0.13815945989725364,0.04025921210984291,0.19512986954762307,0.2502997484004977,0.08893987062398498,0.12870578093943535,0.17350894132001765,0.17275295202591098
0.11991243747135144,0.04819750667802303,0.15376290139870322,0.2111982503474873,0.08601551510159211,0.11648764617545188,0.15921081785178837,0.071231894527087
0.09989621089444387,-0.05070828824809694,0.11694043271564651,0.14053497605525467,0.06977983425961298,0.08027933483976404,0.11995265977003915,0.011028844036051966
0.11436201678006937,-0.029016647688253867,0.1374911316256198,0.19386106879675363,0.09366230493627772,0.04313869810355494,0.05446785986969725,-0.03278693754937391
0.10107032312305902,-0.0635301414220535,0.13944410964527643,0.19697553897569314,0.06950826570989083,0.08724350244269544,0.09446669225739374,0.014047204392275012
0.09636086174652292,-0.08537689567437869,0.1193167518084538,0.16232345862794445,0.026248051378544746,0.09069575601007843,0.13297069464505018,0.06898044465706148
0.0888951024443649,-0.02322803738787598,0.13381772806093048,0.16812694907584003,0.04863728722352714,0.04997904082929848,0.09013681321102865,-0.023594068327966726
0.1243340698393764,-0.0030709360643112298,0.15738738596463883,0.20685434608659992,0.06816455231881469,0.07164910722157236,0.10027431972855996,0.09751916970162765
0.10147745943481194,-0.04972195151534071,0.15392159800410132,0.18525400185205687,0.03851759445848677,0.09889750841722468,0.08046881490625524,-0.07136597128044103
0.06745193925107684,-0.05999242499118532,0.13305231609938345,0.15370948126717307,0.010064387014431027,0.06065892754373413,0.07860318338021188,0.08676119118054358
0.07963935151896506,-0.028418148309155192,0.12325709422346695,0.16262581524132919,0.011874227138420925,0.05705814538841534,0.08158321520499161,0.06441906375940899
0.12153689500600892,0.011551235644436535,0.14178852220433055,0.1947477808100438,0.06248958474264259,0.09574355930681487,0.1050278799971656,0.032942445503888904
0.10098138267979534,-0.011121822979931254,0.11447655049057825,0.16019083277488613,0.05019579833630114,0.07919883406771419,0.09931948013985209,-0.05291076966807194
0.06166660762720963,-0.058870003127363235,0.09273513965168838,0.12575995345517188,0.011018759904597067,0.017961629477140098,-0.003554458630517933,-0.04430699019169784
0.08078830099941343,-0.03416631833065339,0.12438973044428958,0.1538161074972229,0.00940976700824036,0.027601511474845575,0.07044733444662413,-0.004470101319866401
0.11959214418852622,-0.039954428521787155,0.14167777589747987,0.19165407217133207,0.060523675994742614,0.07289891817875098,0.08280212667090532,0.059044131871521285
0.08798912578115735,-0.03641895246875528,0.12119943714448017,0.14864378063381245,0.03826380383412021,0.04986322558948671,0.062062046048207295,-0.0038249506297843155
0.06633778669614683,-0.04525261855135473,0.06166106337209981,0.1102656412087014,-0.003563564082983854,0.022725126867104914,-0.0020800099936320593,-0.12678496620561913
0.08098145232536273,-0.06472111111896862,0.09747790998263776,0.13260078194875408,-0.00935749614127486,0.0807493049949846,0.00837219586696085,-0.12003579482590773
0.10073387746248705,-0.05473316635379373,0.1450703321934426,0.1417318013874349,0.03213406517566028,0.06549425203026782,0.05440989085053127,-0.12456966515987247
0.07815684122388267,-0.00869741339832759,0.09407971340879928,0.14915702629291802,0.006203492536579827,0.018089693518705374,0.020056512206309537,0.0013443368770319625
0.041422706010074015,-0.026771919406405838,0.07954608316877054,0.08264985708939764,-0.026771516924679516,-0.013418597851151098,-0.009937577196852967,-0.015564452729685443
0.07757976675173815,-0.1196885970559476,0.09062955691654653,0.14242790077957057,-0.018476124842014042,0.012326945164242084,0.0027495561459927875,-0.10143373355582183
0.10627531122633642,-0.011180547849032982,0.12251044348763318,0.14624996121945444,0.020918604096768517,0.036532110782258334,0.04616489504442525,0.02321213141432789
0.08065219142653472,-0.03676652732577845,0.09322719870794736,0.12682317960586237,0.029009968108835688,-0.0031363719873987728,0.10650859557036478,-0.04017526696945074
0.05338353090261598,-0.06535516521395542,0.05958434546091172,0.07608543676915941,0.00220380025593879,-0.00986510140912808,-0.018642359734993057,-0.07715175229100318
0.07161180877583997,-0.0424302723275783,0.10009725167034034,0.11612232800092118,-0.026280824822226906,0.006888823744057693,-0.0324513982733549,-0.057732381319857126
0.09735467571482023,-0.03158238224062815,0.11937553400427636,0.14843890152448125,0.0014646457627750659,0.001932940705387312,0.01147432029585331,-0.03466191934475894
0.07422248373243814,-0.049756346407946614,0.10277562569037002,0.13885608716803777,-0.047825419040868636,-0.021326237615612385,0.039006563794382484,-0.16862489290596053
0.061824641108507106,-0.012812542739608763,0.06575783212437633,0.09267121617519852,0.010183897454320426,-0.015396666516652224,-0.013309144821169454,0.029960256436666055
0.048443447609959014,-0.02612167999041138,0.04870226141014655,0.08326556066004998,-0.08492145806885985,-0.03814378315833005,0.017653976034828003,-0.06723540059652412
0.09416694567934224,-0.012176239969004795,0.11776133625331849,0.14153677074817111,0.008862415557174055,-0.01269769371003697,0.03093965747864201,-0.034425878515562475
0.07053182883829795,-0.057017519600654515,0.09722021641545181,0.10679194263143368,0.006412006177888077,-0.003677509788736766,0.005811162189788818,-0.16481073236135224
0.061649185251071145,-0.05167419207588279,0.07508208827253107,0.08710050856559469,-0.028241870351032358,-0.0077787284491036,-0.04691770831760433,-0.05709582149842059
0.029800910508669787,-0.07147645730487026,0.030417656425100414,0.044044193262456635,-0.07814968525214278,-0.03123363107099967,-0.021638551353186812,-0.12493353219802175
0.08272770546780354,-0.07184044455164809,0.09934588609494695,0.1288659680957533,-0.024086888935351033,-0.01875326742094023,-0.023958599930729962,-0.15557039709528225
0.08707482858501399,-0.0698469543398397,0.10832020622664042,0.1214842203727837,-0.06693366289933123,-0.05329833415868656,-0.013346258176897316,-0.09227240092598556
0.04411737348952895,-0.07864357603162475,0.08179865176220455,0.08284436179320481,-0.03145336375265136,-0.0330638151620947,-0.012154551865173141,-0.049500581348575254
0.023199765233758454,-0.12422236126693494,0.047225072328922355,0.04673507896497274,-0.05453802141873183,-0.03712800202280141,-0.03195063772803516,0.02268643220204536
0.06151954134209821,-0.06967730484129894,0.0885076590682467,0.10040197349725304,-0.006480804246053032,-0.026939533591474663,0.029970990097742414,-0.06721456113771333
0.0670460352186803,-0.09149107100539826,0.1213840453038557,0.10551926731000343,-0.05960190856777936,0.0026173785801788807,-0.0010825814948938611,-0.172312152837169
0.05056926455826531,-0.04848896804618165,0.06738666069297496,0.08418736461584875,-0.04989408843891621,-0.02000613487570463,-0.03206691755326989,-0.1812535148820785
0.04364616451822803,-0.08314695538729432,0.03785332300339943,0.03398746585287524,-0.050795007385369885,-0.05441386333193079,-0.0704665565324909,-0.1859290943449846
0.04454683814864997,-0.04236553285934626,0.05709224816407579,0.0587444111147767,-0.09101844126314715,-0.045457770012626166,-0.10579009878638648,-0.09919315823998595
0.06597965344962668,-0.05880844757670771,0.10680135253061623,0.11909153040502568,-0.07049267699748599,-0.02259667925056605,-0.030346967418543584,-0.203595689375678
0.06327907514668049,-0.03535703198627905,0.09032719235155072,0.07842348647171807,-0.06591479434877147,-0.017024666058628984,-0.04257032133428029,-0.19746051915498097
0.03929428127279183,-0.07753589849869261,0.035969596355530487,0.047538172595840034,-0.07239427933191464,-0.06646543224335359,-0.09102094608590898,-0.14413828487220556
-0.0016248420863843455,-0.12225216725971001,0.008071610367090587,0.009435872023640338,-0.10146230284133027,-0.07602988508078498,-0.08212384282799016,-0.13406764080533562
0.05883538196868397,0.021818967630054364,0.08235776405852013,0.07953478820649568,-0.0732655696730139,-0.027800699603037708,-0.06658817693195382,-0.11485465369106122
0.0545778169333002,-0.07747411905401082,0.08455884915789867,0.09273450974412309,-0.03222926499090508,-0.025871367279123036,-0.0389331840426492,-0.1692204977534361
0.026422222607424814,-0.05975485964395335,0.03620513313643006,0.036492698715762925,-0.06543352979441054,-0.06518940519709243,-0.024261655397240123,-0.10243675330270283
0.014998307929644877,-0.12133662356122887,0.01639595647176699,0.0034232025384347,-0.09001061116858183,-0.0949175262984031,-0.07803835540343808,-0.14652084549837993
0.035516474459799524,-0.03222617477859595,0.06523403213089456,0.06326696898641687,-0.08288538953194054,-0.0757246687418392,-0.037770832335449325,-0.12986652156895895
0.061225908084950445,-0.10024134222895444,0.06530791245063526,0.0681701257028046,-0.02543093314841406,-0.046557656808957806,-0.049645356621526984,-0.1713456465678102
0.03829632175853248,-0.05113634577780077,0.04657422807637247,0.04771983691842904,-0.04876456410216937,-0.0607049631583708,-0.08521926394646832,-0.048140442894996915
-0.001217835802790751,-0.09184322577161592,-0.0024377197765904635,-0.006783935965916324,-0.09736972887841092,-0.08484938058995645,-0.09284837730924454,-0.08373973298403886
0.007637346766700817,-0.07229175018250959,0.02704052953342112,0.03392423321192975,-0.0877852162443844,-0.03812809764337953,-0.05906469696954628,-0.10840446391836721
0.042136209410768705,-0.04949403660342327,0.07993701103462647,0.07389310908756272,-0.08134538451481203,-0.040474498732502785,-0.08493652308545781,-0.09870809718671786
0.028859034736584285,-0.07661395971135485,0.027885720914886364,0.036584570220243556,-0.07839585053433197,-0.053807802609550544,-0.018430962524428413,-0.16542090969695467
0.005699336174750047,-0.06889487632252735,0.004228518791381614,-0.004709135029630496,-0.11622095337007413,-0.10925295426461358,-0.15740859095038776,-0.2324735903017105
-2.960321208172467E-4,-0.036517081827037265,0.002981302544697778,0.0024802969245403678,-0.12335591218074929,-0.1255712895619618,-0.11434107503845736,-0.1312333480539662
0.05389764549550105,-0.06620251098289648,0.06410006685485231,0.06786293403914281,-0.0689309209516927,-0.06968143948469488,-0.08015403576593919,-0.1993005312263202
0.0289817881337064,-0.08424107352238625,0.05653532079645819,0.044776251051949434,-0.0927438048236931,-0.08269392722088029,-0.12284840041611546,-0.21245428696006607
-0.015201298906245525,-0.18745384900073067,0.005049961740727693,0.0010484579468449523,-0.1082721246966976,-0.1354081183341922,-0.13645505416343234,-0.2806780418045858
-0.027212548765901734,-0.19801763565020583,-0.03554926394480426,-0.03122811195555783,-0.11752474008494607,-0.12910810651728488,-0.0750775406776453,-0.07897539957054094
0.026626063666499555,-0.12046947134266303,0.04243616658397692,0.020959023893588558,-0.09419733069080707,-0.06573580815509736,-0.09870524403436073,-0.112468464534522
0.01496395208518811,-0.1742504724285741,0.034818704639295414,0.03969867170186285,-0.11442613095355414,-0.07759793896835503,-0.08031246996258815,-0.03524226612487805
0.003996226943288994,-0.18163792710712365,0.007935313264378116,-4.780694969064303E-5,-0.11415436509700577,-0.09533065525289228,-0.10445751482600313,-0.16416699925344697
-0.029128805081458542,-0.2105995750203177,-0.028491140381846997,-0.028319400183481502,-0.14610927085269887,-0.128046953361297,-0.09201513952135464,-0.08908899302825955
0.0413169830676277,-0.17335126773207182,0.04786200173299314,0.060574893729889556,-0.040578039819459885,-0.04421740033586903,-6.138034468424897E-4,-0.009923228559358885
0.054994479077390204,-0.16283850375028386,0.05006761971686112,0.07001773179018281,-0.04016040833233814,-0.04886950552156502,0.01384684336326282,0.040366367820540566
0.016799917998408603,-0.1982787362859318,0.04431406498707412,0.03896751061810917,-0.06546123426179015,-0.040907195628381535,0.008635994655058613,0.002099568817361702
-0.008677854968902637,-0.21188887117566418,-6.593979570110875E-4,-9.724302255813833E-4,-0.08087748581091145,-0.042785961332632474,-0.011131074305252737,0.0322748360999279
0.056448521078695094,-0.1648386954605571,0.06371835166214188,0.07820368742301283,-0.06199651805081681,0.02036108294850289,0.014431745314832795,0.09704193768607912
0.03946938395793011,-0.1652517770486066,0.06657143284591616,0.06479419277841147,-0.008626680725904515,-0.008679288045338726,0.015059590628081015,0.13071973065738293
0.017323273954242158,-0.19049746556904926,0.024017980348364207,0.03322939166215817,-0.023158186951696837,-0.021815609961267288,0.052458757825709273,0.1100667211783603
-0.008383469810955765,-0.17429245316414366,-0.00367959671226481,-0.032713454682041204,-0.06456101110166702,-0.09893694392711835,-0.023735408427398158,0.013667064987573141
0.050876694925685376,-0.12818251953001653,0.06458137721668294,0.05621280306727766,-0.03793661347721496,-0.038629380906992375,0.016710462168746276,0.07433355872084105
0.059142992842056444,-0.1306724283565896,0.059713264087994,0.04711225526425486,0.00522396222014411,0.012847096579056,0.03439090614473233,0.08160714341572566
0.017181760458320677,-0.12101579502398999,0.049825311136998215,0.01942394018796774,-0.036060115475270514,-0.028116392200461707,0.020076416246476297,0.21807383160769592
0.006668518045878383,-0.16149550995406958,-0.01240124299379361,-0.022397941115739922,-0.04972096545190916,-0.03595417943103783,-0.04833763348272184,0.1874942201302606
0.03426766468532619,-0.11471147402485751,0.0344403005247078,0.023266284332822712,-0.03400800886941955,-0.05119680418912984,0.006886557625608809,0.2115589731048034
0.03975802990434538,-0.09903169885412029,0.04732450677743501,0.03736539219792814,0.011560953293633394,-0.011960478062470442,0.0189581106897758,0.06932685061382668
0.029848962549182192,-0.09817991135169993,0.02763113855537462,-0.0029486040751430243,-0.03277675501124644,0.014489825624366348,0.008646257248580425,0.1019918845369076
-0.01799481503530541,-0.14257287559311432,-0.016970798807520365,-0.03948843798026598,-0.0959988275237008,-0.07004339446860328,-0.005168455657037732,0.08070070969154111
-8.888473179647777E-4,-0.16655505369456552,0.012539943241505327,-0.005085050762009297,-0.11926660985396201,-0.05314564762899568,-0.042701748181656424,0.1081536008259397
0.028471525406423837,-0.09027580907577845,0.025342565581990648,0.01657243454710089,-0.04526905994500874,-0.006873399454503729,0.023249718972952423,0.10641138894176294
0.009048747936087134,-0.1592030445636452,0.00977251678444134,9.796181165012824E-4,-0.08634551265126748,-0.030261415037734565,-0.03966070124816173,0.037347291320591336
-0.022446704432984965,-0.15818465697885634,-0.024252757878553827,-0.03121230381653528,-0.11211997251599395,-0.06495958836402849,-0.04481987037051738,0.2311448393749755
0.004991043244605753,-0.14109624114812563,-0.0012195798793769863,-0.0067188400356430755,-0.061473769555938654,-0.022618187424836816,0.01535190891194664,0.2908397670994891
0.024300012271676177,-0.14442871993849515,0.022088116911540737,0.03697340737231816,-0.020151784205734685,0.018919641102301765,0.08137346122107275,0.44187317137314663
0.008766316167950941,-0.07350037202751927,0.0016693054891673276,-0.005104368609330598,-0.04745695173302519,-0.006766326630829059,0.06426627070323493,0.33402533105609694
-0.013289639315451574,-0.14460378226665752,-0.03722243140760491,-0.059691950753448714,-0.06654847568063127,-0.04001314143855919,9.675518906020406E-4,0.30975758760110894
-0.012456809129473376,-0.15580051207912773,-0.005565079691721236,-0.01336936387475822,-0.04399375322217476,-0.08368412613580894,-0.03780989480985485,0.2935868710314043
0.01811569076895661,-0.11632618256177511,0.03151021965215586,0.027581698474366034,-0.016438061694886805,-0.0026486129784068085,0.06433856506502471,0.40694801326249785
0.01674881377626318,-0.11688104602127466,-0.004271151742896051,-2.4359736003926047E-4,-0.0246632030062139,-0.027675743997291308,0.09890317024349596,0.33677722829877305
-0.02451419027066859,-0.18644477556196914,-0.03388819236765922,-0.05542101563634823,-0.03229569760748134,-0.038646349037193245,0.072471731850037,0.378231540237835
-0.007529444806816832,-0.11052415047558534,-0.0026989034550505137,-0.027631449332432487,-0.06677464038120402,-0.026928665330877323,0.016114936186499642,0.32266410731230494
0.02202624403553033,-0.1215337573206901,0.03305906673660472,0.022548252234780214,0.0017306494529217425,0.04840506556136255,0.09360310601267388,0.48564209154618254
4.080299279105165E-4,-0.1758432579793644,-0.021605829689753206,0.006392651582936226,-0.026517611021271748,-0.014827367599984792,0.06150146215340152,0.39926799274188196
-0.019960791135917116,-0.1474314019694601,-0.025045152044796112,-0.038642759829103146,-0.04437114027291225,-0.04034630858120287,-0.005561387207304222,0.2989731819049496
-0.0012409201242836038,-0.12560071418256452,-0.03610460832028271,-0.021170514142570193,-0.047159741070655105,-0.07974276141562436,0.041525228418230545,0.38498894023256114
0.032658425474965835,-0.11270485713513109,0.017676794869621607,0.018466784302179018,-0.004598749207904276,0.053490001626287656,0.07863993772166639,0.32076541459124297
0.006474785744386161,-0.1437548962063268,0.004086633675360135,0.009458228542564007,-0.05146565220602385,0.056108491383894496,0.09569940227577785,0.3708775776055986
-0.011772719862941608,-0.13320612988238067,-0.027536395032871502,-0.02949516123945059,-0.06371890760002107,-0.03050837627173293,0.026043657507737315,0.2736742465412636
-0.0017938073352466305,-0.10319622473340805,0.0010092544588869712,-0.008908253250162868,-0.0101256185142699,-0.0284904771466787,-0.013088734037409407,0.39594465761885067
0.021896466189325947,-0.12340757219198792,0.05052964787027542,0.042500596361261175,-0.037194097428098816,0.005322970577491787,0.06357072840205043,0.2839254358140133
0.014836175177774427,-0.11526881659966406,0.041584752724380475,0.006139667611365751,-0.027248422774813937,0.028543982662479345,0.003563400584049567,0.24220928069722242
-0.010078237436474596,-0.13708528161636102,-0.022275573813475752,-0.007172483332504517,-0.04087952661033597,-0.03404286685740268,-4.073370123172451E-4,0.262170766436061
0.0022079413985220397,-0.07603655984669357,-0.006660516406027633,-0.013861409237030067,-0.004991874838492699,-0.04936297361662277,0.0074614890736448974,0.22398573912176878
0.046919730225757225,-0.02240305256363922,0.06580575117635429,0.05874497016301859,0.01823979460292502,0.03252665847358728,0.08120272432257207,0.1855070604862929
0.029694723376814933,-0.10528596972302676,0.041909374604061134,0.017275613805621648,0.01243575500317641,-0.021257125167649507,0.04370792839784801,0.11532730633476664
0.005927470541831306,-0.0679506398522491,0.009211296902067623,-0.009257828656549269,-0.08158175348621251,-0.020345201090476397,-0.032739659139018155,0.10568415418967986
-0.005995972725179238,-0.08497198916980027,-0.0023282838566787284,-0.022759108052519503,-0.08423986553732728,-0.08033100118249685,-0.03362549600944227,0.08778616411422965
0.031208996028679797,-0.09864127491466765,0.053482279063225266,0.049218929013355686,-0.0326081819478884,0.00184333047629133,0.059484277801460386,0.09617342688416035
0.028664232943137274,-0.06679336017710358,0.03292914136624145,0.032344721495235346,-0.04092286767954303,0.03489082694175917,0.004015885484774467,0.24247585240232783
0.014227185520078373,-0.1849947602439015,0.01584194138027968,-0.007787700419883442,-0.06692083721599155,-0.03802785456728798,-0.05190179880376758,0.15619039304210197
-0.014312558313280474,-0.14440423049425843,-0.0013205138293699847,-0.02623508670015741,-0.11064645831565485,-0.042643053732674754,-0.05650749656536541,0.0013562747805071496
0.036105581133886774,-0.19079623800087614,0.06479286498460292,0.0401615204237524,-0.05483492652948837,-0.030058890058372034,-0.009337081303727485,0.17312061941490686
0.03249697382792409,-0.14124426651932157,0.03675731493987579,0.04537742327601241,-0.06037476067547671,-0.051102489553977545,0.020897702741855498,0.02614283747203694
0.032186052244895416,-0.14346747283413777,0.01124635397550064,-0.008980956121475814,-0.026193693749725015,-0.04187656550068292,-0.007358968027618096,0.016698122400650967
-0.021172940867851237,-0.19124377860839017,-0.020818422914472057,-0.043913666638247376,-0.06599378613656467,-0.09176423857697716,-0.06184931481007797,0.07135924170794058
0.030950520318560396,-0.15551586440209872,0.042485147755754335,0.05040566266872995,-0.04662640050709121,-0.024486654172573785,1.1875282096862616E-4,-0.03551431715193708
0.03888938765991436,-0.14091323670932562,0.03162761965187727,0.03943613830726497,-0.03837854515623429,-0.02288855167860812,0.0021949811091294402,0.11238383470845403
0.023129707236317645,-0.12417055638119087,0.020595911182182167,-8.824003966640265E-4,-0.06801061280122385,-0.05238121081307547,-0.030482866898449923,0.08964858142822733
-0.02551513698237476,-0.2000865491467488,-0.030541783759957294,-0.03653588140293587,-0.08801265919153711,-0.05532552626792384,-0.019495716913345063,0.16042174856854763
0.008362441156230152,-0.16098165909021744,0.014065991933787797,0.007153582590691654,-0.0658223455094383,-0.05117803334088061,-0.017051800231764877,-0.02472853192100849
0.03407088464285109,-0.1488867008556629,0.04039300866767642,0.039453808700700116,-0.06074094078550798,-0.05287751392258514,0.0027358909111802887,-0.047828838980296454
0.02470150397642487,-0.08074366831982695,0.020608645025343514,0.024671379144407382,-0.0559251129068823,-0.006572504289871037,0.022788188803457024,0.014740745534788824
0.0038845156353136956,-0.10759314719920965,-0.020767208314204075,-0.03667352628176564,-0.08112745782474504,-0.0977989734316059,-0.07548964126485781,-0.1527051957612029
-0.021801079626137143,-0.08367514349604137,-0.0391016183226609,-0.04703438108245221,-0.16676112051887632,-0.1741957391325006,-0.11942008908621946,-0.20070368934115723
0.032281873158493984,-0.05454770192963161,0.030211803326093425,0.03083483036056109,-0.07269965913518492,-0.059666845867747904,-0.12030398832425165,-0.2277404529419563
0.0011471593415215975,-0.10013096252742658,0.019363557431620132,0.016944601643192447,-0.10319751895795304,-0.10536312111962029,-0.10034720810251423,-0.214033619217607
-0.023852478718973266,-0.21725591333203287,-0.03584306815293667,-0.027304519445822892,-0.1399308018678911,-0.11693566513039956,-0.13189159127497063,-0.15266725700873646
-0.049974411078223105,-0.16114435723484707,-0.03566360135430892,-0.06101173967100118,-0.153304227804768,-0.13893761719445447,-0.10612207287557825,-0.08710784274472087
0.01157690084404793,-0.11164502385280102,0.027639926298295897,0.04150009332045304,-0.10302164148130621,-0.07505029286255885,-0.046350600576798275,-0.11026920965868076
-0.0011340321444403695,-0.13205561181717607,0.01977187099989669,-5.119373900574209E-4,-0.03511654763386282,-0.0849969314040861,-0.08356009884828985,-0.13412056933046976
-0.030664553761877142,-0.15599712889737077,-0.015303965707078981,-0.03660306027983323,-0.13229753798768978,-0.11510795887581643,-0.086695179893654,0.09484696799368295
-0.06385479847248507,-0.19619326775467713,-0.0430185526429952,-0.062482012831636555,-0.12712777855772198,-0.1087317200422654,-0.1453667053467383,-0.06988126134244052
-0.013976679941142711,-0.19627001216365425,-0.009848015460515419,0.016162472351056195,-0.05391740669468615,-0.06848590846574734,-0.06011127376529948,0.0765407339975587
0.00477080683696772,-0.18893718317446836,0.003676569189073095,0.023094511260317613,-0.07395683107785112,-0.060226733419147735,-0.015802145912133445,0.11100241704877192
-0.03138957035187835,-0.1359377190975391,-0.0290636723524869,-0.018495412968032768,-0.11149407274275865,-0.10627049955850523,-0.08824399716369016,0.07886578912037318
-0.052288603990028645,-0.20883311996399345,-0.05971909702215583,-0.0745561059239904,-0.11954665534636119,-0.12459419558802279,-0.12696869919951628,-0.10414595389586495
0.0127005223842232,-0.17866497413545251,0.002275031493740781,0.003033007016335576,-0.08840548992486782,-0.07174874342773112,-0.08709642597439982,-0.026897152471799815
0.00314577285194155,-0.1852149608434802,0.017787363699289488,0.009904078737958316,-0.09824275242602767,-0.07565014432634598,-0.032983041886584546,0.16601818532385368
-0.027523472043242486,-0.16625630719130033,-0.020611554915802188,-0.01812514109346837,-0.08353462295806045,-0.09613640462043524,-0.043106761998454445,0.07197458006518503
-0.06003878305880172,-0.21405690958103193,-0.04339486278441522,-0.07668457502519674,-0.09668936346385108,-0.12364153870936997,-0.08119854250637075,-0.02247937189366732
-0.044205289690650844,-0.1864361078418613,-0.03435483603538941,-0.03005679454350653,-0.08981078930042637,-0.12142509313221886,-0.07760860627571718,-0.10038578899608144
0.01435685009287202,-0.21236147159843732,0.007010079750111198,0.0016262340950585208,-0.059021758904016154,-0.061329966370349695,-0.07597858787871378,-0.029291958331039036
-0.02191449899897624,-0.12738439928147033,0.004604854712037032,-0.021025290744050976,-0.08421937698497217,-0.09090643615108415,-0.08595157351935163,0.04321324824155193
-0.04247395342716606,-0.1784961347941534,-0.056830729515344514,-0.07183640613494302,-0.1619046300231459,-0.1643155015879568,-0.0873801165750342,-0.01160197096199736
-0.034876792491957576,-0.14255451607062108,-0.0442813159480316,-0.08115712747708756,-0.14901779694223014,-0.13945651097981676,-0.08423662804855288,0.04837891251141707
-0.009294659503235159,-0.1242283195304124,0.0020633438423891537,-0.012578604130493137,-0.03447058933371607,-0.025681850397451064,-0.056507122515060605,0.07816853349555936
-0.027420296080316015,-0.14002801157881517,-0.025225268809088278,-0.03877931482928447,-0.05560925144570787,-0.0557873609789304,-0.047444543806631,0.12194018741542009
-0.054823574612180896,-0.15045846766621243,-0.06160419063167055,-0.07296465513564422,-0.11390727974718845,-0.0789190643362223,-0.09330572903814847,0.05263802996098038
-0.042271046169170656,-0.12460686253301091,-0.06318104740535517,-0.08667414948176855,-0.09780796284038468,-0.14566586725563152,-0.07759168239228684,0.08436860823254352
-0.016105062103086515,-0.14477237976094098,0.004024549500071348,-0.01936105900498268,-0.05248607323954456,-0.10669589641454588,-0.02989580561443425,0.00962371715614374
-0.024215141361906264,-0.17430987270173892,-0.04012810532638339,-0.05464027017828463,-0.1007614157392932,-0.07472500487668131,-0.07050051756535883,0.12596525679682105
-0.060314944832587085,-0.16422616344456303,-0.06958074842630044,-0.09015190772082052,-0.1380194399196354,-0.09092229005420649,-0.08851368024631533,0.135387386117342
-0.09326825312228325,-0.18768190744352775,-0.07787197631668077,-0.12533165552556666,-0.12234413732559607,-0.13376068686887654,-0.12190621957551058,0.10005428930366211
-0.025437795147142728,-0.15680542518310364,-0.024483390404230865,-0.033872914374841176,-0.06981876309450327,-0.11013716087004263,-0.06590514015158981,0.12101514083762913
-0.019823052145896386,-0.13230602111282896,-0.04389376354935219,-0.04074119680024964,-0.042691597942620826,-0.07757505518596867,-0.06719807648060466,-0.06850793363888974
-0.046343726590005456,-0.16372870860781708,-0.040054775424754385,-0.0700977873378336,-0.13970155597866551,-0.08289045523114076,-0.09942428468327509,0.01775724446476598
-0.07421160335100374,-0.12090808097673418,-0.07613037565250344,-0.12673454920976623,-0.1297964690851935,-0.15125463561717714,-0.1599070161228699,-0.0025306701255080333
-0.04599638022716205,-0.15540794974102504,-0.03298723430133148,-0.06055189820223991,-0.09740180708730065,-0.12565460425380717,-0.10905952316236944,0.03663407031127394
-0.0311341147468515,-0.12026059903346023,-0.013672673290568815,-0.031147637609700143,-0.0624385815961683,-0.09426829775998655,-0.0090502232992717,0.020797503884598778
-0.041162731601939034,-0.18383635992613062,-0.04231902361885387,-0.06547206268067636,-0.11112373033105485,-0.09111024383653069,-0.10689894073676284,0.18557251735988112
-0.07024786414859685,-0.22319609812402483,-0.07158690612658225,-0.1095365063320817,-0.10863879713130803,-0.15170905092272452,-0.15981929625422647,0.07731292278217752
-0.06301787554758065,-0.14898075793840285,-0.03726002470853931,-0.08540359146889052,-0.13636154291074531,-0.11595230833620473,-0.10536432750079222,0.10818028935289062
-0.022018062275116934,-0.0899689492249977,-0.0051281214864570684,-0.04188666828167646,-0.03554894609047741,-0.11300654513470904,-0.07032921079685474,0.14988350348174106
-0.027372289863553362,-0.10398623742760124,-0.03550398897069737,-0.04478228894128454,-0.06480397086012221,-0.07329310750983285,-0.025141756334081528,0.23467577967632153
-0.0535774962332781,-0.1455717813347303,-0.07114293775881382,-0.10579085659148466,-0.07458648773377481,-0.10368358644986012,-0.0674109791866589,0.22375624403770034
-0.060575555327387426,-0.1435564082383019,-0.04796599406232657,-0.08058274303846691,-0.07620556117114675,-0.07656136839711064,-0.020030608081966453,0.22750399877478578
-0.016010417845154556,-0.09969092331129885,-0.01612296671009697,-0.03506764568555844,-0.040015181739342584,-0.05650661901011621,-0.052569864050457646,0.14752918176475682
-0.02710144909816574,-0.12170498381999575,-0.042283970228564616,-0.05439724463197901,-0.06915557341053058,-0.06659434281680886,-0.0531521252826658,0.05836770452840148
-0.04578644594636381,-0.08313401664178909,-0.06258461928021555,-0.10081386012860918,-0.09753927309392148,-0.10133628240655353,-0.06871709657619895,0.0637992561961343
-0.07229927089184096,-0.17840160502313337,-0.1005668451611298,-0.15310444054198832,-0.12949067096140976,-0.0986495340662522,-0.1411103263002898,0.05082597361287115
-0.013497402735431083,-0.11695981075877837,-0.008585410530393356,-0.029941869041289357,-0.11431812543087715,-0.06971221043399306,-0.0619535635263648,0.1325473450326123
-0.012174055709171683,-0.0648889833327051,-0.012310824048755123,-0.05535691660495218,-0.050954178320442675,-0.08683435103918374,-0.03729532466936846,0.25029009469473706
-0.04150069539010369,-0.12074828493434225,-0.036415985338573376,-0.07452537010692131,-0.09329329463158548,-0.07783029847731182,-0.05266530508753898,0.21821992017438796
-0.06077338722881382,-0.1771596156468167,-0.08044896075473999,-0.1323905246678784,-0.08601283912886709,-0.12586844229202965,-0.0505658107109652,0.3212107739976333
-0.05685079061364659,-0.1486123032760722,-0.062035493980457726,-0.11762573449576283,-0.097347579442069,-0.12198048562608146,-0.07993500178911073,0.2938842207100044
0.002635222278413965,-0.12274949510717618,0.010916715130199539,-0.04614295532365202,-0.07085665933445329,-0.012382680244141256,0.018838783366759256,0.2547304641533805
-0.012080304825090094,-0.0838780637425113,-0.013121458476047121,-0.05997145130233421,-0.017683037771529207,-0.0720624016363656,-0.014403022051384693,0.23769861022694186
-0.05274132095319531,-0.1295703380264477,-0.043983268652487015,-0.09640900065525142,-0.07580377069199729,-0.062023871607793005,-0.10008339059482595,0.2002013975599459
-0.09166528171138902,-0.18131526826278987,-0.10558248335897667,-0.1475968159742132,-0.09394311763137951,-0.113258694111924,-0.06924625989240153,0.08498888139367147
-0.05321860180998027,-0.18657652274940228,-0.06555362828326064,-0.11204547972613048,-0.13509881637815527,-0.126810685536936,-0.08815870458606187,0.03793202250917646
-0.01546112731858576,-0.15575176030898844,-0.010645448148424247,-0.03420164367393923,-0.07236372199857546,-0.058089914401734,0.00921298499757163,0.10483054796653074
-0.03189199518188565,-0.15000312064760338,-0.029256322240840557,-0.06310516199890123,-0.09158474568779149,-0.1142072165408684,-0.04845169152988043,0.09346042253114448
-0.05728632540795444,-0.1455891337573487,-0.05146171332930123,-0.11021914084865958,-0.02536421718516342,-0.12044301080275172,-0.002299873499232049,0.23165788833508005
-0.08845364086768524,-0.13913265795347285,-0.08812980948005733,-0.1432088285116486,-0.1294214490078785,-0.11219503209545456,-0.10742587357223324,0.2607917248056943
-0.01638280720554816,-0.05975844966020491,-0.009240315967101648,-0.043084174050142476,-0.029072984230119746,-0.05782147814865288,-0.018009926005217853,0.22014121617579305
-0.020510054727596413,-0.09611971712970437,-0.03603848522837638,-0.06396716345683494,-0.030393756727411254,-0.03448591546377134,-0.014973284201788763,0.17773576422089438
-0.03921088742306665,-0.11745014896916775,-0.05800463824641295,-0.09237350431616245,-0.09064743976917082,-0.09739255642158753,-0.019901245278662813,0.3151887985159606
-0.07529382336288817,-0.19943603305706814,-0.08623838262993412,-0.12375333465184724,-0.1007934787532119,-0.1435485449161713,-0.08128738092841292,0.1843232158621683
-0.03863199536227105,-0.1078643310198206,-0.03428200965386849,-0.08248199217821074,-0.09701654304089494,-0.11543182821822923,-0.06993930397665807,0.11334945403840263
-2.0726809258519996E-4,-0.13957688662203413,-0.019900237585879485,-0.05447312781432491,-0.10358032743251384,-0.05559485311837731,-0.049842942921967594,0.028314317245771922
-0.009077030303472622,-0.1261537857259722,-0.031777265495969945,-0.07465419284315974,-0.06645283007558953,-0.08090151817746535,-0.04795972295673984,0.09112364039306531
-0.05155687759964629,-0.1276595221686989,-0.0706312647336545,-0.11964005684658291,-0.06149789374462257,-0.08991555615932893,-0.07789531080381934,0.09593519861548741
-0.08181876256006246,-0.15276637267995072,-0.08301170311656494,-0.1435930742176739,-0.12587216510977367,-0.1540984133821874,-0.10296286559027375,0.15958435327808573
0.009816696189144658,-0.10421555825041616,-0.0040835183684964915,-0.04174180856245484,-0.04217637997605928,-0.0340857919984195,-0.00844483802844151,0.33347455989861646
-0.0028125358289226993,-0.10355362636111193,0.00539238475883734,-0.03343246847084644,-0.025541527318841795,-0.06145319741329028,0.008294532771316789,0.24116048950387842
-0.022872298153996315,-0.09996115541679208,-0.035112174262242446,-0.07407707812043397,-0.0728091751011321,-0.07572893551340135,-0.04851175426196404,0.1773415695576194
-0.06252063351784337,-0.1576129184316388,-0.06225697708773889,-0.12013618575040781,-0.08721377717019649,-0.10593352108592069,-0.09809843885960702,0.16212707052935896
-0.05352268945179068,-0.18800264367374434,-0.060265547763656016,-0.10853886188294447,-0.12347483414688248,-0.1264226348147593,-0.10822992154967018,0.10500486125262454
0.008626432528200834,-0.07349973978872633,-0.016878199285510487,-0.023605513807997053,-0.04005409942485831,-0.0886699671685688,-0.045175810069152056,0.024191290924661588
-0.014773369765733652,-0.13180226054349825,3.837816825245366E-4,-0.03839147517164637,-0.06029363980868882,-0.0477506169959483,-0.019765399143711164,0.06924946716914766
-0.02379811050806442,-0.10916705418533194,-0.02681819220327998,-0.07543508881894494,-0.08078723536030127,-0.12547116870050012,-0.05431823472291197,-0.00190554061342256
-0.036754301245759395,-0.1844352772149009,-0.07211670074856882,-0.11627947792617752,-0.09488162176617665,-0.11362728299284229,-0.07610310296725045,0.16637553101202887
0.0037025531155157887,-0.1071400588288613,0.037386714459281184,-0.026039043955477098,-0.08892567845192748,-0.08940611716199438,-0.0445283745231196,0.2287511871324361
0.003075783057309836,-0.07967180381466471,0.014630020202523242,-0.03552040887034555,-0.006027833844071712,-0.0294912580907672,-0.044557647463786924,0.11906863988750074
-0.004530497915176165,-0.11377204925765955,-0.01319339317399848,-0.041690879237244294,-0.03588974291455869,-0.07735519360631066,-0.061850108410604225,0.16752863772403662
-0.043493291337937376,-0.06856992458288164,-0.02124440469329339,-0.09048941446010936,-0.07688214547209118,-0.07568138254282733,-0.09578047467076435,0.09228619307302546
-0.002026143823975965,-0.11540584412462171,0.009389576675869121,-0.04285413447453475,-0.045022531626320285,-0.04180661920137881,-0.053544866687074734,0.1424684929267236
0.046035197328122876,-0.07513469287239892,0.037999089557906776,-0.007083199113191094,-0.04047723591845186,-0.012845484780658431,-0.01656782832711222,0.2041485698925849
0.01243152694858815,-0.10315761088871636,0.009084703263111268,-0.030920662309636027,-0.0031029162020322076,-0.07149024777407453,-0.022761327134055195,0.09621543264865146
-0.01799539877541792,-0.11218828731792865,-0.02991122683733395,-0.056782070498821155,-0.07052974745849996,-0.05844869910369507,-0.054737470710206314,0.10018562073953871
-0.022865454827275616,-0.05079310051855787,-0.017280412761831607,-0.0798441702454826,-0.05445764581484126,-0.054264904536719775,-0.05608876228329234,0.22176191674955503
0.04751528132931844,-0.031014945596915467,0.03612526813447334,0.0029207864689900775,0.00550439127679438,-0.0012597448395116478,-9.267299438445314E-4,0.08522749607805431
0.029179454734112778,-0.07965993714339288,0.05107934873194178,0.0016835369764160307,-0.022093621487553866,0.031142171343091482,0.055444680827784504,0.2028353281004616
0.013842578591652194,-0.062134453248493246,0.036683592707395435,-0.013093771723704822,-0.05559254758062626,-0.035586736037723415,-0.05386158613766112,0.1326076395976382
-0.01279514986886092,-0.09676290908775773,-0.015327790947389272,-0.0677964736911963,-0.07875130423098108,-0.05668107002132505,-0.05110196012691839,0.20650790944322178
0.02174513256671201,-0.09882257732737904,0.025905033677171244,-0.023550724816450014,0.014474999881162728,-0.007260652773463536,-0.05169708653098598,0.190116017601052
0.05722589960946578,-0.03686847446706043,0.06639655775884243,0.038810199439746534,0.02321525017567308,0.03760921538382292,0.051731588169813936,0.2582169943351027
0.03962197360035942,-0.05537318434699645,0.06284752677521876,0.02819529981181823,0.021212067899621656,0.016550195922782396,0.046374795593867146,0.1932643691347208
-0.012293401930849851,-0.05288941134129191,0.015787890336851837,-0.008010255494256435,-0.0011593226044167848,-0.0064146245646681255,-0.03864197784813452,0.21630956831001497
-0.002876662076092773,-0.08291244004174722,0.009534387036800679,-0.04555897055270512,-0.009745555124461847,-0.025104807002630944,-0.020049268777530514,0.13402161785667568
0.05931895544537055,-0.02344821966552972,0.08607455778890313,0.0428030523477273,-0.047931586296251806,0.026224944772350586,0.013107647804197625,0.19215615081460796
0.049569167219702684,-0.029897196828168656,0.06359563448591075,0.030520663233883624,0.03170293988241887,0.03333445672093885,0.042056918848343026,0.1824714436154101
0.014096742128262757,0.00118420620542653,0.05109546302555236,0.015364445374260335,-0.0037615336415736528,0.06951049681658444,-0.004386342616752845,0.20695925708539256
-0.003436766146190637,-0.020419547635084197,0.015412993862385205,-0.01228528003169177,-0.04382776151903322,5.332264086758062E-4,0.03936346273128418,0.22651696360112974
0.049145800057665584,-0.057575071429825465,0.07368067581293246,0.03136825865198051,0.02109639767218128,0.03443582109813697,0.06399971385965006,0.2857960466493536
0.06321961169664049,-0.0028611462436407206,0.10222564487607384,0.06905659012524457,0.045512530791630174,0.06530630770278206,0.06379518083730011,0.25840403909073284
0.053507642080422135,-0.030369297178079253,0.05931431184074648,0.03879879695221826,0.003737595988223239,0.008597073481013524,0.0920544102945248,0.26919146577420766
0.010408934332505337,-0.06848881540400208,0.03553070611223123,-0.0013643608885873515,0.03835423606187873,-0.010931867319712386,0.07589359003384048,0.37900054619786794
0.0160353717444469,0.0208631594993733,0.03503851179768716,-0.010267148511301422,0.04933758168452776,0.04121112525997342,0.13970291931172002,0.43322809380972926
0.05452379659756537,0.02641472670584541,0.10687149355900541,0.05980000429813381,0.10250007155336088,0.12224110278132189,0.12830026605842962,0.4355001872366101
0.07612472169876734,-0.00571676074594088,0.10322971818405062,0.06110506107794651,0.10987685908998143,0.0740462864397346,0.14548609467772183,0.421566826763076
0.04096853672421097,-0.0515461122692638,0.07236332718171641,0.04034070228076132,0.058653248246159397,0.07798780647279419,0.06034254525935157,0.38096089537070277
0.02030046321030192,-0.01831591266053434,0.029256523658391972,-0.021975877902337557,-0.007209994124863485,0.0439692286285124,0.04844185577775852,0.4031267688390524
0.03616804340790561,-0.054351796074970794,0.06110321062695623,0.023200262569897212,0.040808688108227534,0.02545553123471625,0.09843417496000512,0.18585761063943113
0.06800569963182392,-0.04093528874333629,0.08964541263276052,0.07415439778317243,0.06716860604210348,0.08975888455504787,0.08701015118305233,0.18162368888194536
0.061780514122351554,-0.0055955614959337305,0.08676569922107547,0.07381094332830147,0.023802090650244367,0.066200887148949,0.06905404033811072,0.08809722141527704
0.015750407940530606,-0.06311285577725496,0.036268616361845446,0.020521166031989974,0.013920849551729765,0.026572234544774392,0.05056628785941546,0.27094085077251673
-0.001484718034224869,-0.029586480132574818,0.014513620457722837,-0.02419563844256621,0.013362569503190647,0.015426899643423003,-0.007647880223553099,0.27484013438130594
0.0527381859315572,-0.055702409818925706,0.09041554123155622,0.05264542298155159,0.021109198112426245,0.05064250351087704,0.08668725137085617,0.29234021418092493
0.05472213580188,0.00969988797430428,0.09349319416177534,0.07894532570321439,0.10017332232219353,0.03999563668475753,0.11769716006430103,0.28888642817266075
0.05785910123000436,-0.04412675447074879,0.08703500507573006,0.045189243895126144,0.0673531096869665,0.07202845613359832,0.09550619107156932,0.29302896041370263
0.007974077889898692,-0.09015109999225349,0.03960758168906049,0.013622337057881517,0.013462205039747085,-0.0028586567939046514,0.06811372505523765,0.27340494612955785
0.03427179935306149,-0.049047738970275374,0.05059880048815675,0.024571652561078627,0.02792656247502414,0.05098091608914826,-0.01102869165059582,0.16561190692099073
0.060305630904985266,-0.043224439700812134,0.11341083190665849,0.0876582420884103,0.05169592190986675,0.060390210945116415,0.06504213487321278,0.04931704352098283
0.056314992279343584,-0.05247186099123225,0.06791524280691662,0.0746247148443693,0.0015646524613253145,0.04235372623369153,0.04632739265912574,0.171894149540354
0.021019128995982864,-0.05999086620581208,0.04643295137558896,0.03094019792496301,0.010175536528980539,-0.025913357634222946,0.0832964357075121,0.12629776614737015
0.0019500249422015337,-0.08019885295733742,-0.01202026253592689,-0.003902762829769743,-0.026494875267275824,-0.026094022789886907,0.0074305996616794365,0.2309710257334304
0.04229116268351554,-0.029893837638845438,0.07912727538059386,0.0624254372778654,0.041100175924932265,0.0829784792879181,0.09663275583014756,0.39529142937557565
0.07310111988486205,0.0024543931878549807,0.09909930630830206,0.07315089709257022,0.06000256792695069,0.10398195388175918,0.11398682504247762,0.34571173137767836
0.04406684660463234,-0.059799518951982523,0.08464730124142683,0.06441299333999899,0.07442089556540864,0.11658688052649682,0.17104855373493189,0.39222268197354504
0.029302405106549925,-0.04352295440114863,0.044735088389655245,0.018021876640353887,0.05394726284949053,0.049098112241322094,0.09789313325000967,0.32571634854240794
-0.021720724754664494,-0.04845541287837428,0.008112906167098491,-0.016701887810558202,0.010054306153039122,-0.029378662815191445,0.07270733476869531,0.21884793058736512
0.0559322707337207,-0.03175223916951157,0.0913770649083051,0.08370919016911128,0.08787792679636582,0.09770791868723454,0.06479195438843594,0.2890614278846301
0.047520449572937704,-0.009246078252745128,0.10462320697242246,0.09970733748670917,0.09019847271297468,0.07098016614159558,0.15592615770571458,0.3441140374445868
0.04665783771004163,-0.026694983307677438,0.061025810198705954,0.05494562805670336,0.054734676507138785,0.09569079949704,0.1403615750406963,0.2835856979116869
0.003381342488448999,-0.029726003133002374,0.047831438114121716,0.026179826407491502,0.02820446615263439,0.05452311894241975,0.08797579202069578,0.16987094072191206
0.012171059251129032,-0.053563849483714863,0.001432881187951221,-0.007470149066510723,0.008419064871924231,0.014025307224115019,0.006559769171388979,0.25098251573075087
0.04554494373844915,0.04286939083297096,0.08428622264899964,0.07365479241961329,0.053790001028704376,0.0703483716917201,0.12072029967733881,0.15017911704277304
0.04355297662025337,0.03263453262479492,0.06825944208937407,0.07641994415986911,0.07415902875003368,0.037931617832818045,0.0993106702968636,0.3520188835896859
0.007709725508712462,0.04651290388591087,0.036787690432782044,0.05271764741005104,0.0375738452249752,0.07128124330981539,0.0923707789696072,0.23676704658642517
0.0072841586654303625,0.010410400968416778,0.021991766867074797,-8.658096992187753E-4,0.05492350456317386,0.020243706923517,0.014557046537245176,0.2380650768545947
0.04899337868091698,0.01669565191696877,0.09171087661137547,0.09367675328031516,0.051935035625439045,0.06872413437866756,0.03326222113008891,0.2726730743442383
0.0498572927714037,-0.00911135660090654,0.07794357068228952,0.09033650908329298,0.01449196767125966,0.1305105379757358,0.058164401046756735,0.3045182528969108
0.02721143859823906,-0.017530215837464863,0.06146673785341121,0.06260260613499163,-0.013854610032143536,0.0427673839328985,0.04079752333986357,0.11407957208187351
-0.005226975882216614,-0.012811432951312554,0.010000667404686817,0.022287841933529992,-0.01358252538272979,0.014680876066572673,0.04491075855219831,0.1971471292643439
0.0444138234874613,0.0461139003035029,0.07417973658998193,0.07882918927489575,0.04193586979668532,0.06025781143185653,0.09026350600154487,0.22490059082198538
0.05725242119894171,-0.0027631632712226337,0.11103354341505746,0.13324987229729046,0.05560080088336197,0.11854027056222119,0.16195618318677685,0.283216175937562
0.039656782007735356,0.037237513193937546,0.10035716915286136,0.09371651781837409,0.06919152518399957,0.12974125417891516,0.14372998890180747,0.425966994754993
0.031554704392558586,-0.006595720187087796,0.061488408366283595,0.06652529908335675,0.019510147236979063,0.07001590769901699,0.10117302589622937,0.3816955055085448
0.02081028667931825,-0.027562954605346024,0.06110023189458731,0.058846546663904736,0.07988480334357657,0.06832765692145357,0.052864607077300375,0.43939475811170436
0.07450793016312987,-0.0224012999336807,0.10202206692287145,0.12815240253835913,0.07372788206600965,0.06913020072468874,0.14171020025721207,0.40912441256874255
0.05279456395441133,-0.04816205243406827,0.0925698456152976,0.12011061311944328,0.07366418428401446,0.09151275386701856,0.0761416218283234,0.18377723300085666
0.017215745293592016,-0.0563949816187209,0.06669296323852529,0.06579059061171952,-0.0042707023898792724,0.038586677525641974,0.05172486273014526,0.11131066833661322
-0.012670517960078426,-0.05685513892424138,0.04061136381564982,0.015219874561450561,-0.015154882273932347,0.00977364277482913,0.08850258623223184,0.17199558696838502
0.04883460887126309,0.028120383341537533,0.08777387847025872,0.09161481246483624,0.06653766961159414,0.04352716918427587,0.10201315208251062,0.24731380727322533
0.06814203278414828,0.036135687063315505,0.0983235337604451,0.11600849249697155,0.02594078418648502,0.08028714047051909,0.15658766285270895,0.1981444113934062
0.04363865543134246,-0.0035860668368241297,0.07381202885222134,0.09251038495913304,0.08612617390569305,0.06700757653356722,0.06896189634743924,0.3461733265176562
0.005841695173554318,-0.02535982755077148,0.055668386197897934,0.055906823857888144,0.05753262958973497,0.0563163948473229,0.0793574993278621,0.2611127563777748
0.04209046751152236,0.01901154043537963,0.08459095188676073,0.06574515347813487,0.026338762887601952,0.02735252238465511,0.09080411505150361,0.2765877843035594
0.05015239986970978,-0.059982808754336175,0.09000321890833446,0.11298928273839313,0.07453732582895556,0.07199082059577809,0.07888255241664012,0.10058001929519754
0.04701551123101162,0.01908179704336907,0.08940473254007854,0.11210079450754218,0.04253596737237579,0.03961655521750046,0.0680768841555313,0.1584954897777756
0.015565640065188194,-0.02136373665903467,0.04160343795969805,0.06466175888799419,0.020623711866649935,0.07471675505915462,0.09251324910651641,0.20686427707097313
0.008837165072630215,-0.05384490588655767,0.04219275216677214,0.05543506936000013,0.07991528087614913,0.056262561267107936,0.02275066263930049,0.2702142403210815
0.07220163749567068,0.008534026695184597,0.11740033500754683,0.1250159468759478,0.05903756375189911,0.09151903600529654,0.09684818107546685,0.2780047553137915
0.06295884727984814,0.06336571932917935,0.08773789793466637,0.10180893277714707,0.06385388426470703,0.11163852239193567,0.1813759586433466,0.3326290675932865
0.03245080588477835,-0.0010186902266878378,0.0702279057340791,0.06744192939389664,0.04505143876116624,0.08950815351717853,0.1365741859026198,0.4603880429887779
-0.008264925161861184,-0.024321936138830318,0.028730103895172235,0.03884846151955279,0.01780001738059106,0.023078033287451935,0.0728271943783429,0.46463292986263044
0.05750098730055951,-0.022480739963722376,0.12108680464985357,0.12263221146664881,0.06452188693594668,0.07558843565908413,0.08012021228740251,0.2482455217815214
0.06683436026944507,-0.025385540422430998,0.12512866328569344,0.10758556992005056,0.051291927386676456,0.07243401471433203,0.09150602198359208,0.2848627245233608
0.05468825555632535,-0.05122436516233325,0.08853258613816906,0.10467712256723354,0.044152391639014195,0.04461259837872,0.10736171909868426,0.17354340279712954
0.013600995270348165,-0.05095785956522286,0.040200670669994804,0.03625559157441502,0.028393145458634292,0.02580693586150827,0.083412707595874,0.2666753920258449
0.019233247402853162,-0.016949421463986925,0.06217293276649152,0.06833758672019331,0.012914771435270787,0.045522663205485085,0.11905046356024981,0.26742861037247845
0.06653590487538166,-0.0058741262804098485,0.1131015797023652,0.12561241286361652,0.06935465842825438,0.08404539794956896,0.16926758426913674,0.4179621946605518
0.04556785225404514,-0.044537247513291106,0.09212671239442558,0.10405601051212894,0.061007094059546164,0.09766051737109813,0.12348858867606867,0.3275313019449344
0.02978601215756592,-0.00781688993982245,0.04964051305230879,0.07880746045831685,0.05238506443940187,0.03987198445347254,0.11407737985832694,0.27382679940844346
0.015191024413641133,-0.014913752395237775,0.07202543923236272,0.059673494983560296,0.04440265229274932,0.014468893399228522,0.05752468740096987,0.3305052443036146
0.06576828516169321,-0.04068915050160398,0.11416191352416602,0.1188824082395905,0.0699155192408048,0.08771801086123067,0.15714891992555574,0.24141773156583718
0.05331434089600037,-0.01492824837241074,0.10337562378638875,0.12297284101542591,0.0597731906267274,0.09244564286940045,0.17809061243625607,0.25318873046615464
0.017422119102293035,-0.010190637874425063,0.06601243785178414,0.0725304438761151,0.00558045055770217,0.0365655886157191,0.09605676219297725,0.17764763760888314
0.0054428122313348315,-0.05424531455271827,0.04566475401043038,0.043942872183845696,-0.035935113013565965,0.007522087734624983,0.018311740023323704,0.10172862174770032
0.05468015696212837,-0.03654676434497721,0.12473207873203405,0.10631285226480552,0.042770366988392323,0.03870542204276643,0.07530336623359281,0.07812298984554608
0.05732294476157278,-0.015890835011563492,0.09986625986642851,0.1365684792682031,0.01916218301160131,0.034150820807119044,0.0734071990863234,0.08512393758821543
0.04377422126361499,-0.03886972930852303,0.08445831241882112,0.1027474246433821,0.006455618578883396,0.057092003683773415,0.15344528540274507,0.25216384407349896
0.004220101867043913,0.011694739749617697,0.04717002136433823,0.06000245856893774,0.048920039264445436,0.019171289259938225,0.057342049700420505,0.2534421542899167
0.02753295284651984,0.019675861085395985,0.06495435896642407,0.07592489620122934,0.027277620590548304,-0.011696051295745823,0.0761820718045652,0.29192094984743433
0.06406006973755814,0.04346599413335152,0.10295749581139475,0.12409968727722981,0.0593826994730017,0.08412922736844403,0.13855617719075744,0.26305621640326116
0.046070736117791944,-0.041514207522003445,0.09895693382577471,0.10625636535444116,0.041007637600646435,0.0849090794565801,0.08432669443581772,0.2723177823917313
0.021668693090479002,-0.06910393017800917,0.042891193199742786,0.06636582368146106,-0.02719828565191192,0.037777030071240045,0.013028268739960118,0.13591920824745105
0.005944801936703853,-0.08755773674598658,0.02204516562482038,0.022810870065473304,-0.007277776643981448,-0.014127628664634344,0.02025159722688268,0.0618593722048129
0.06199953302459432,-0.05178400202335244,0.08672917851106342,0.12082665456133566,0.00976992807009016,0.056362866808092535,0.07372612829361914,0.09299595245086778
0.0539500410295896,-0.02697594461027399,0.10990260475379594,0.1038523177232842,-0.016940652942637347,0.030047344659253933,0.0872159435624235,0.15195493635868337
0.028117856181456777,-0.025961099868543613,0.08151699931098179,0.07945269133057882,0.013886193377164915,0.05703197737726316,0.05190271964971279,0.17075652151759751
0.002977780955420742,-0.057555926204729435,0.03871904084963654,0.04416744879270751,0.011486363765332727,0.009596653432134214,0.04045891810961873,0.1894183864921397
0.0406018158757573,0.04631247347059175,0.09098518229247209,0.11353739655548421,-0.019095910650527938,0.035737328829356665,0.07884780213319278,0.208350503362845
0.05504425247092616,-0.02408801210138593,0.09258824190854548,0.10874745829680113,-0.008335113317649735,0.05871564095670713,0.10970428696397383,0.2891405104787719
0.02495793641858908,-0.005083351114976015,0.09242953325402246,0.07979398422038683,0.03136961436234708,0.1035947015453063,0.1002223572712716,0.21055257078076073
-0.0017336775207271865,-0.03114357764348114,0.02972032972820178,0.04250441408117153,-0.01840030350863117,0.005308912119441289,0.04259028981450818,0.17727467426855475
0.023897104005866435,-0.0021674817974223215,0.062458732752184026,0.083974050659194,-0.022666183153841724,0.011897261777784884,0.026006667927713986,0.10689019566906396
0.05790242286663376,-0.0018522717368602143,0.107083655190986,0.10571225500195665,0.006909264878280044,0.009400406605521883,0.0662301739495156,0.11209330278331246
0.04659674299593895,-0.06758295265097201,0.09011969640370016,0.08762793910771023,0.028708477899088335,0.04549326502340656,0.08329158329245354,-0.048214611512244265
0.02663883437046803,-0.04550725291126245,0.0744799054551081,0.040991707888286266,-0.01742585908404848,0.013054688656971812,-0.012349601019380853,-0.06228015400481292
-0.005150321775695563,-0.07917412661936483,0.03492274876500856,0.03246489292217314,-0.030005403777219906,-0.01893516799467594,0.048198004473265124,0.056033148291732116
0.0746598787694823,-0.006051831654982673,0.10010261199557492,0.10028437362877834,0.06384095853586205,0.051179842151221996,0.12434120182461063,0.1377799567446576
0.0661938057304539,-0.08377203951395043,0.10781079444850018,0.10985928972161518,0.019289809838510603,0.04943487173548644,0.12577211046248526,0.19442943691576936
0.036524157019740225,-0.07083610193685577,0.07128839181519457,0.06888354920992831,-0.008366125358803322,0.06528825059730516,0.0887113145514187,0.2296966647306657
0.004014007625540161,-0.052816463749950054,0.0277103050239364,0.018139759808514094,-0.047240169862671814,-0.030673036566403,0.03841722744994626,0.2164714087511853
0.01738380720465453,-0.07127971795326464,0.07871075806835558,0.07605143945646212,0.008602342525386025,-0.021296266371949348,0.030777481413218573,0.0048414081145347065
0.05233804355010767,-0.03135981066126378,0.08902746633964287,0.11508256617886628,-0.003963516729952175,0.01719922994290876,0.056824812453389384,-0.022722510024986917
0.03793299677497748,-0.06057620282822207,0.06320117835320815,0.09149904848780102,-0.02871444345147386,0.004791388992374523,0.042409562233241216,-0.022154168168955275
-0.008948854559302818,-0.09974513898983109,0.04662614964773584,0.037629669444868175,-0.06977674693602291,-0.03872877658089447,0.012746023758013446,0.026664370447108426
-0.005652994496259389,-0.05032120740142118,0.04325655958442698,0.052526628232275135,-0.050655647177310394,-0.03644745233659242,0.0018548103429943674,-0.21182987325945574
0.040601843390959944,-0.07388067822541258,0.09270612842705928,0.11989361113544997,-0.014423970555561313,-0.010593798306988284,-0.027758555657589758,-0.040652312440194
0.042207325239818,-0.0017424086697853114,0.08844241985299105,0.09766218492707598,-0.004973501443658662,0.05410071999133529,0.08567688037068498,0.11142054328002952
0.01606014873285709,-0.055682200453437816,0.04143684672457924,0.06282100721988948,0.02715915719301322,0.017665261811399914,0.06764850513231199,0.13381078053715223
0.01157104247295701,-0.11926846180707218,0.04793194120744783,0.04810627512877068,0.006075166879174566,-0.010022709062439274,0.04580676011569345,0.1436522738201912
0.05001460273871068,-0.05240114734589391,0.10077361742007247,0.11479731534458489,0.013014672298967182,0.028944617712198355,0.03520040714082996,-0.04826451660660422
0.04353334553074764,-0.04623199485309878,0.10982866509204876,0.10055570681072029,-0.03122553352519241,0.038397129222118756,0.07758692512130672,-0.010768223461526824
0.020635584220654174,-0.05810473967289023,0.039003403429625244,0.07285734081584838,-0.02803985367098135,0.00523961521879894,0.024224860759703093,0.0331413996151526
-0.0087860394562128,-0.09888094399458211,0.030617046243856708,0.0044340501459163295,-0.031401673479631124,-0.02639756668344994,-0.007350812156531938,-0.026538843930296808
0.03664651441653957,-0.09578056871032896,0.08426611784956932,0.08049435478804054,-0.0013034247041391403,-0.04094729701185089,-0.0302413422177929,-0.07538830784420295
0.06523640344172937,-0.06623164948613847,0.10794743596318072,0.10369216513113302,0.007801429735026712,0.01732552236015851,0.089650160468146,-0.022684852318344925
0.040604526235215196,-0.05000590289251932,0.07618848181394498,0.10133002671563088,-0.001052930534062392,0.015871680230347344,0.0913920771635743,0.11193696918024089
0.01669586477997903,-0.0490156232363223,0.06815425634944952,0.04082595158199667,-0.016027881204496646,0.029355912944913243,-0.011213965590159858,0.24886166101053364
0.004728943661793203,-0.10484170323963521,0.03140520218439459,0.026006635628761765,-0.03828970556391903,-0.015144014547893742,-0.010536837222369783,0.12356569882440706
0.052766902969636695,-0.03981570586586112,0.12050391663110716,0.10119705938640877,0.0036071541317910134,0.036755251887454904,0.0878157418087542,0.10598229897564974
0.053001952586321566,-0.011898871365194935,0.08391542740598029,0.0949345945790945,-0.025380664042303366,0.024934767516404846,0.04202419955937479,0.11635432326767704
0.02455197996264369,-0.07809454618035816,0.04037231788968723,0.0785802544257353,0.020315198619711268,0.06884510495529834,0.029936759586905407,0.01546354420830727
-0.019944692990125135,-0.08164022523792694,0.02397428148214331,0.008679237688643385,-0.02964456137339979,-0.060636021716714214,0.015209581511219622,-0.01483223435903596
0.021648468180690286,-0.09279472243404749,0.07364359028121403,0.0786889640359007,-0.04763866817139056,-0.04215489592677008,-0.057284443916317096,-0.171354704280828
0.04448071133270959,-0.041350684814695754,0.09831763816388268,0.09017005797254221,-0.04491478764959874,-0.00910228927863966,-0.007649249564766078,0.01503875918386599
0.02219965616872646,-0.08394201225752226,0.06240966871740686,0.07149369919011918,-0.025089621178869398,0.011666546796434002,0.035822989972041065,0.21361349610743965
0.008457218286433116,-0.05001334837701092,0.02533180912606918,0.021414966671858465,0.005213767862289276,-3.146097204209247E-4,0.0034239283392743375,0.23845594162278347
0.019970187133919293,-0.035897287035691776,0.04560033352347308,0.03604522659286141,-0.017475362192714408,-0.05118193961336208,0.015430452057776801,0.12556114050594172
0.055643611218954864,-0.058204291337969435,0.08859466456686362,0.09483910455072075,0.023051975778195566,0.01329963570930378,0.06897635247640108,0.10187708408501688
0.029807403895313278,0.002462733810158102,0.06964309727486448,0.06425492890021035,0.016282575646144416,0.024493476004868377,0.05412396359666176,0.2528438272449812
0.01028928814967972,-0.059445549838292554,0.052331575315669746,0.013996862469057125,-2.2818144612734084E-4,0.03190473460945266,0.009015865170845065,0.2781890584321065
-0.020953579179067816,-0.10575321762713089,0.002880776243374017,-0.015137691406004211,-0.057554829682882176,-0.013258228954144614,-0.01298109465217396,0.10473889730593913
0.03683262918048967,-0.04404681231987537,0.07163454115551604,0.08799652360517278,-0.05213550306719907,0.001970101815905151,5.4777993191368335E-5,-0.16516771662617433
0.050605683672138524,-0.11209964102696933,0.09026935162675342,0.07305836653075559,0.0034599299458952515,-0.04103482503964079,8.247423281832061E-4,-0.07942931243936613
0.016588972337686678,-0.05129145203736808,0.060775069244135435,0.06113266721651317,-0.018433904200951874,9.506611296652284E-5,0.0042559154322555914,0.0732035264353791
-4.420624326272188E-4,-0.046834756373230015,0.020470213719017,0.017881380441679112,-0.022263272942203233,-0.08160974254334441,-0.026131700259490926,0.06780369263047202
-0.017637253894494664,-0.1232819607366256,0.011902849271961016,0.005760595087268422,-0.017066185990264632,-0.04652446888939221,-0.03900387131355037,0.06792892479453531
0.04188126561053697,-0.040150037033183664,0.08791319212597182,0.10313682906114888,-0.026294442874252782,0.036125429821003516,0.08151483577993757,0.06512890296991383
0.036659144807247246,-0.013240777574430165,0.0711882780112897,0.07415515576913363,-0.011811438244982899,0.022715633385835307,0.06409297029846174,0.1125015659370722
-0.0038713507760098353,-0.058706388961604364,0.05648768730835975,0.046453344567134874,-0.03512946005870024,7.339775291866635E-4,0.039031533435188545,0.0870196095951057
-0.02697597447461947,-0.10315028496508558,0.009513683056847744,0.002742218577031247,-0.04126062496408519,-0.06241040916974631,-0.0019675117526280345,0.06977450326974727
0.029360316945342954,-0.10119150390431257,0.06648138394392648,0.08443646760977186,-0.02202867079354704,0.00265092069001098,0.020997291783566338,0.07140822128481664
0.05000027206621603,-0.060698762437619985,0.09828816048099445,0.09779837270484519,-0.005618176981732025,-0.02416610723024945,0.02060047320773966,-0.011078610360145326
0.00903334499755043,-0.013639479258755013,0.07307695285193093,0.07996832493956299,-6.934115723285089E-4,-0.004832162287420387,0.013429627471641205,-0.023525335757417276
-0.01742566626565313,-0.08804645351008944,0.043691156250677765,0.03632729781478597,-0.05954340676428532,-0.0023334344675990035,-0.02862285097719672,0.06885808421605309
0.04061338051195586,-0.04259892358667131,0.08522611325062328,0.10864623174634527,0.017417427832131946,0.03482143650617388,0.07271587271735035,-0.018181159423469276
0.05591682346840646,-0.0551171271911544,0.12932773810226306,0.14293004140900772,0.014981931642354717,0.10435884433690498,0.07569295662448373,-0.14561407675896015
0.062323501968884296,-0.039477814341860935,0.12340183732650112,0.13740170376082184,0.03004593689856354,0.06742551625923612,0.09417373812114149,-0.07495748160136739
0.009867510830009044,-0.06800027458219088,0.05675648360354181,0.08050134191817498,-0.0595550034680183,-0.0578218076294639,0.038465373609597134,-0.10232625631564674
0.03455257385903275,-0.06712444708947138,0.10043199217333088,0.12799663151141627,0.018780031046688628,0.010842597980692426,0.03182781000722313,-0.011354625130800489
0.09074034332584519,-0.08018442572654436,0.13454475394106982,0.16502829719781598,0.0011311836231598024,0.0802279682740773,0.047326458762335114,-0.19093376947651974
0.0758019125978519,-0.06912716246456901,0.13726401732655305,0.19136447191032027,0.022986007029121642,0.07745834792288765,0.02197468545997741,-0.37862228377491924
0.037017307834812774,-0.0545655282682437,0.11337520218836011,0.1305521593834379,-0.028761401865456136,0.0032212421817872233,-0.023535984548257297,-0.5128865916623914
0.04422875092747629,-0.06051183316703264,0.12644119074134813,0.14754472934027976,-0.02601909632041839,0.08433768488760483,0.05025997915735933,-0.30707463996978857
0.09790185934852091,-0.05199682559707326,0.15507916135514693,0.20721719672111671,0.04400704622380495,0.11060495090781204,0.11725167588250296,-0.09580714143858066
0.07761146613384323,-0.03588656743738429,0.1497613874457304,0.18088388071059935,0.057275289635651344,0.07250330038016642,0.07292877989824915,0.0772292170202342
0.05756086177144609,-0.017684842849542075,0.11405198176802267,0.14491347939736,-0.006500414501973007,0.06057250675558607,0.06031527379157422,-0.07379580057442231
0.07634232351199266,-0.06293996051347236,0.16943346235008427,0.20292272184702345,0.02214070740024627,0.06243404462419114,0.06156588611985257,-0.10432936498061735
0.09822302479681565,-0.059307698465346864,0.18062673896204848,0.22270575825657024,0.06352015608145095,0.0809654177120647,0.06514740264215528,-0.0734329804289352
0.08334357597292129,-0.06857728660298516,0.14571619018683699,0.18098225571016563,0.025467013013470333,0.08440894214120007,0.12133140171119905,-0.12188762271579502
0.0642811812015617,-0.12167240347201093,0.13514010603030796,0.16365012759654363,0.014128767182549736,0.017104665533868857,0.061514047855139614,-0.10695839630854442
0.1112018735320587,-0.0741281530295984,0.1741614958165304,0.211099813141471,0.04811685306182485,0.11964005466837516,0.05225689105019395,-0.0998960564279017
0.0695391150415054,-0.06163026236989478,0.13040121023076262,0.1714405874357569,0.06692700316831958,0.06748453064866834,0.11444475678044236,0.020943999358703405
0.03694040806676552,-0.06536871630316686,0.09031407052122097,0.1218434350234235,0.005926860620524256,0.020336082349809104,0.07983870915548535,-0.00330964825641427
0.024426604727134427,-0.05604156516208295,0.09268000503344248,0.10985042578624594,0.020666098994733394,0.016526221174602826,0.11370513690480397,0.06782395852812102
0.09430381576876408,-0.043166755988604213,0.15451903330435715,0.22312510542404523,0.025406410417630407,0.04518469288936626,0.14237614262359521,0.02269350601169979
0.08601178464567581,-0.025553179073995624,0.17971702640169984,0.2027633470938763,0.047362625110917725,0.1107184255917923,0.12325119780265317,-0.015717697839011502
0.07021530920081562,-0.10032542583113287,0.16318139389359337,0.18032678476767827,0.011199447196312683,0.08443427182415775,0.03745634580525628,0.02287728939790036
0.07144439022181737,-0.05155664189663915,0.13575909101979852,0.1858899620892937,0.008849835216751534,0.04591731799450981,0.07893315346463538,-0.004017921300918832
0.1136506887952416,-0.055660848303117856,0.19831051910170278,0.2418701838265267,0.05794464657627058,0.11084886384105945,0.1374819505870964,0.03297376720285602
0.10010766415049491,-0.042276300794886645,0.18485977634135448,0.22097722233535466,0.0818692258286284,0.10307760737025855,0.10131172585022079,-0.013876404452485443
0.09125289992381758,-0.03513016944035614,0.16476999402921608,0.19465213652004615,0.06568472585607979,0.07079284006205125,0.10406312291525754,0.11565652678378568
0.07488536094406555,-0.07023156368272471,0.16092868965660212,0.16808511014012373,0.05669728190323549,0.09245041560339352,0.13328071363082689,0.18582704889811685
0.122681485090456,-0.059589527085992106,0.20318842793807645,0.24218936507977312,0.06214660071547227,0.1227700365775086,0.20119201298194728,0.17874271491746843
0.11012310381103359,-0.010129022850305008,0.19318540333899173,0.2208863804293104,0.06400722282159033,0.12701280249953678,0.16218981651580297,0.20748722507261375
0.08599423622916819,0.01742416883122807,0.15737226569807125,0.1812467152540323,0.10222295936778358,0.1295137704889117,0.1883190820152937,0.22037422681732063
0.04588683304144203,-0.06570249443727474,0.12064513688134065,0.14558352372379973,0.027354835299331234,0.06594003034881564,0.09802491361380197,0.07196689841416623
0.10599486823692893,-0.10010234111463782,0.16143596151554673,0.20483766696950886,0.09996334414361457,0.11252270020224495,0.10571513129088468,0.10203298205124213
0.11587063893927788,-0.04611275861203777,0.189025714980504,0.24501136777740867,0.05435013567684455,0.17366737289839168,0.12694100089341248,0.12655569297293157
0.12085387993872222,-0.035393562061354356,0.18293348417370028,0.2199985210940204,0.05249986673778746,0.12094324379079832,0.18184417295337926,0.17026826836448716
0.054117057155923826,-0.0593218057881475,0.12801752682459494,0.16526684760600982,0.06468197112846787,0.06325157799302145,0.13223354802625353,0.14993160292287938
0.03251108524597415,-0.09287896181311227,0.09977445651045201,0.14173975977897993,0.027367649855034343,0.05452583340294333,0.12143076775668704,0.1526066616131789
0.11153558892636735,-0.07074054223270126,0.15545183559600256,0.20516982308516105,0.021330738989709795,0.09122017605355545,0.11783565735066871,0.06971639616519949
0.09854001671123204,-0.008081885041517689,0.14656643496421307,0.17888510491702025,0.051225163549737926,0.07492736419742899,0.1470869388422735,0.175998061061936
0.07100501311834932,-0.03256983146467701,0.1319829854153332,0.16403797838663073,0.02932281527680606,0.04494863806252863,0.11692123754107017,0.18770820373112437
0.04570049966550668,-0.09398738675499818,0.08383180943598195,0.10191315808320237,0.008166645960108257,0.02438511361311667,0.09053844553754471,0.115927103320622
0.07466938661254119,-0.12844117599793134,0.13931933232888194,0.15219890304179423,-0.008943130405625901,0.06582860945694338,0.09063479458356945,0.04195605639337567
0.07632117139423847,-0.08422304690105414,0.148840978807124,0.18906343163705683,-0.0163819913772358,0.07294354202210152,0.08508239420197858,0.0365453028313185
0.0715652527932167,-0.03857176867712839,0.1430279897647052,0.16032110610756098,0.006029539760272602,0.028624748729503588,0.03730715945323271,0.044633207823988816
0.038646855171798056,-0.07849894616539677,0.08695960949128902,0.10523315881370421,-0.017630397823706026,0.01620375431030663,0.04932464942726877,0.13058736320418168
0.016798050758388805,-0.1181419852142829,0.07646503959764424,0.07974677635932056,-0.022192993912212983,-0.020951788080810663,0.04253928179919389,0.03931359116969137
0.08236475020560305,-0.0813047816239086,0.14330601038501056,0.17350904341814646,-0.006928162594155109,0.013483875994273073,0.07542825796455806,-0.11253523717048772
0.0695753078620152,-0.05363144664424,0.15528375032209876,0.1784922195239287,0.00936985650629292,0.01948851059309825,0.04217012502515835,-0.05453778170845383
0.06710681956844014,-0.10442162495581572,0.1334678045540088,0.1688668894382562,-0.03881001076156017,0.0042125980598747,0.024174500460557996,-0.1346310721352607
0.035642070498215106,-0.10804625979419533,0.08889271250114197,0.09151631042256006,-0.07656239405362496,-0.015989748058116204,0.0031971798619226527,-0.05137862390764401
0.08220372696737582,-0.10332593847920038,0.1327088711944308,0.16879070455907638,-0.01976418430010042,-3.1618431506352795E-4,0.017888698769433553,-0.03114330144492624
0.09034218561186201,-0.06272963854884375,0.1631664203054559,0.2056159542015145,-0.01008956897828902,0.009195876307260029,0.02991740992859246,-0.1558061144829358
0.09691292900002565,-0.0861328295536885,0.14508769040887257,0.1807403221681842,-0.021246296662473227,0.026825552018236068,0.03076368869618043,-0.1738606199568343
0.061990580950742266,-0.009337195206556952,0.11857840459937141,0.12743357464833988,-0.03885098876810705,-0.031857960884453924,0.0408591487454459,-0.07381910654062718
0.06264673514307958,-0.06362577066264104,0.12034028094375765,0.12601273777697716,-0.039323171205656544,0.030877757494636365,0.017445685355384835,-0.03121430534967009
0.08888249512181992,-0.10619314864877372,0.16531625463335553,0.20688508233434516,2.4009651064310633E-4,0.07267344663141344,0.030992971864392857,-0.07431058669473961
0.07583152941063238,-0.13435234878060728,0.15615224316823403,0.16234082964951424,0.01617501064732886,0.03457710802659955,0.06369879884785097,-0.027975436323936127
0.07089219560292208,-0.1443331680445327,0.12885337901551905,0.14367387875859144,-0.05225025907879721,0.0222193766662611,0.061045265274099175,0.18195757603548937
0.009958509541410296,-0.060808598520526294,0.07546321134699707,0.08034423818344436,-0.013744698483499865,-0.018346338112496766,0.08646893162031004,0.24603295261698171
0.0446522401622412,-0.10321936694322917,0.12685498859245278,0.12777572945181515,0.02189823154748894,0.024808358260046015,0.07410001772285395,0.2460846983557665
0.07644658080491382,-0.0582142325756879,0.1318447822055434,0.1747737877017544,0.04727248712305325,0.1078781676550028,0.13054784228248123,0.3703993137489606
0.05537273226581191,-0.08993941405019731,0.12127474425094159,0.14860067536455376,0.05114873732473856,0.06856530760992122,0.13313625344122304,0.32952468741921664
0.018783462457684474,-0.13110323161747572,0.07990177870751186,0.10474801001435985,-0.017994436579519574,0.03743495574514451,0.10451593572696916,0.3908439913739165
-0.0030490707476908407,-0.10778095144338916,0.04864676685336644,0.056538676247873176,0.018219800634840695,0.0559798015827359,0.10072537408380701,0.407592510415042
0.04607199956912755,-0.12139347025430713,0.10249057347992727,0.12239880910383003,0.002769663275112938,0.06333582893178907,0.10520140796248682,0.39469861407778156
0.04446211181172732,-0.04882697360344175,0.10968232373616604,0.13387150943823453,0.033857795525738366,0.09794237427882331,0.10626251075027576,0.4510109460868577
0.03323826877725747,-5.554695182731495E-5,0.06377293816481244,0.08771636076604428,0.03534587019635928,0.05908103291839653,0.10981927731059632,0.43130108846477166
-0.011636381286171657,-0.04553294801888249,0.05089547565181107,0.04368319250598984,-0.025757960040541573,-0.027302026613378313,0.08004262512254082,0.2628986082005821
0.02248764770803631,-0.11734139102254491,0.07076552832184013,0.0919507798855759,-0.009805119380302124,0.04992968829447464,0.06259924660483268,0.06513739807711375
0.034935989206069176,-0.10904628617433736,0.10009076290766664,0.11128866142997976,-0.03781610067078533,0.0202828986176269,0.055250817946696874,0.24533086190985356
0.0314054993674516,-0.08954419431107835,0.08336888660505934,0.08344521719409731,0.033957147712368935,0.04982870675355708,0.11211388805528341,0.21875427479426474
-0.005703225831347747,-0.12261095489723987,0.044971230910351906,0.025031331416809965,-0.03174232116830355,-0.0032939812812748798,0.04942566213297184,0.23476972669762702
-0.0013177334176580902,-0.1057270551379831,0.03949488735643908,0.06599282167416431,-0.015459966456803066,-0.007959900993220484,-0.009468253912057967,0.21535759445023459
0.04636638289667942,-0.12218896226108533,0.1075965099389069,0.12928493281984413,0.02201415827315941,0.017549458397161044,0.06940481258002745,0.14496217816380894
0.06029391446627505,-0.06593099686795956,0.08974695290727552,0.11146674390998978,-0.028512372964709945,0.030233141453418336,0.06756150244487066,0.25010902161229703
0.005613083584991491,-0.03210735726410358,0.06338682386735622,0.05627195135196447,0.009930617160285322,0.01643440095110625,0.05660300795125039,0.2736597374516567
-0.014269758494243764,-0.07519870991659583,0.03573206497589221,0.018664279647521986,-0.029043847755321345,-0.014592867154255978,0.0015311324064508636,0.36784879338106746
0.038378968841820876,-0.11086865565102652,0.08359129484756783,0.10840922068518605,-0.006026258375400564,-4.436156772750152E-4,0.05161968298689806,0.20127139742000574
0.02768312407981173,-0.11215541563369372,0.08100669236526037,0.09013094810262448,-0.05394284140246049,-0.013952888375739048,-0.011885581788406777,-0.01769603519709606
0.01844534524633505,-0.08325223811852907,0.06783513971390767,0.056645846272374484,-0.1138888364206227,-0.06401984983483974,-0.010837584376040585,-0.17746876103493187
-0.010314008309056391,-0.11685507796890739,0.03804826891747268,0.04594192785992879,-0.08423971922962672,-0.10346909292765516,-0.06013509731379581,-0.10096337296583457
0.060876405158791086,-0.16239209080624414,0.09016744641538521,0.10125325870910662,-0.05841931328464049,-0.08693915847932947,-0.03803118631684145,-0.14250475201106205
0.049113702029937936,-0.1951436142148561,0.09248925469512784,0.09560322374660937,-0.08868678248895565,-0.08145477406005472,-0.06001483817723677,-0.3740800114122222
0.025609959696080986,-0.17165678178169674,0.08001345457435693,0.06677762511698898,-0.09719868321382316,-0.08754267940208077,-0.07971480922106079,-0.32943345441704414
0.01236864379310415,-0.19781653641984778,0.032711679629788104,0.03146814727385561,-0.1226441644322864,-0.12621369755746667,-0.13686987334401804,-0.1906196375180846
0.05126822847778839,-0.16535006955463652,0.11699070461570393,0.09887772411039572,-0.07097539103586642,-0.05815184218049153,-0.009138018284786678,-0.22911204477877767
0.06076874320654238,-0.061269367134882485,0.10704580169755953,0.09815986976194727,-0.051320034687833666,-0.009761703123254917,-0.016681512463933595,0.01939038841509058
0.04363825043503698,-0.10658909325620952,0.1058204440301154,0.08907363301640503,-0.020886095413193816,0.03159437890377899,0.06713800438827747,0.34681249903383626
0.013958063852398367,-0.04125733624235733,0.052133497700137615,0.0644214714047785,-0.0035433005028187373,0.01173478848193485,0.016683577040096847,0.38380013921527323
0.06526896628224685,-0.059935399202099615,0.12527949236813782,0.11442378862057678,-0.00952936956982759,0.02643534024350712,0.05386166826358881,0.3710359844713852
0.07670795556643667,-0.081314448309173,0.13468749675667466,0.13114718143960474,-0.01959591243850685,0.04091739046176192,0.011309271474887944,0.11432940735222547
0.05828346243782993,-0.029943434747371767,0.11533403741961445,0.08867988325572901,0.023821360993098298,0.053477428250631676,0.05938697951264632,0.2527323439047145
0.020954033123801258,-0.07145907958990716,0.05522227090118492,0.05315176387959844,-2.3897867276329726E-4,0.003338476041067323,0.09221254943454767,0.31173413178607823
0.040386701336159264,-0.08913530377181322,0.09336506000688169,0.09530926506840576,-0.02659933962551731,-0.001351295195363325,0.03525229747086383,0.1635231342078423
0.06466777889948334,-0.10021481027850077,0.12111466797681683,0.1366600166050394,-0.018919002796248627,0.052095045346661595,0.07858037744590048,0.030916301232657234
0.07684403389941954,-0.06544374265251074,0.09959766170559689,0.08783444190473036,0.029490133831751836,0.03884157764997585,0.024906052705738743,-0.06287852218011582
0.01203489350152924,-0.10953733670855123,0.07541522158171801,0.06599237758281812,-0.03389651416774275,-0.0021133135404406006,0.02084258041117827,0.17284077548871074
0.0551150953261602,-0.06683225322586803,0.12574839109316513,0.10648053661230944,0.0010796687860497797,0.008004415325103792,0.09347134264341075,0.15376541290379286
0.07360975596587166,-0.0679425889273261,0.15016214975715456,0.14699277621868187,0.06600243386130392,0.049195593643768964,0.13642707285024563,0.28658766799512886
0.07592800394591158,0.011571349417285617,0.14566611496358298,0.14247894463747293,0.01863034476314005,0.04661149988467771,0.12483944475117656,0.25170661073659883
0.053767015579227556,-0.11186099990605819,0.0923136990899086,0.10520410299908822,-0.03145057624947129,-0.011971695991408765,0.03922231839616215,-0.06769068613670451
0.08304911467516808,-0.14925711863561694,0.12075870465442337,0.1469350426788227,-0.02545449568848578,-0.030782773395611418,-0.014999268340505925,-0.13739465415787416
0.10657879303979254,-0.09549858258603766,0.1605884147499526,0.18094378819610776,0.0031410531404779396,0.07249389460353584,0.0884355963594222,0.05094127895687499
0.09485151595455711,-0.06598026714115868,0.15288702520638775,0.14754661887234383,0.050374147850240594,0.05217969928439359,0.047092999998677026,0.08953974623177803
0.05544386161448937,-0.06163645975924108,0.11646476157096378,0.10405584060862982,-0.010401211990338763,0.004342162628090576,0.06361501006774475,-0.134133159911243
0.08528643628305815,-0.14284218375233157,0.11462469312111265,0.12649584064032668,-0.019524702959918594,-0.031115787595529923,-0.031623063773837196,-0.057549797893178115
0.1089344760751853,-0.08007543013275634,0.16749806536943823,0.18631276955666667,0.04610992262480468,0.051247802130249986,0.048656395535126074,0.03779707706342572
0.10234869330465232,-0.07530028958056495,0.17013260302420324,0.16802608780741696,0.0368220502180818,0.05551861109095757,0.14670558307610163,0.17212825840698637
0.0553315911427454,-0.037627029024550396,0.12429845330192354,0.12798510573740535,0.03457899845016507,0.050690797661623946,0.05161789053097211,0.1895071306230248
0.06790396372204319,-0.08418424411145543,0.11549519982288248,0.11958004613414006,0.038081953105235516,0.046032992315031065,0.08503063114482323,0.290276562697945
0.11762332547900836,-0.04722172671197208,0.1733336474400234,0.18223085599715194,0.04802266225650398,0.09381786755332074,0.10232325547694725,0.29348507937527435
0.1069016009715245,-0.03782908547551858,0.18805914075516003,0.1591417973176135,0.06745913959170631,0.05476163596552107,0.10786030951474615,0.2364628013388882
0.09002735672272327,-0.07726709596156973,0.11869567899675729,0.13367605596718737,0.05571964864390632,0.021521779333257475,0.08500939613605425,0.24234115520141253
0.06266821115592972,-0.048194949697020734,0.13403832757376785,0.11796883012784459,-0.002068057105731616,-4.1698595390925186E-4,0.085485791114505,0.12026419787135963
0.10466071823618919,-0.09248422687875038,0.16873362458932695,0.18606923057153588,0.07588049481917483,0.03506491061510035,0.1117613220238428,-0.09315603958749082
0.1094365813113498,-0.13632957564387432,0.16860139235336627,0.18764495681267668,0.033042131646087866,0.08676057934421313,0.10882576585488417,0.06902112375185972
0.09220172047790114,-0.05449919483393174,0.137787613603919,0.1392393242226474,0.029821738671158844,0.06811613614923426,0.16799429450522924,0.2831630702024055
0.07377421390159825,-0.10179217044620201,0.11511210568014374,0.12092450485503106,0.048793336516268035,0.06563553965406566,0.13655228442410086,0.2463182141173521
0.11175344980587107,-0.07837294906952715,0.16159735600731404,0.18493111038638396,0.0951540235810418,0.10141271064371352,0.20368041265247638,0.35788526094243767
0.11666325432671257,-0.11710827974897184,0.1762417200478956,0.18180137507638772,0.06569363052459665,0.1254132312733054,0.16341919811638553,0.23404804365304294
0.0918425092941671,-0.10757454012265327,0.15375560963815418,0.1672738156352969,0.08203352844160958,0.11242943543382024,0.1251071916876021,0.3491928994382958
0.07978047530685554,0.010175789131012122,0.13332090658789986,0.11804911357179118,0.04316181846050929,0.046642515344562145,0.16661789937722085,0.23757186154847618
0.10531668096253646,-0.06431220285401745,0.16156304391989298,0.16614747277025047,0.033666591584327735,0.05801186708698293,0.0961647661051069,0.06610443265773656
0.10878798633562305,-0.09525440572453511,0.15975628491314187,0.18305125033334446,0.04752487583873556,0.10919257600256224,0.08329187436357484,0.009798821460102303
0.08763638991628026,-0.10581510392138424,0.13812432936930794,0.12785982158709597,0.028750206325253422,0.05483115240505956,0.10873194021376614,0.1509558787881645
0.05659920910523808,-0.04978263870502672,0.10517927939538022,0.09831180390278496,0.1004003651531757,0.09630516780555567,0.1587479840971,0.45586475111546876
0.07929850451780981,0.01398597470056226,0.13618891431144275,0.1112362316557527,0.06578084809568417,0.09930502780261129,0.18640899564431618,0.5416694983618162
0.08155283133171988,-0.04489787339186345,0.16362871818224628,0.14907261413862288,0.06960412389111248,0.06656980763278651,0.15552641440191972,0.28798006704722257
0.08203581422402265,-0.09040206427644869,0.13170369809085716,0.11951206399475017,0.04874457773278329,0.046754026016165545,0.08565710332532374,0.15306465856224344
0.06422673550516841,-0.0636347799967042,0.12755903843366265,0.09357470178852226,0.05868329576456281,0.0867376868327794,0.05650018732980807,0.17129544491984539
0.0636760804439019,-0.06648337541791968,0.13457173995952323,0.11011999455342203,0.04850775883373448,0.05862357985146624,0.10223127149604602,0.41552574006056014
0.09649561922993302,-0.017460512022882332,0.13263795213224547,0.152057434751898,0.06814628798605005,0.07369397947499244,0.14237716310456466,0.2581123210100005
0.08587400556652766,-0.11758444850707156,0.11920639118724419,0.13170706783673716,0.012379756063287284,0.06403027945500195,0.10696447434136153,0.14895628897082913
0.05832884883143466,-0.12490356713840153,0.09968433471879029,0.08606024821698341,0.022367856774771336,0.024724398798375652,-0.009964328048178525,0.047272081087663495
0.050007163945898186,-0.15807590760059803,0.10330726664734427,0.0817055084299862,7.943379548121521E-4,0.014624451246274775,0.07695379367889454,0.15120079487719498
0.079230023621363,-0.03203480183553086,0.146443183946125,0.14596507354995775,0.02839441315972334,0.0624459456419771,0.08124928442751664,0.11833865490421028
0.0785112039584008,-0.13891910354278986,0.1274519248226535,0.12431234682572115,0.06192728270102772,0.033165474120842225,0.021228815146927954,0.0010291154936533375
0.04713316521725955,-0.15256942857807687,0.08335961256665209,0.07913470814564025,0.005033945545443744,0.0511900540308733,0.0026325158072975363,0.04853824214832782
0.026893892180282097,-0.09722250450061277,0.05350020108081405,0.05563328124427441,-0.010396888562343005,0.003424407741600674,0.013887829488243773,0.2678472599990439
0.07967030464242984,3.331714523253648E-4,0.12909512028094192,0.11905652553318971,0.06879737147815024,0.05320351294345428,0.13174109832999692,0.42473770023372204
0.07047677595695698,-0.08582398109200563,0.0979224743264647,0.10576243699537527,0.0460747721199557,0.032993633609021425,0.07687258953808813,0.2778757078669845
0.029667665419367828,-0.14026207390329548,0.0741560930755572,0.061865318086860493,-0.009384440500535676,-0.015026357834247217,0.011486955375085525,0.0394625370349132
0.027833958013183085,-0.09969053448320281,0.06822569771964065,0.05597044294117762,-0.013336201777968557,0.010946221061057443,0.012867968272865966,0.11368240430837404
0.07767121823677711,-0.06884858206906075,0.1141397273510151,0.11003960746448435,0.04785862558082142,0.08304403230084881,0.14729947746638822,0.2997043551342358
0.06621241821858379,-0.015758208264084195,0.08311457254483076,0.06330516819250198,0.04529318195602362,1.4546195542118612E-4,0.07956519431982419,0.10603055477786384
