-3.424517105139651E-4,-0.06328677478706946,-0.015981031476115137,0.011865278850466714,0.010364238168864264,0.021213457581364968,0.032660646527753814,-0.2760179600781066
0.0071118387277451164,-0.034780905634479914,-0.009451439128634918,0.0022428741365091618,0.016090108490609423,0.017119484712121096,0.01543151555130193,-0.2592230181479635
0.00964304139067152,-0.04315123983994354,-0.014171485928262676,0.015143697634249194,0.005443688652949666,-0.009460272045004263,-8.806043111511572E-4,-0.24954782881539098
0.009767862317965198,-0.04569868635056378,-0.01501135954779019,0.016672638906117424,-0.008616813652669683,-0.018748029586834285,-0.01607534019190145,-0.2625575682351421
0.020527219081196185,-0.03405420074797322,-0.0034215352810405392,0.03349300993947911,0.007301516248414803,-2.493573399488941E-4,-0.0037598436118223572,-0.2160795808971067
0.01756720092650723,-0.020825508717021712,0.0017362992775272331,0.04431448555646509,3.2849699608553324E-5,-0.018096138564128263,-0.01820280213372098,-0.2303710506562586
0.019757265504083195,-0.03459220762357637,0.008752704710051129,0.03151375672247434,0.007844685477100814,0.010630087348615433,0.01618395188879813,-0.1884538557395178
0.022260787017275626,-0.03804946637264241,3.861556456082786E-4,0.03189381552016241,0.026274998752711096,0.025074877144462313,0.01839014620094068,-0.19708972028123195
0.01934510771430469,-0.029153386875442815,0.010280214526425668,0.043798622154886994,0.025409836988640293,0.025612936803577194,0.03394326294837719,-0.19679015866677899
0.016156862326576135,-0.03162198446610195,0.010747185095383579,0.03731492100192485,0.02808980573554024,0.02490529845046899,0.04593078115828875,-0.19733441465642634
0.02035743901294707,-0.03834079514803303,0.0077774306760143705,0.026889510852785407,0.022020278554598923,0.026240724403866718,0.03741993340805596,-0.1899137952376068
0.008049718761259863,-0.04266601209088828,-0.006881219222475709,0.02984553291226128,0.020210889017183712,0.01735368866027053,0.02282013356778782,-0.19633201238977593
0.005999339019795031,-0.036407861988209216,-0.004359950190503652,0.029478568977555325,0.02620089097085438,0.025174804535817923,0.048357575105392785,-0.18289330700105316
0.0022764263847175293,-0.0415566517561648,-0.019908484127983395,0.014224480785645654,0.02627157414780919,0.03918305441506225,0.05989402152364647,-0.156886620655551
-0.007558268445497962,-0.06756978405029086,-0.041535729083355184,-0.010949254308382927,0.020933305805176747,0.04802379400549359,0.06919289319705364,-0.18959980914737323
-0.014747265879020094,-0.0794573559571197,-0.054602005672331026,-0.024527080939151704,0.03130274420945383,0.05716117919386185,0.08690791709770433,-0.15390097041865067
-0.014077610542789469,-0.058122803946317095,-0.054405598374641095,-0.04979778307859739,0.02603703420560156,0.0583923549008127,0.08610166957590729,-0.15103011121667306
-0.01713871417356973,-0.07010119328661367,-0.06088124675409264,-0.05768454052205748,0.023947393702329983,0.0741328165537067,0.08898176173074779,-0.16444797682431236
-0.030169007446244935,-0.0881667147115201,-0.08030770680372376,-0.08608735512216242,0.02818032931180347,0.07099898885330348,0.10654095942283062,-0.1750241100994445
-0.03255296550527093,-0.08707055844632972,-0.08268644455251899,-0.07967958988313827,0.027873384946888916,0.0796004539011247,0.10705150810590205,-0.1715388494634965
-0.03067707431774189,-0.08900255138986018,-0.07961166140066778,-0.08407865717337161,0.021599607219096022,0.06443199704032239,0.09295745789056233,-0.17690403046833256
-0.030844042109564304,-0.10640458555146082,-0.08712386863262644,-0.08041705684925556,0.01892191716404448,0.05727790972515781,0.07976380427942625,-0.18338862685610033
-0.04273392295136046,-0.12722627446384074,-0.09179299445574939,-0.0858472639879829,0.013160141209894696,0.04413709121740069,0.09305955548611938,-0.20600363369269273
-0.03342454354186683,-0.10711657329325204,-0.08649335933457637,-0.07942111790952143,0.018587057654083382,0.058045096710261326,0.1022448166667605,-0.17010997297185954
-0.03393314587664753,-0.09243936337871729,-0.0746859456064693,-0.0763645457850224,0.024010783265091856,0.07066252244512723,0.08364934629744394,-0.18981339906684963
-0.03656529375125611,-0.12171798397584524,-0.07860737747152839,-0.0668424531229647,-8.12707717018698E-4,0.02822595689764463,0.047339148499722296,-0.21749833353277084
-0.04216208842480241,-0.15107997754298796,-0.09045643738777727,-0.056815692360613984,-0.017751517367988606,-0.005292971056997469,0.03513380086481845,-0.26826157885032453
-0.02831273888535737,-0.11669133255661814,-0.06489718733422337,-0.048910089031935326,-0.009627588051506195,0.011281342878817139,0.03872882696811737,-0.2346285942817495
-0.037293918343248085,-0.10340894358062154,-0.056933018821703714,-0.035527915291080854,0.0011822316028534943,0.03828543427816354,0.07356740233049455,-0.19992187291047311
-0.0288272614478654,-0.12105493460528151,-0.05771843516669113,-0.03950938690062098,-0.002863138198688056,0.040524627350559096,0.07317949008729185,-0.22205876414498313
-0.03678509702040498,-0.13287894975401202,-0.06711801800457266,-0.042976026655380986,-0.002835027971986815,0.046680234832288524,0.08036951112255392,-0.2314197596226589
-0.028722246966110056,-0.10710480449866054,-0.052644735179484925,-0.019997915640018894,-0.006288075066066176,0.05214284960062274,0.08308548344254073,-0.21344283227290983
-0.029879348955973477,-0.11678738673042985,-0.04672233826634921,-0.022449264498452387,-0.008403544249262537,0.0483980278985366,0.07905534766178784,-0.23410721339961868
-0.0377546111990281,-0.11839703265089338,-0.04638709960835499,-0.014671775384600984,-6.855156404448492E-4,0.04553726789695411,0.08956959489719038,-0.22428886975115575
-0.04881466960797538,-0.13709184115030632,-0.0466230391249178,-0.005867165501013651,-0.012121419205009362,0.04960837935388517,0.081908417482577,-0.2333958128007715
-0.030234651089151278,-0.12556982353743917,-0.03722100753629295,8.875612247921629E-4,-0.006467678370916365,0.04939296142728122,0.06962422722106316,-0.2175397547932088
-0.04337032903697368,-0.11847374034033475,-0.03956125205977051,-0.0023121712262347033,-0.017241987592525827,0.03631555369331071,0.07593896091800496,-0.21311419378480448
-0.036742796447260966,-0.13072303594167922,-0.03443699660278166,0.0043597567673747594,-0.01637682865149093,0.0365792190819924,0.062135876226848796,-0.24217742317865407
-0.033930707681368515,-0.15540997538782395,-0.03966201005659854,0.02270391511867194,-0.014153398916520501,0.04365248686375482,0.06365071604666088,-0.2840097223982462
-0.03136441790001608,-0.11661481308838136,-0.02075640784206052,0.025835722556627073,-0.010246318990460778,0.0411355168878661,0.08697786886490515,-0.24881403972544844
-0.03312199871551061,-0.11551660514327695,-0.021096332676418715,0.029871209122984813,-0.012883174879262665,0.037298036471736885,0.06769238229307215,-0.26012581315305383
-0.03664381442960675,-0.13087203365994832,-0.017105440979166598,0.03760748191018644,-0.01656928986293988,0.045617460269135476,0.07616775466298442,-0.27477823185407696
-0.03704294609210419,-0.1431699632363681,-0.020971182329156447,0.03672313193821501,-0.011542154030739512,0.048540695102318794,0.06343287206947046,-0.29197200321851413
-0.026360106696285853,-0.11042427612445425,-0.012777530855095686,0.04840455726409676,-0.009023067802851661,0.037906628981120835,0.0600339648599438,-0.24736616562826524
-0.03082149004708839,-0.1208563523028467,-0.012292878712333564,0.04957379179945963,-0.024694690068326263,0.022973961076165537,0.05484113070497979,-0.26416910183577497
-0.034475587205235275,-0.13090031716721495,-0.011148970596600872,0.041573641331511535,-0.021560005809306528,0.032148425025476934,0.05083836121750265,-0.30552937235674893
-0.02937778762728843,-0.11788198294026758,-0.0021685100419998778,0.06801142629470702,-0.025988796792865816,0.026573290613737637,0.05127405954010368,-0.28680183942047544
-0.021202570751245257,-0.10916163625754527,0.0039760828247489485,0.05914851299885306,-0.016177209808462347,0.023664479867069814,0.05011367368467233,-0.2779900978308674
-0.03144279694028621,-0.11332840467706388,0.0034273214448508247,0.0550958721175678,-0.018198089351866488,0.033223270805228855,0.05100163125956156,-0.2903208256945523
-0.024156792718252156,-0.12494181920007254,5.206616565363653E-4,0.06877618540350822,-0.020070506893441416,0.027234479652913774,0.06760051597890636,-0.3078823789619574
-0.02182440204265698,-0.09170076892024441,0.017219599301288503,0.07296713097482041,-0.02154817876448235,0.022642583695783928,0.06859614134080964,-0.255455285618191
-0.019682936212200235,-0.09384232020520952,0.01093022916356864,0.08046449578471489,-0.017570289967321677,0.012611099886410841,0.0517065993402216,-0.282289553402018
-0.01659951346049977,-0.10069690506839848,0.006676518401997593,0.07312052703192842,-0.01710449149005997,0.01763271695902395,0.04470210082821895,-0.28920950787903094
-0.013674649194845675,-0.07792572730056589,0.021089675536033716,0.08350606684588463,-0.012545570817378615,0.027102746169765414,0.05466585818414749,-0.2610960720362518
-0.018467806578044164,-0.06077742417390437,0.021142455087227868,0.08353546340894788,-0.010473360609618532,0.02785660565070215,0.05451399589790885,-0.23656445509223775
-0.004002345481066311,-0.07357550510356907,0.019061429416935883,0.08031297794673992,-0.009551372731522303,0.02758021472656566,0.04513528607949115,-0.24777425924375962
-0.014717396269277568,-0.08361420890108252,0.019087115688600352,0.08648222747136002,-0.0014650621205574766,0.025533269532640745,0.05085182701523225,-0.24462072803009222
0.0012926188657465002,-0.04094160654078475,0.038699170581051934,0.10250853974841373,0.00178225819549747,0.03764531621056255,0.05708742867345549,-0.22117235061404086
0.0011908429757352239,-0.03864090510461863,0.02621747418542195,0.08955285048162329,-0.0031380934757762264,0.029530240078667704,0.05086461733544404,-0.23250161701967315
0.005839620752952948,-0.05436173438195298,0.03311711450468086,0.08443030361529737,0.005583676713979497,0.04139158801366678,0.07591005224795165,-0.23323824730853618
-0.0049820958566837515,-0.05091214915578858,0.02888488592984271,0.09264535620783011,-0.008263848661020878,0.046366866025337426,0.055038924777133326,-0.24067803111150327
-0.004375473857786558,-0.023733501640783146,0.04245154618214924,0.09233564514745951,0.013380791131831302,0.048921845690519904,0.08319683695904756,-0.18789605340557927
-2.1745910301594468E-4,-0.029895987432407924,0.037140449636845756,0.09272152521026572,0.009948494903475288,0.04563312580421939,0.06883253033042414,-0.21604974957458553
-1.070749756714756E-4,-0.03604370326347567,0.03571763083603987,0.08122647200017832,-0.00200162211372224,0.04004384679461534,0.05938683084191564,-0.2126612948718536
-0.0038907679468617134,-0.05372710603507201,0.034201150243100206,0.0817887416017456,0.00817855098551471,0.052152202170548084,0.06560418392703866,-0.2171753767737667
0.004406233589358772,-0.028784610012614,0.04118780752652775,0.09974734049135775,0.007565575373448607,0.042361297527374435,0.07306868432728698,-0.19197058683240872
-0.0034108767290161376,-0.039845757278638504,0.03941326551561491,0.08109417066126709,0.012967837345863207,0.0469380291802791,0.07564929689693116,-0.18985143505829072
-0.016419068599300993,-0.049603104503179375,0.02820800657269778,0.0862602820749256,0.010958297949034272,0.05194191710503902,0.08677628572345393,-0.207294522432738
-0.0066795808285069255,-0.051873142142989326,0.03899196087940547,0.0829289665436843,0.01263871592080436,0.056662161014975745,0.07554412596968531,-0.19956473738614036
-0.008611260827470612,-0.024181885608052293,0.03849899265608667,0.09666034017981306,0.014984901384935575,0.04853005298014786,0.08585778806960775,-0.18236816356801702
-0.005491215196546804,-0.042675654773633505,0.038063782647942024,0.08916939875107877,0.02549777015117444,0.05496447868216558,0.07780097346842213,-0.21872782306039837
-0.01411372953283715,-0.06068741776223366,0.031395008942087556,0.08395400500630208,0.009488291220512611,0.025209435979176582,0.049973150250040406,-0.23220280851135475
-0.012316118541863789,-0.06505564552848486,0.028998737559378512,0.08844817422298608,0.01877069292305083,0.040311787116151104,0.051482840901766316,-0.24206367569982412
-0.015196308478881064,-0.040629159203037446,0.04624726337379082,0.09017258251010013,0.008053755748432721,0.04545161115473168,0.06035610217726067,-0.200829115341719
-0.001656142378366736,-0.05161988007506751,0.041270610679386824,0.091230280383143,0.02220097671396143,0.048809490533000925,0.04973029480555022,-0.22079067096055024
-0.009847349099091851,-0.05124483340974193,0.039289563251418864,0.08965088503740158,0.022170409588171198,0.03763332452237914,0.07162321222574523,-0.2273612774460265
-0.013629602921115536,-0.048787717884442104,0.04390070481750627,0.10072777393464633,0.01347393485794145,0.059003255457586404,0.07256383740065737,-0.23615208526290749
-0.004282172424252013,-0.0289941237990198,0.046606167924857396,0.10538254995453991,0.020091863312022718,0.05323514959307546,0.05807083901094965,-0.2171329751798592
-0.017249111148839855,-0.041643654395007945,0.04578002549657605,0.09332553995358282,0.02919595352041169,0.04515116480716896,0.08196332690329572,-0.2216826898278093
-0.009781382070088463,-0.06129858266316456,0.045163147908857976,0.09400791014053843,0.031514151256740175,0.060527527794277176,0.07441453275115191,-0.2313527731329459
-0.01466591514782526,-0.028267014324162974,0.049266674639713605,0.11075909959185379,0.024603184433600028,0.05991810103737269,0.08311410774103052,-0.2039395313622255
-0.003908563284532498,-0.03464327204540304,0.045419726898651105,0.0886715451848619,0.03138776392368747,0.06293590155199591,0.09074519110100188,-0.19757088020076563
-0.01458652684271462,-0.037466893558161546,0.040874274879008785,0.09492702167383257,0.03289761355546417,0.07842994394405273,0.09390548703275486,-0.18934071298404814
-0.008404267639528881,-0.03784814019086006,0.03921167936109711,0.09146181879492601,0.04163694636639252,0.07423894276609429,0.08239970149764238,-0.19798264084741785
-0.002569511543558229,-0.011086957596833317,0.04051417791775531,0.0876310930618466,0.03382589369785455,0.09053161477909433,0.10287065633825465,-0.18167311714862194
-0.009453113072656902,-0.029234522826599205,0.034613627164212034,0.08566614478100958,0.033796828725078235,0.08030572728765917,0.09343511792774825,-0.18453890792664834
-0.006074188316289777,-0.03724583885750039,0.03045640041516106,0.07896449226425258,0.028379321182904232,0.08091991197183424,0.10321157296070464,-0.19940142577567557
-0.0014663618156848454,-0.035587303509491124,0.027628812651304135,0.0894413659639146,0.03789840427141019,0.07416365050092052,0.10351681061435902,-0.192849220718091
6.103085321086005E-4,-0.02002200217398401,0.03640045538632675,0.08263725365580218,0.04346547906335273,0.08573975903490716,0.0879089814934483,-0.17873711511641519
-0.008850775965845,-0.020244106161093862,0.03797484785209143,0.08529669701200887,0.054050940737662596,0.10570155644669327,0.11237509970552056,-0.19295286802306497
3.0807177142953363E-4,-0.02902844157569625,0.03159280446775051,0.06573251624206505,0.041647150102000666,0.10539970179124122,0.1163498227730718,-0.20281147932735213
0.0035413225084382364,-0.007080241813189091,0.03160629743469865,0.07430642741529844,0.03896510766657212,0.08852235294292225,0.10891773484908983,-0.16901630321601532
-0.001384492705367975,-0.007018087647230109,0.029854547072978743,0.07396827668540715,0.04373958899121813,0.09378946562722416,0.10151568178482129,-0.15359208653626769
-0.0021273268747066818,-0.04373489246232578,0.01376477206607941,0.06737835806572336,0.05494245856262086,0.10033244133071154,0.11042888553164538,-0.13612058146223963
-0.0076067055458987195,-0.058057016983961825,0.005853927432583849,0.0676518217106128,0.049141552402273254,0.09888128294995634,0.09996604453761286,-0.15311990307494228
-0.007434827152888407,-0.03858873019036844,0.011683608960044063,0.06608286616067328,0.06342735226622395,0.11686553825553833,0.1107258092851938,-0.12643497412366833
-0.005092498119082764,-0.04082930358517717,0.014757018473840726,0.06452184428448118,0.03669568215459543,0.08540460506898864,0.07832077455425263,-0.12402119747963615
-0.0032365909778739833,-0.045977392017869094,0.009901290788092754,0.06216754527297179,0.04717013606295729,0.0646138545429658,0.09266729387766053,-0.15055372150101365
-0.002547718372880383,-0.05213800653171793,0.007263874794481607,0.06008683875245436,0.033872674989087054,0.07164538168731029,0.1028422220895721,-0.14857642444096222
-0.00514575049493092,-0.039804617620004853,0.022426253993064856,0.07078173006162106,0.04100574702611543,0.070193180662772,0.08524724957851085,-0.14892774610482828
-0.009544669830230557,-0.04284083389837081,0.01948582510294496,0.0692806153742157,0.03957081784961591,0.06332943954506648,0.08596747415146828,-0.14320730881266194
-0.010798747790052526,-0.049768460426964437,0.02142475759442557,0.05842976927787815,0.045713028490056096,0.0650211222623507,0.09211633190131951,-0.16971927512623772
-0.01132537634804136,-0.0542938929388832,0.017781299759839865,0.0675676454092021,0.03627857801957135,0.06975710175664172,0.09566889289176372,-0.18698116143232793
0.002038069176267067,-0.04320740021569309,0.021593350758992814,0.06527818752523902,0.03347934628556187,0.06126884558385517,0.07453288557996163,-0.15927796675196523
-0.005320198783597527,-0.05528885175996511,0.021345740845642478,0.07485754671542394,0.023675434189316495,0.06066060811865681,0.07750610050182309,-0.15381179123113614
-0.016249180048177814,-0.06104849910363346,0.01742057694652889,0.07833316015463328,0.031998540863892005,0.06064441612659837,0.08230466032666481,-0.1622966176292109
-0.007244673297707114,-0.061816760153155806,0.02028184471798864,0.07500294859948874,0.029668304907998252,0.054864470915213244,0.08436801798485954,-0.18124020075637548
-0.006991260891311971,-0.05158273116661907,0.027581392362226655,0.07647860272938728,0.02911863009067056,0.055846885589658106,0.07580695905771652,-0.1754359790220924
-0.012647708997021832,-0.06417213922278456,0.019141500717819414,0.07651263406021917,0.027763958647614734,0.05755273227437158,0.07786185725603054,-0.17192156055890884
-0.006632616860531746,-0.07054887836263445,0.019854625468310665,0.06986680844260787,0.010661263044800397,0.04971660718835298,0.08926245741846758,-0.21531267569313953
-0.01299979994365922,-0.06257887393142376,0.023082067264252114,0.07772327392437361,0.02279872656370887,0.0590469434653315,0.055803987257637466,-0.1662062783840427
-0.014267825072690522,-0.06420700292563533,0.01878125159648876,0.075493459535569,0.021345740876737154,0.043727309550445216,0.0643394425439542,-0.1867817392107056
-0.013412012732329484,-0.07366971814424571,0.014611017624213886,0.07588739496210033,0.021584570698671462,0.03996620050238047,0.055861440934936314,-0.18380905464879854
-0.010796776709873227,-0.07972488268703011,0.015587328565980343,0.0758384047849003,0.018764113598779483,0.04369446733132556,0.06290142480633995,-0.1814167900812427
-0.017971537995515117,-0.05781088591755222,0.02016194267514716,0.06640190286384401,0.025542393303839995,0.03239968525014999,0.05362690518282064,-0.2098448277357187
-0.017638053377500882,-0.06485739416832904,0.017037960635434366,0.0671331467397773,0.019067151815665977,0.025621934676804712,0.04912709604200133,-0.21438485291068804
-0.007726854165902992,-0.07827064492628936,0.005915914639947211,0.06164355921931126,0.016762985375015648,0.04059425888947578,0.05611170811268267,-0.20902393385132378
-0.012622390859683265,-0.07321915645976111,0.004999839754074849,0.06196507455356873,0.025246847240629637,0.032817016950685785,0.05672040270135904,-0.20033352754471118
-0.00974385071434357,-0.06155268779667525,0.00719516093982847,0.05086174650211191,0.01593630374133297,0.028824183817700817,0.04062736290598375,-0.18987100277982838
-0.01679812746291823,-0.07118103105102182,-0.003501984260612725,0.04624812958155061,0.005678310413138923,0.02116275478227223,0.04921846040482439,-0.19504652939508368
-0.02234017599441874,-0.0794507461017312,-0.00472616704652123,0.03899581022288273,0.019967399202875248,0.018177756444682138,0.035510721108699905,-0.20490404835111797
-0.016604521612528417,-0.08030389073792127,-0.008650620086011489,0.041226397257164545,0.016183622736443453,0.0316424488305821,0.04603961635501035,-0.21453473381756558
-0.019344152064252582,-0.058224433887174167,-1.235600272773421E-4,0.03771804562243684,0.008097592052991516,0.020858103946059206,0.02658652708613636,-0.2022917445210317
-0.01920004041186949,-0.06385464338090945,-0.006608618257925276,0.04875143425963487,0.01645884085680844,0.013592200098342633,0.015803315565247063,-0.22289946489177645
-0.014615868653003815,-0.07178229110630983,-0.0036816802898650166,0.04119734028458356,0.013188128164614824,0.0027497289417818455,-0.0025116071560323536,-0.2559635547677704
-0.013143029257693338,-0.08492474548281606,-0.0012577131742501138,0.04255317026392049,0.0056495589048603774,-0.009966467743417069,0.006972500510457773,-0.23760942924973594
-0.015640209847535076,-0.07052822138950902,-0.004027693531853675,0.04986338737048833,0.005922471906512009,-2.0884863785912823E-4,-1.2578016891703878E-4,-0.28153883533398244
-0.009096499351440048,-0.0586003424561637,0.007716527054198671,0.04521089343773041,0.0030311381071941616,-0.013619945199446799,-0.0036302569044227564,-0.2599660353995585
-0.011939598172514573,-0.06950930164092814,0.009328177659407405,0.05605198858806366,0.001403981645017621,-0.011775500489786392,2.6582024633442866E-4,-0.2559220357273617
-0.017293010061630792,-0.07967962435322073,2.798027200382761E-4,0.06023161490603664,-1.2473587213210722E-5,-0.007979012920974308,-0.01528822973256366,-0.2726758088186037
-0.018569180616913355,-0.08888210489125599,0.005006362813723651,0.05869263954570572,-0.008710402967572783,-7.038537528168937E-4,0.0016430361100481647,-0.2766949277715277
-0.01759338149001467,-0.07258465801109805,0.0159246242420596,0.06072918241511707,0.010660785973041006,0.006048723823073634,0.0038469661124134985,-0.2366601831416942
-0.014701210839699046,-0.0629218834164838,0.014750758128628496,0.06651787570777368,-0.003263230617001004,-0.015548658867046643,-0.005260642860037809,-0.2346569354749773
-0.01965911089626016,-0.07687147433272969,0.008942016092912715,0.06641174104714086,0.011149843811745398,-0.013591635113032146,-0.00409826652227388,-0.2710767141397442
-0.025941405434274853,-0.08821812161493242,0.01694258902250826,0.08413757007574652,-1.1743303498761685E-4,-0.01287994448977098,0.017443565331373628,-0.29458900072556266
-0.019366332211499884,-0.06427879338960575,0.016404626017890684,0.09249872986540615,0.0018989726825884685,0.00561045274791941,0.0073742489251433715,-0.27267773848844634
-0.014204211194702165,-0.06412964186588568,0.035035170143425734,0.08834377511743507,-0.006883041901870756,0.0012848706323908266,0.024809896414914365,-0.25931841135725947
-0.01773483337906651,-0.0786617678722161,0.020973083911685942,0.08475959235279476,-0.006589924397143009,-0.014321929171188467,0.016880454439323164,-0.27947294954829377
-0.024286120452555588,-0.07741975793923833,0.017752199735019673,0.08159984147499472,-0.004503651377744418,0.0023794778203635363,0.026633500278904296,-0.26036225335900637
-0.018588568893913797,-0.06239957477034501,0.027084413537388306,0.10302283777320363,-0.004340168358056377,0.006570953928483733,0.015358089853547405,-0.23000802813874555
-0.009724818159072043,-0.0642770518492226,0.034391525417286545,0.09389543441834462,-0.008953952185346567,-0.0053565274834657655,0.006246825437450962,-0.25003032135682435
-0.014577916225005094,-0.06655569847243432,0.03763278139046221,0.08767055636313988,0.0027119540654741646,-0.005441128417602255,0.005934625154260697,-0.2619903134281267
-0.021758294085679506,-0.07908109795528027,0.02529291907562497,0.09756363433826443,-0.0062951320459032865,-0.01877882199841384,0.004956566591676288,-0.2731561469305411
-0.015814228941871723,-0.05384700435383941,0.03168052916585963,0.10008768259958349,-0.006542843146823403,0.004306025748107436,0.02505533790137017,-0.22842685133346696
-0.015238477980927081,-0.049665165821997294,0.026433929554786455,0.10483568547834797,-0.0069693438578798525,-0.0060677900105003185,0.0190063718558958,-0.255918121859605
-0.00937298872853392,-0.058824785058786536,0.032609509976176,0.09934480305727647,-0.013597135112918417,0.018587747675196872,0.02423280720905554,-0.2446478207981345
-0.017970008536937684,-0.07028896116783259,0.016639341374717724,0.09134509532613942,-9.805022329096717E-4,0.01466796195741749,0.03789445320140061,-0.2547516503159811
-0.020837073867385786,-0.07220584528161933,0.02032649262540346,0.09826208162366881,-1.5541688893399073E-4,0.014704718978548303,0.03208098306940777,-0.2543439874782577
-0.017101989844977298,-0.05353783524529997,0.025597948436037122,0.09869183003073526,1.0394369419381202E-4,0.016696270860103078,0.037235071380080954,-0.23347321428002646
-0.013599470866845277,-0.05973872775206148,0.02444727183528942,0.09468980424955589,-0.0011973481077967472,0.01605922091289041,0.036094013832809704,-0.24217442671294892
-0.021311076730509262,-0.0728406932678506,0.019490627798203392,0.096693541606289,-0.005276587262707117,0.012125055755434972,0.05462828709309696,-0.2565142095724237
-0.023964100527750838,-0.07457954250710079,0.019705778397057415,0.10207643577680343,0.001772389310844202,0.01844637047307709,0.025086171874132673,-0.26697432618660744
-0.018900163096931235,-0.05989311856457287,0.025013005719705755,0.09786651586254667,0.006604453684076285,0.009049647410683362,0.02760201526264465,-0.24107812276417856
-0.015307166321528782,-0.06649143616185339,0.027005170132252402,0.10304219506751874,-0.00315347924048624,0.014293479527414634,0.03512027182511352,-0.26188398201645263
-0.017719933097631712,-0.07967471088046353,0.022981623472429092,0.10200570112204448,-0.009582078686144958,0.003068972824536672,0.04168994259528529,-0.2507260945016263
-0.022607272090890643,-0.07601845337156689,0.03260139080794549,0.11117408402575078,-0.016473578806752844,0.01692475762499327,0.0411642372372805,-0.30259815448409977
-0.025851096190442666,-0.0676273997466239,0.029688856411988124,0.10218585018489655,-0.021443339479872932,0.0041754753495793955,0.033938386643115624,-0.24326164600113548
-0.01935521950628615,-0.06970762321535583,0.03200954424833822,0.10901554045140373,-0.004318303359222648,0.0044712044251774795,0.02738233451201093,-0.27536467653299573
-0.015842367553568826,-0.0759420071368766,0.03368350611944823,0.10632477999935971,-0.02086426144795697,0.007361479972773312,0.021006253477414544,-0.2804026648792054
-0.016268846383386326,-0.06904738882161118,0.031665701240859497,0.10162780814272349,-0.00848959569105886,1.8654145233043274E-4,0.04641406293241083,-0.27467188660662656
-0.021000931581991972,-0.047246644107091236,0.03883730303634881,0.11126995012976246,-0.005303627227485548,8.720009927817276E-4,0.025196419512407548,-0.252126023750332
-0.016946894322330364,-0.06924708271159324,0.033618247651801714,0.11194443626736993,-0.014708714864728217,-2.1968842525654583E-4,0.03064422512839656,-0.27350755834080187
-0.019635601462712544,-0.07067424239902961,0.0303482275979759,0.10930987488239266,-0.015482440582024162,0.008196211847655193,0.03245976460385546,-0.2791143071458512
-0.017173101992532667,-0.0715424880372345,0.03481950415006084,0.10692613101052624,-0.011352308123695583,0.014061510549843935,0.02043469040036668,-0.26639310234799946
-0.020026042162401315,-0.054657929241325905,0.03657291379575526,0.10175698482585412,-0.01761541576281234,0.003978397556041236,0.04213924168991399,-0.25321589519570004
-0.021880993335986275,-0.06127210785874612,0.028740643229994877,0.10647117845387767,-0.010381757514539463,0.004730211148486588,0.034311579825193485,-0.25141436224682523
-0.01589487129418302,-0.07293260735599218,0.029320441167727782,0.1029881703916659,-0.015120372984782209,-0.0011323157269329366,0.03737073712803248,-0.27120377671184315
-0.022791368116409774,-0.07624417951091718,0.032669563007135444,0.1061782411562524,-0.014484532068716447,0.009037368652526252,0.043384041283883776,-0.248423563341662
-0.011212166295021335,-0.058163952861825324,0.03397090041089264,0.10574017087878891,-0.019330430241639322,0.008277841923486665,0.03027749221407821,-0.2559096623011083
-0.01460128825503688,-0.06174967558227854,0.031580781011533915,0.1023474050812693,-0.014840661187603887,0.010658312075213752,0.02616626978474709,-0.2454302554841661
-0.019570010377272407,-0.06734857812627754,0.02510676101543539,0.1033213401631102,-0.016169966444886538,-0.006419527161314269,0.02069461654504034,-0.26112093597994374
-0.02400674707722927,-0.0818087770864675,0.02348356370405391,0.09893950045238703,-0.006927572745510637,-0.002561540805058766,0.02843496132465739,-0.2863926422877487
-0.018653405416175425,-0.06776711011686466,0.030243977015430617,0.11737798144406907,-0.0023308659840817125,-0.004718090413004306,0.04010343030797581,-0.25694785115781243
-0.023821725684665836,-0.05988901321034143,0.03516206505236246,0.10919849637292407,-0.010094864040524497,9.888750987314798E-4,0.03199349035338543,-0.2610939247159981
-0.019365434096755875,-0.07089065422887188,0.02425720571888243,0.09409850717137139,-0.011152795892516205,0.006899979236123444,0.021657826917354614,-0.2634323293577673
-0.023840457664186285,-0.07809014805323033,0.02534645094734074,0.09855453027112708,-0.01745314566661503,0.0026645207735535017,0.02775546314552505,-0.25859396162442094
-0.02595292253194102,-0.08145478965597049,0.020365548095377866,0.1064850936559107,-0.01963132135771751,0.004664294554552863,0.037256353317782154,-0.2844163782500992
-0.019238187126811912,-0.07275246645751508,0.033106375401991746,0.09995444318680471,-0.004105264613206308,0.011758274022315938,0.018455360819563896,-0.24952580796356333
-0.026708832498328762,-0.07492098561606501,0.02997854681209895,0.10220010275849654,-0.021952301794505864,-0.009973035287637618,0.005367800021502166,-0.25260927388774607
-0.02753009572212198,-0.08776809299758961,0.020948614729315987,0.10260601188037789,-0.01624385391366801,-0.011414590683680078,0.025111580257772763,-0.29478024376635636
-0.028946522105675394,-0.08708132891403333,0.025938433520389367,0.11669906444250056,-0.010580966293466908,0.008727611604726543,0.04069061437136602,-0.2800908030254539
-0.025254749928494,-0.06803288729609677,0.035180160810323595,0.10644950472515723,-0.022194198626948925,-0.006186021057623498,0.01544407156559067,-0.2641248178258232
-0.02420553222511106,-0.06940578419159124,0.026688786629359508,0.10788454456690344,-0.013913070894563277,-0.009094899698180581,0.023077630762151684,-0.28438371716583305
-0.016446105887536835,-0.08653787396936849,0.023488580628915276,0.10516469203982459,-0.019990284338056993,6.306478686630949E-4,0.024526250179734282,-0.2560983484287042
-0.026158862954225107,-0.08541200382932881,0.027210149183454692,0.10104850271264486,-0.022025800675313553,-0.010688413099820765,0.02392797071113216,-0.27614049604697644
-0.022402489527571783,-0.05721739654932841,0.03348936904743476,0.11147125392927827,-0.02106710340997832,-0.022707762323388166,0.016908880076927636,-0.2645455909940686
-0.016047229366071697,-0.07686455240345769,0.02549207692513749,0.10196652160736035,-0.01057709227177122,-0.009517736331565198,0.020425465243363878,-0.2610934587663708
-0.019243332918536454,-0.08757204782570457,0.027514050010997885,0.09299925229634706,-0.024179027270058495,-0.017196650652120293,0.01114231514633492,-0.2761661770920257
-0.022677944288365188,-0.08254846994620132,0.02575833357754452,0.0990354806398217,-0.010899422391377535,-0.006189378525420671,0.020215854115132357,-0.279786944054551
-0.01852615271783936,-0.054084270657781645,0.033298910344992376,0.10098621148105469,-0.018469207468319062,-0.014303051510976666,0.004279488633970747,-0.2724178214907316
-0.015802371655579763,-0.06058326964954142,0.02397316162609941,0.10413147182275502,-0.021872170034463363,-0.019304726638716845,0.011946003643671706,-0.2621617951210948
-0.019580329282096715,-0.07922381727675927,0.02130242042061028,0.10974750284333935,-0.025327920949049478,-0.02399634731592971,0.008595657227833484,-0.2819305422391081
-0.023948871582782357,-0.08228349097111715,0.027839269866772223,0.0988454307751248,-0.021915004614440677,-0.009254260282532656,-0.003390417149563865,-0.2775554652216422
-0.020599244816106137,-0.055195208345824254,0.032952090470986246,0.09758148531165177,-0.01736780449073085,-0.016098093684169066,0.008141695777472332,-0.23258619932593477
-0.0197977637410271,-0.05793075360225692,0.0306889395863305,0.10196279696570089,-0.015651371113819815,-0.013100295915768436,0.0015442554204768433,-0.24954389926354367
-0.01881114217740716,-0.06450950085813116,0.02028540149418026,0.0953906047558338,-0.022841862058514708,-0.016537391805918813,0.0011702201666086466,-0.2714892962007331
-0.021218158261764413,-0.078054830920629,0.02070444360976009,0.09138398008890439,-0.02235879261440583,-0.009779311871655318,-0.0012114350554004191,-0.25498550967842454
-0.017580359525857632,-0.0627058716489837,0.029649510996162146,0.08973142686230219,-0.009517493555990785,-0.007604669073352171,0.007057301740473172,-0.239305005765465
-0.010087792807976122,-0.0690962565797159,0.020640474943209454,0.09941871266572264,-0.01591926720356422,-0.013884718772724083,0.00475530279155692,-0.2658270832968241
-0.020801850430930326,-0.0738148863875135,0.012688244258872548,0.09495674694535146,-0.004747455389146595,-2.8406063200254723E-4,0.023107583367983332,-0.2572402074557425
-0.02091250983372452,-0.09148917371873186,0.01341368043580582,0.07707089080948161,-0.00960114795235302,-0.006381390281084219,0.02258240717728062,-0.25254500186537837
-0.024997497923339867,-0.06885904601394247,0.01963284364465456,0.09543033984747495,-0.009915535203271738,0.005284721833736694,0.0189292825073479,-0.23510293036327445
-0.026833680004117767,-0.07540075370415367,0.010079176492788812,0.08410679664367648,-6.087038935955949E-4,-0.003796377435546764,0.0233349998525931,-0.24526548484484503
-0.02955088491736765,-0.08058353295576,0.005951717498098981,0.07477740223270611,-0.007583799352506238,0.006370303015143008,0.027142223191167908,-0.2643619512873775
-0.034589888423103454,-0.09339960651774798,0.0033123194593190795,0.0741848525020359,-0.008915026571467206,0.014529519713873349,0.035776800590639556,-0.25782463010825735
-0.025151448019952137,-0.0712083069042568,0.007229368214802498,0.06889470470873238,0.0029797935778231787,0.012680293436173835,0.02771751408013953,-0.2235724808996044
-0.034504966883798976,-0.08084248004013593,0.007989674712064415,0.07282677976000095,-0.01795564088547433,-0.006014974192629229,0.006293865110280618,-0.22655832728586175
-0.03235293374085642,-0.09907722854104227,-0.0025009433290140515,0.06675145477726398,-0.013243426030102425,-0.013212976839314937,0.009708115923230112,-0.27549837715389397
-0.02503226406550966,-0.08263674879751395,-0.0021315792606428166,0.07412976701355256,-0.008002487805977006,-0.0029437699315446693,0.005200962684269476,-0.26367257482689693
-0.030698398049976264,-0.07171994504629423,0.012129285097265392,0.06698389221254332,-0.012128088840156983,0.0012430716024795095,0.023993582599993,-0.21579526247593908
-0.024794398482812535,-0.08789700824731542,0.003988607165461057,0.06713839577650454,0.0012256556883651088,0.0037180751015048223,0.04238013693543551,-0.2256464754751304
-0.03075012529165152,-0.09145833355849803,-0.00917906721928752,0.048595717527426203,-0.011289996924367267,0.01627294568097949,0.039673847831723036,-0.22309304786695655
-0.02790589133742246,-0.08215212022031944,-0.011923236124774974,0.05651422463833101,0.006830183943823421,0.017126889232489416,0.020280921407893525,-0.19610113631126333
-0.03287022095794619,-0.08373828844434135,-0.00764977244456472,0.048180484570364224,-0.008161486974285407,-0.006801374563165199,0.03966330961302764,-0.21997673317554178
-0.03412281252386589,-0.09232431639415327,-0.008602714616877458,0.04468639591042011,-0.008498900138378729,0.003913330059981963,0.01343167076445847,-0.23397206474518548
-0.03793946377276769,-0.10484724106636704,-0.018232719816137694,0.04228925392290803,-0.00939048625958931,-0.0038758217754761913,0.021037491383116606,-0.21235238641615733
-0.036025442514465766,-0.08586942315436637,-0.010692657370909726,0.051698806443264786,-0.0031036007836768714,0.014113965353954077,0.02389152897177976,-0.23577884310364616
-0.03390958699678556,-0.07747183810552895,-0.010283588669573277,0.05108073699662724,-0.017527462773664803,-0.005337001578117084,0.02586862864389153,-0.21740481347970964
-0.03343969650110165,-0.08721478517090225,-0.011574918227786756,0.03733458375243229,-0.008588747888300677,-0.0017595855288897854,0.018101504628295798,-0.21985152696013885
-0.028818193152737502,-0.09214192512131915,-0.017680266794752583,0.041439486691304366,-0.0164592798287165,0.0019112197723177838,0.014105821741446046,-0.21907746443039586
-0.033915786955755554,-0.08900624307708518,-0.009381256734657914,0.046014232018177094,-0.007742537502041407,-0.0011874695893522625,0.028510557016131758,-0.20091741080172082
-0.025438548754783897,-0.07657571557199638,-0.009492094788001677,0.044409879785807654,-0.012727464382473594,-0.005782425760662862,0.02164283664987991,-0.21996093229108796
-0.03144154576745658,-0.09777846150319622,-0.01907604204211067,0.044298804127184045,-0.015244272083584485,5.729504935879637E-4,0.03548441912027946,-0.20981092080774938
-0.023540678339485317,-0.10100656802773232,-0.020746890272022207,0.037976285253912494,-8.049753141162774E-4,0.0014947018434919167,0.038408705168277504,-0.22207417717644484
-0.03638937418112598,-0.09898296804322657,-0.022592540551724365,0.04712021024034284,-0.008965250357166495,0.01805621598925193,0.053749452003369946,-0.21864213149714987
-0.03840010200667433,-0.0872343248426621,-0.020579831990336243,0.0347949886935536,-0.010431749960538998,-0.0018138385130254673,0.029636370303090513,-0.229205868883717
-0.035761830609130116,-0.10141434412966276,-0.02238435391227703,0.05715168030669063,-0.01692930130777502,0.00669787780203757,0.028838040378587733,-0.22635606732755917
-0.03723577380931299,-0.10807055196680256,-0.014948858941884097,0.041330718697282345,-0.01526111172950286,-0.0040545169071428,0.023195592581563902,-0.2333798157204271
-0.03455204626717119,-0.10146955847927558,-0.019538168526061134,0.047501335701561,-0.02256598650314773,0.002417887267061369,0.0312257322550371,-0.21997413231648186
-0.033798755589494994,-0.08429424311123013,-0.015847775315966154,0.05003909529152664,-0.021106252619024102,1.8771615023210206E-4,0.02925308278499561,-0.24018363479645946
-0.028495144282694902,-0.09983010483680452,-0.010074610645372186,0.047969452193000334,-0.013347312371586404,0.013238694301672509,0.03860841599827895,-0.24609259986432902
-0.037576914217318486,-0.10992072007830526,-0.021332126732765244,0.04913664548938104,-0.0071620404532415725,0.013259319269958708,0.04550471784688571,-0.22838819885641717
-0.035107875487847225,-0.10650789688427684,-0.02200613811185273,0.0517958998478977,-0.017124389498066935,0.01826710234182908,0.04159467495481284,-0.2157409700682895
-0.035495864545903484,-0.08958298278385601,-0.00657159633196281,0.05564785570208169,-0.029616293949816123,0.0018657676352386453,0.04837770743435775,-0.22071390132218832
-0.03439443372059573,-0.1031982833735935,-0.016003708935012188,0.046861653217899424,-0.01857687075550243,0.010013940445531505,0.036835249508839325,-0.23550862930020952
-0.035884466759427046,-0.11468291426377171,-0.019559351186656092,0.06032424519455544,-0.029960480981110132,0.009336827596475245,0.028765645442791973,-0.24046392246963588
-0.031234000155650764,-0.10669270194203483,-0.01418786199390006,0.06829222568689695,-0.025463670634406372,0.0038334741030304786,0.03767921815432864,-0.2341702896304055
-0.036288716853067095,-0.0990875974919378,-0.009914604400231104,0.056599572036294565,-0.0196231840867216,0.008568008558187387,0.05051457055989726,-0.2502705013311608
-0.032564154575421014,-0.09721310110989036,-0.00874566552936526,0.06181278996280059,-0.029036104505647073,0.002656857214768367,0.04380698176660506,-0.22397579429199607
-0.039182257190205246,-0.10520751506201691,-0.01228449233514622,0.05813160643445547,-0.02051948885512413,0.020075686087995048,0.0509803092687339,-0.26971845656461674
-0.037215895998195234,-0.10187530312027457,-0.0048659943508006535,0.04697471918262079,-0.025255828602541275,0.020972995367837446,0.04970565663734545,-0.22512370461149409
-0.03011216694671289,-0.099468066728825,-0.006445013139985045,0.06195566583021864,-0.020409202581532837,0.008290502665224842,0.03917247717260869,-0.22976895260700222
-0.02909344118084247,-0.10416261455164703,-0.011779753971473048,0.0553615751713337,-0.02754586556293872,6.619635821625743E-4,0.026781078611510602,-0.22246399043745263
-0.035002181889444456,-0.10124180033773152,-0.018379480168707576,0.06278419745106921,-0.021695592141903815,-0.0039216861611238015,0.040182737073935174,-0.2663741293040119
-0.04134033333248371,-0.09139888613681235,-0.008052335791588889,0.060377180611959194,-0.035371451915789054,0.008501157032160558,0.0325685745543837,-0.2217670246665351
-0.03289084848560084,-0.08560815940300728,-0.008655166316860584,0.06393351520898059,-0.01144418011730133,-0.001152474335199989,0.03347588500605189,-0.21449170120638175
-0.041400565499372155,-0.0935666209255107,-0.017178796309997836,0.053700674527730335,-0.024256553311937427,-0.00619811109829163,0.03239660822945206,-0.22804384670451766
-0.03083997945851637,-0.1039267538545113,-0.019908815806130947,0.053096608880457086,-0.04004846686065878,-0.0050798379591619576,0.012106663332846884,-0.2298589333305121
-0.03874731177740697,-0.09183496945441852,-0.01148170252667649,0.05655092446708672,-0.03649490410715134,-0.0052700595502612425,0.042577023968108446,-0.21367875644103554
-0.03247676846714527,-0.09235054072339173,-0.01775306790747118,0.050364831416387784,-0.03810867661249015,-0.008875888495287755,0.014769844322059973,-0.20598607955156265
-0.03683301247611279,-0.10604392746271506,-0.021755303852626258,0.04476208817818747,-0.031168954157737093,-0.01999959755472054,0.008883785911355446,-0.21246781703469805
-0.0399241618936353,-0.11368059104660673,-0.020018178453752065,0.05171322332803449,-0.04866434727983914,-0.02257774513256873,-0.012653466213060311,-0.2549797665217582
-0.03305959108297415,-0.09141236956092504,-0.008613038090644549,0.0555366075868034,-0.04601397947100361,-0.027134958842156574,0.013244852983529223,-0.25398677396044445
-0.03594904067924759,-0.08997746376906905,-0.010636756210623759,0.054354512317380796,-0.03918500886210825,-0.018724584000121076,0.012498173813870084,-0.22754077978655005
-0.034182359833495955,-0.09634443404428923,-0.013414348398757197,0.04844165987157302,-0.039863227177594794,-0.03379858455796693,9.491785283904337E-4,-0.24815294870003332
-0.040703201033421295,-0.1073755754648185,-0.016817571848732976,0.04495373961948723,-0.04206411814123615,-0.04374461653001784,-0.014617553672565287,-0.2488848866863188
-0.03599234640963664,-0.09113799290402846,-0.006866852729686041,0.05747846543183772,-0.04570248661695753,-0.0339244812643011,-0.008287428994228983,-0.24195592216058626
-0.022527983919007878,-0.092752959957521,-0.008732726781872473,0.055053350041321905,-0.04841229894397202,-0.03788887156839006,-0.018100353935250113,-0.23370447028202668
-0.03590414053053191,-0.08986764957208702,-0.023067804266629653,0.04639087825680873,-0.04825237005276099,-0.03715294312944019,-0.015146657027496194,-0.24012398633312884
-0.036019318891817614,-0.10357467345564166,-0.016835255990799776,0.05091808433039056,-0.045085360070379187,-0.01742423944897692,0.005454904678550409,-0.24959645102481817
-0.033747468528291386,-0.08664829965633052,-0.007520248293895317,0.054822443499716045,-0.03596861714487006,-0.024345318765811187,-0.011842817393469273,-0.23649411173429877
-0.0331001912925555,-0.08462577578892029,-0.012164936042371764,0.04823192294832638,-0.04618547704275897,-0.02593271066355679,-0.003665329254840671,-0.2326994011015032
-0.031756994102142375,-0.0838066127261462,-0.019516954295088092,0.03946440932246004,-0.03234610343887655,-0.01897623013884164,-0.004261024604167783,-0.24373524566520913
-0.04016515647802907,-0.08845994193643429,-0.02653232488770702,0.048444565746429705,-0.04770749302987385,-0.027332088328205578,-0.002347999678373225,-0.2595516468266322
-0.0353109914484895,-0.07567835022722834,-0.017383719888464513,0.040603188293522836,-0.04498908689769852,-0.01922327561823759,0.0058368082606415845,-0.2112759502327628
-0.03540439558659396,-0.08678751097721367,-0.02208110271524763,0.027619393747375192,-0.02991623951496675,-0.0359601547639369,-0.013750857121182977,-0.2323550091589203
-0.03236587758070968,-0.08994317658349454,-0.03067939135486853,0.03538599115105145,-0.04468571783917598,-0.03289722990389486,-0.006692762168832864,-0.2501660824974076
-0.04260091756603993,-0.09536822996980845,-0.03206802310690009,0.029904500033704165,-0.03488391131026515,-0.0311409155273192,-0.014790030072671129,-0.2711623413998165
-0.034990208766724124,-0.07751509076300292,-0.017850666494991365,0.03967272667972772,-0.046273181213328074,-0.03446880812524173,-0.024605002614702564,-0.24589549042000688
-0.0398076345172727,-0.07355772009745551,-0.021519634414668184,0.03081510162686911,-0.037775276703009335,-0.04043503445770127,-0.008177226957183592,-0.2378589848948671
-0.03737803445255101,-0.08041565015495046,-0.023038720057051983,0.02016178106637134,-0.03846991147030321,-0.03559503320986799,-0.014924321079223306,-0.24842169007359852
-0.039379524657042496,-0.10004095549275992,-0.03889291779888887,0.025695370759252493,-0.044983612848195735,-0.02322478458461648,-0.0050829116234776895,-0.26669533174778015
-0.042293935475064715,-0.08425281565960369,-0.029483857649764335,0.03290627844750013,-0.029102835839369467,-0.021022353538039003,-0.01416377621529306,-0.23136005035153917
-0.034793217713963896,-0.0733602991299772,-0.025397530374393823,0.028632085827252702,-0.0368160394361026,-0.028028376697462828,-0.0019183968730519829,-0.23905616495416984
-0.04365826275643474,-0.08314673310252149,-0.032700164822122076,0.02059417516292101,-0.04344478105142925,-0.03816820335282291,-0.023009292575759285,-0.23419822238378163
-0.033148640757693935,-0.09713626313300587,-0.036765075438583816,0.023900633898521595,-0.0433755592237251,-0.03575495847599801,-0.01718855959840384,-0.2572210680766242
-0.041762868030069705,-0.10535578578254572,-0.03339898042276297,0.02352208015216559,-0.04469437537111316,-0.020635380225250615,-0.019207059220452904,-0.2612032864499968
-0.035010530934917024,-0.08099596219078353,-0.030390376385451404,0.018479578095364144,-0.036748485572109676,-0.0416652645222259,-0.01928651837720986,-0.2546212797821916
-0.042754568837396714,-0.09090087142675331,-0.03467134430287416,0.01899578683965728,-0.05219892491273677,-0.041358207067370464,-0.024629693581107632,-0.2507000358803401
-0.03722212545198143,-0.10678565849788527,-0.037905594519898014,0.020134872254155695,-0.0506338143969539,-0.043522242769724544,-0.01989141725545693,-0.2463538236648241
-0.04486688183573877,-0.10807128827886338,-0.05120881192405132,0.01098998309421859,-0.05033693841754037,-0.03683665575925092,-0.029915980799757182,-0.2742287351054902
-0.041275726328705416,-0.09894670309722005,-0.03397479274609281,0.02070038218789921,-0.04471677440759932,-0.04332331441962871,-0.014494168598569038,-0.2565882566327118
-0.038613143843387716,-0.08940768732786554,-0.03884241189864558,0.020247673369653937,-0.052588258306337766,-0.045212361043565054,-0.01218704271963867,-0.23690809241133112
-0.04871897980441414,-0.09376694096555904,-0.04160915199365252,0.011905338517053395,-0.0461301398285407,-0.04964258923537688,-0.03446051613153724,-0.2675665034971527
-0.04655734143896785,-0.1087837669446412,-0.0479878289011774,0.015326421579661667,-0.04101463664316452,-0.034763685283690456,-0.024136491671818878,-0.2608053408650134
-0.05705653590997591,-0.10578077107968213,-0.0479410395480796,0.019157699466187447,-0.0376686355817711,-0.04348250822050831,-0.01423110868019077,-0.2639784461669738
-0.047437756764760794,-0.07963702992052325,-0.03735473701611558,0.013129754955597393,-0.05081337623937785,-0.04182645429797171,-0.03873541447965134,-0.2496526524525531
-0.04886218400704916,-0.08675393152459898,-0.04517268993529438,0.009396969087716487,-0.043217193350094184,-0.04622495490379099,-0.030799303924214354,-0.2602516696736595
-0.04670137209956199,-0.10556835333211441,-0.04771428081785478,0.01904237986727741,-0.04633660544977108,-0.05033058594957939,-0.03627851309491079,-0.26384511176546405
-0.04631973406977947,-0.11645806894879612,-0.05019647681308134,0.0035249145875848858,-0.051669192163714434,-0.03904507882432735,-0.03706860715372909,-0.26465604600489745
-0.044272387567187585,-0.09087935575551281,-0.043519258167046264,0.012145303738737932,-0.04902513820268719,-0.042411347334008746,-0.041952018656223215,-0.23907339238804037
-0.04974079137982902,-0.0860324321125121,-0.044897168987927276,0.011112991311333259,-0.048699411259822946,-0.049340795462549714,-0.02723191883540333,-0.25135891600707605
-0.04189296872031107,-0.09295768546829491,-0.046132469532006636,0.010874544265782934,-0.04941557331079633,-0.05236745119976759,-0.04163925681467277,-0.27752665830647805
-0.05213317930586252,-0.11465645717301047,-0.053370195333292965,0.009254681854834818,-0.055496031382321814,-0.06578610304295583,-0.04905527589544818,-0.2699790883373841
-0.051178376607992924,-0.09945296237662613,-0.04483456955864063,0.013815685944682944,-0.059584877441059114,-0.0496488980989585,-0.0336042460081861,-0.26579994066521867
-0.05118917674220305,-0.08546832793304032,-0.05030711635754956,0.017352099072990127,-0.04231364355051604,-0.051640579256232166,-0.053721760973649633,-0.2366949844439066
-0.05061888286797746,-0.10099211518759567,-0.04685077017686877,-0.008041976555820049,-0.047566892081917105,-0.052841382324495395,-0.057959524370938084,-0.2480853238610971
-0.05500432686105627,-0.10877576747604265,-0.05733549722855066,0.010593684242840897,-0.04941675469570595,-0.04731182281699508,-0.039460714255511814,-0.26532613596815596
-0.0556278456032156,-0.10846389628041452,-0.05461743390168551,0.006161442961398446,-0.04477609621805532,-0.03152599655957091,-0.028727808300516043,-0.2344346410113269
-0.04941761258471139,-0.08668408352681183,-0.05068030722492762,-0.0030302124346046288,-0.030424374235309203,-0.02577614998783177,-0.023858840183971202,-0.22048188259665344
-0.0543754377343213,-0.10420888435543656,-0.05846352494338041,-0.005363813724756963,-0.036753326094185954,-0.048642025956166055,-0.03718347375969562,-0.23661488804853897
-0.05803189170766903,-0.11497013899079235,-0.06512189855831545,-0.012609361113402584,-0.050364002426738774,-0.025956615649168784,-0.033716021644069234,-0.2500480792575139
-0.05338398944847922,-0.10373553340672075,-0.06339881577932271,-0.017599518080625605,-0.034044529328669706,-0.019079728023178623,-0.007028341828512662,-0.24421029314626852
-0.05072761062322967,-0.10028761934969475,-0.06451369355835872,-0.02048735778883979,-0.035110063698343685,-0.025019460968257586,-0.013460701762190209,-0.2172763142319396
-0.048179869266504805,-0.10780874055273955,-0.0706583182676813,-0.02401790176354897,-0.0406247424378357,-0.035142193446527026,-0.0029026991912629767,-0.21054048303196762
-0.05308731597707821,-0.10879680760185348,-0.08403271895358325,-0.025389640757609976,-0.030473457235060876,-0.03964825143236649,-0.015298134954907505,-0.23009219763938443
-0.05671822768584934,-0.1099878983730532,-0.07913361349003746,-0.037522529121217264,-0.041339479761015055,-0.025667791767227475,-0.023711656139902153,-0.2342132025341642
-0.048911212557613735,-0.09409302449436119,-0.0820797817615156,-0.03244695240213261,-0.02409581861327745,-0.03511626479788758,-0.007110773172369414,-0.2334624380674588
-0.05168364570809509,-0.09380538673633035,-0.08274055297550775,-0.0476577586610059,-0.04917611151853274,-0.026796672424447648,-0.030465732440816986,-0.21058990512043751
-0.04713526410594631,-0.11940217987701045,-0.08582939741726044,-0.04001892093835655,-0.0438778362744078,-0.027675090921279143,-0.020897090050722825,-0.2260899045896658
-0.05271959566568844,-0.13769483107343206,-0.09295133411990682,-0.042108357193399296,-0.04518557335367794,-0.030622322167892443,-0.018193033043094577,-0.2583805358727304
-0.050746334003950275,-0.10502495501738754,-0.08272998119059403,-0.04476521417520426,-0.0457964475208461,-0.032126337420168904,-0.02361382052815318,-0.20917791874244815
-0.05448777830308246,-0.11104737221257995,-0.08557401426483013,-0.04460441188127702,-0.039934465651167005,-0.033935538597731255,-0.03534902734646629,-0.24748967218808632
-0.054586935549573556,-0.12069414124395764,-0.0820808747126528,-0.049308084537210244,-0.03617876408183475,-0.026650417607658263,-0.032392796118219956,-0.24179261619848386
-0.050927058595727936,-0.1333945641816731,-0.09310072000817705,-0.041655940617580406,-0.05345400472824961,-0.04356630186250999,-0.0370890063009603,-0.24620327535200212
-0.056781999179899914,-0.11431619278436271,-0.08197973144170373,-0.042847534953704816,-0.03826230268152198,-0.033916103825110774,-0.02032104148182849,-0.22418333469413895
-0.05431569851569911,-0.10927944527410773,-0.08368887224248847,-0.04414044494714037,-0.05585243102832988,-0.048559372695768904,-0.041718567513316415,-0.20516608408242765
-0.05616814835372712,-0.12286477798743826,-0.08813563268950937,-0.05918878157019884,-0.0470945212303577,-0.04529595812929879,-0.03890020885983463,-0.233500485729688
-0.05792170730652906,-0.13019769161084965,-0.08871345491020532,-0.0530136634713469,-0.03985005299168335,-0.04902520682907033,-0.02682833566946186,-0.22193910794896213
-0.05970648491790547,-0.13083831547497185,-0.09337159921534517,-0.05348860325920215,-0.03254702156325606,-0.027391584199429705,1.4031295508188196E-4,-0.22202765436774785
-0.051346422988005236,-0.11773491981667278,-0.09167374517307292,-0.0558935546241698,-0.05066564177113578,-0.0299846911699676,-0.013909361165855212,-0.1940014903361537
-0.05768521548298647,-0.1325916771990054,-0.09841349976541215,-0.059273225247145005,-0.040601149699167435,-0.04309792642360655,-0.01683226376849633,-0.21797778812640342
-0.0548496488840459,-0.14185679004303262,-0.10329897250011155,-0.06845855715463224,-0.05118506354222721,-0.04232805609467696,-0.03436267308569121,-0.28322755839601
-0.06806591831630865,-0.15094531537648717,-0.10678447739016105,-0.06735767114849532,-0.04641975666795258,-0.05535482076413249,-0.036276754705261,-0.25261863388472267
-0.050378611153850346,-0.1251945580842115,-0.0895594378774107,-0.06119001775084638,-0.05240234286151941,-0.0562898340081384,-0.040280140273428446,-0.23097113006667783
-0.051279189627287856,-0.13313820979571628,-0.10077670319399588,-0.06404632832882354,-0.05522394846949838,-0.0662294175396647,-0.05829441554336775,-0.20853539216920314
-0.06952452537736929,-0.13980686996626618,-0.102419876309749,-0.0647552573707347,-0.04952823124343239,-0.06449386981725601,-0.04034602084950889,-0.25351499807773165
-0.06356137597592539,-0.14921751270512174,-0.10723287460418861,-0.06779600321048782,-0.05577403799677391,-0.06764827260558662,-0.057014195022831504,-0.2592999211975694
-0.05516792638994938,-0.132857313317772,-0.09979724233516196,-0.06748898001677732,-0.04633068346140643,-0.07780199430374407,-0.051617390936279726,-0.22926355590115627
-0.05895322635068073,-0.12533925003939952,-0.09233015398055364,-0.059560383718125415,-0.05731071370717484,-0.07443082535617357,-0.07020335281215236,-0.2353086216076535
-0.05708411954072888,-0.1335425449085852,-0.09886693011706303,-0.06370773794009277,-0.0591445135751686,-0.06379294285334991,-0.07790243100383146,-0.26886447823797543
-0.0588064882056069,-0.14464556674127088,-0.10179654587856596,-0.060138086097927555,-0.054496244843442086,-0.06380370791661313,-0.05232681638291469,-0.23773392181792577
-0.04799226443620608,-0.12428203771668467,-0.08609147017182499,-0.05215142872371865,-0.033615541682649575,-0.05947028853071446,-0.05097341001349765,-0.21258053697979115
-0.05006149313084756,-0.11491860255148054,-0.08912110980398479,-0.05928149006632121,-0.05962617393352419,-0.05382053969429977,-0.04140830390826053,-0.23972114021571886
-0.06431979231187977,-0.12410883477503437,-0.09073579500036198,-0.05467338516275078,-0.0453454799391734,-0.060330759363467504,-0.05267169798592714,-0.24132517310467821
-0.05163916911052365,-0.12544962378009078,-0.0921557853256593,-0.0547095620275081,-0.04175187601654782,-0.05992562878081452,-0.06289105159779357,-0.25678829889819665
-0.04645150326756242,-0.11686198403482627,-0.07944723633190118,-0.04594680140995388,-0.049035016215658526,-0.05930249175331824,-0.06053412368361269,-0.24962900990452175
-0.05615661835462776,-0.11265103708849808,-0.08739365868145134,-0.0493444630304601,-0.05011395118347316,-0.06639623517087406,-0.07719052889129004,-0.24615184615895125
-0.05168088190341994,-0.12929401938050833,-0.09286009662670801,-0.03954165591006906,-0.06776387629389768,-0.0723917713235362,-0.06708374015503844,-0.26220251208056194
-0.05755165671976017,-0.14463662123906448,-0.0901165501101349,-0.059089410687009375,-0.050840114045621596,-0.07171515489139622,-0.0632028335039947,-0.2671227017652384
-0.05172583289309091,-0.11951114028270737,-0.08503860273533878,-0.03821944834497531,-0.056087074679233774,-0.04716509482730724,-0.056797529209561805,-0.2165939994629362
-0.057267179972412076,-0.10926474853306048,-0.08180550109151832,-0.0507282726137919,-0.05435648129083315,-0.06828890979758138,-0.0500476451152791,-0.22593596477403594
-0.04788686324826557,-0.11629054842256746,-0.08999865529172967,-0.053856505326178146,-0.052426029517840096,-0.06125298003641738,-0.05669783992118911,-0.21449512815939786
-0.05158758486725269,-0.12415845606750932,-0.08725119587246673,-0.058538280696909924,-0.05748545955673551,-0.05278546841970711,-0.06165850135964932,-0.23986998853879402
-0.05579151922327318,-0.11629338771103681,-0.08933661399048758,-0.04812062358894027,-0.04460449828190975,-0.053128842894647824,-0.040244002392833614,-0.20712460535192
-0.04686749456061269,-0.10046744957702303,-0.08283800523577282,-0.0573699888352507,-0.04812098657068825,-0.06070934693280481,-0.056035659185626335,-0.19705224711758476
-0.046710634766677576,-0.10722475754183687,-0.09282214948062338,-0.06675759176948622,-0.04693262182997169,-0.06104789928867432,-0.0583832234180888,-0.2344280149711635
-0.047072224232382456,-0.11997162930484244,-0.08722244112514004,-0.053219082082010254,-0.055168077458785374,-0.06160133729302501,-0.07526099621141633,-0.2519208070182295
-0.04915067815530453,-0.11643476797406987,-0.08940277054923476,-0.0571215021360248,-0.049015330044200646,-0.054892171402941344,-0.042847294364005986,-0.24294740423939035
-0.043191481524844304,-0.09751294943372002,-0.07548398939899886,-0.04674397755935015,-0.05476562217250154,-0.05415723512215007,-0.038183013519527104,-0.21955574954263576
-0.04621022057135074,-0.09807785584706108,-0.08513059190924592,-0.05446653359390348,-0.046323152694367306,-0.05936900662331989,-0.05300509228953334,-0.23300966382498817
-0.05334364667206648,-0.1099314630514869,-0.08501403579074886,-0.051438665356391335,-0.04995544575105613,-0.05263038716219035,-0.04663145841236525,-0.261160037736869
-0.05623829219024261,-0.12356436384124142,-0.08727588309903199,-0.05498105724552681,-0.04176563109820318,-0.06309544503053456,-0.049392451135689186,-0.24785292788432378
-0.04073726573922167,-0.09301273930815677,-0.08496094833942075,-0.04112999739783309,-0.0421446855052876,-0.05579605194751684,-0.051007504080888055,-0.20802305474299856
-0.046020331587007024,-0.09768497381961477,-0.07780554313062177,-0.050534428998507665,-0.03645913936060016,-0.05927813303294534,-0.038407928331385004,-0.22247629380128695
-0.047091857568553996,-0.11013443742122002,-0.08387967842516837,-0.04919576044180422,-0.04812727421314803,-0.059516445398965674,-0.05107601919391303,-0.2286374317993941
-0.05191548256339517,-0.11824309455601409,-0.08511123240909267,-0.05878745293103624,-0.04965271302558628,-0.03833842149385508,-0.03837828155183317,-0.2366556978229398
-0.04190936477809196,-0.09985436041191548,-0.08591028789065817,-0.05354630146991805,-0.03874965356885684,-0.05454309667715782,-0.033341580925118415,-0.2143938040635899
-0.059532523852455006,-0.11258715829656653,-0.09628023244499068,-0.0637442566264574,-0.04242530546905148,-0.04859727722336109,-0.039498213067534864,-0.2722667685642789
-0.052376263123078706,-0.11787064262961565,-0.09860251476167393,-0.0630559336827182,-0.040791682058317014,-0.053106859868653405,-0.03519609255528365,-0.3301271949103877
-0.045457600186618326,-0.12088350777844617,-0.0849095171535056,-0.05886091465627603,-0.036748528275282945,-0.0445336190022305,-0.022929476547306454,-0.3191388354987575
-0.04826722622839099,-0.10334675379093378,-0.07653216638238393,-0.05229843142931273,-0.03847516316865665,-0.044218479243480074,-0.04077992371550684,-0.29437601257263624
-0.046706315791204774,-0.09400746580566065,-0.07767391703101398,-0.04205851989624777,-0.04197093291001458,-0.049071010220449025,-0.027126249138968935,-0.30396803790257887
-0.040061977477745904,-0.11046087285495707,-0.08095540795361916,-0.04958406894843349,-0.031327402230375986,-0.043533404430849056,-0.021261689479995124,-0.31993692959478154
-0.0369676401975605,-0.08855357605144952,-0.06698098386290795,-0.04138418138193995,-0.029015306527622717,-0.030957018022917053,-0.03267849175151301,-0.3106645134733119
-0.030012413008067042,-0.07557202903863927,-0.07256499716973328,-0.04648926822571518,-0.024068492799996514,-0.03920848140267235,-0.015808619472467235,-0.29769498652962656
-0.027112118594253134,-0.08659189275667194,-0.062235896778023984,-0.042203593681792814,-0.03489089143637054,-0.027942905869325078,-0.033398282062346143,-0.29893238412884915
-0.038402406020443175,-0.08762616308397425,-0.0691427692947873,-0.04014681559707634,-0.023105930987166592,-0.037919667365842916,-0.006805048278432366,-0.32589261959894916
-0.029597548625454002,-0.06660478839731067,-0.05709965119713652,-0.028362807961070585,-0.026485767472138592,-0.05011079827936809,-0.013621111666104106,-0.3019809882753732
-0.024705178164633374,-0.05502934459544895,-0.05959105830387226,-0.030716521135507442,-0.028806080035171013,-0.02683743548426956,-0.01654647511417762,-0.30785086014245416
-0.030308143477568567,-0.05830335884697287,-0.0562301011811378,-0.026494772902857164,-0.03582987264900474,-0.03210267936798688,-0.018285059647722975,-0.31216141578788464
-0.025026792740881022,-0.0781141502563321,-0.06135256485171451,-0.038653479792903525,-0.0343438737796581,-0.039883759261063995,-0.02613825624621923,-0.3266367763222518
-0.0318157436909805,-0.07581730923004207,-0.052885461789453934,-0.023796081497264348,-0.03186645024364334,-0.0333309608194231,-0.01838315446255485,-0.3220549662517409
-0.019210142304901402,-0.04320212149208809,-0.05112334565567219,-0.027418607964009776,-0.0211564371993018,-0.03419378247230642,-0.012072529413701715,-0.27061321047943016
-0.028577315469005528,-0.05755881609178376,-0.04495457799283232,-0.02245251232946231,-0.02735096718601581,-0.0364242230964232,-0.023897896500376607,-0.27799519838254005
-0.032902061550278965,-0.06144172641198195,-0.05388893138936395,-0.02570229722752332,-0.026835395784167337,-0.030608699636550236,-0.005567408989476541,-0.29240739908212277
-0.03817011132237218,-0.07310981113148793,-0.06181243879627905,-0.02718724947839931,-0.031762237679207245,-0.039036750695321636,-0.01790884436385863,-0.3349207982010857
-0.0393509147202757,-0.05674777261491405,-0.05775338500864492,-0.023629510305422954,-0.018095018743294878,-0.025866226663581685,-0.001835134543163262,-0.26010911422244354
-0.032734095697917284,-0.05734416437859477,-0.056329417758699575,-0.02966930123766382,-0.029891160254486165,-0.02452662016236692,-0.017968136665929266,-0.26103751214994175
-0.0390449993493747,-0.06440909527005897,-0.06268495983746472,-0.033128114461172656,-0.031092598198547663,-0.029869606112933794,-0.016156061722796707,-0.2713140438627028
-0.040231875143678965,-0.0740574808785729,-0.0659233740900169,-0.03245701208297142,-0.03305058923220302,-0.02505287798512118,-0.010757888961525481,-0.3061711970244267
-0.04844551292321645,-0.08951810272378005,-0.07264248012991735,-0.028059500945862917,-0.04335013805182601,-0.03543339155637135,-0.030319643243293632,-0.3136957655232554
-0.04743059160542213,-0.08073540306878384,-0.07398561961207963,-0.03678753675693891,-0.024238919925602752,-0.032513215966573854,-0.0026668526187089707,-0.30137945633642693
-0.04258566143122162,-0.08181294484594526,-0.07509819491649704,-0.04284644243935438,-0.0394268364974554,-0.040253242852117246,-0.02308444484899095,-0.3087466457084411
-0.04891869296888084,-0.08375681426833874,-0.07277483649886209,-0.046268924336323576,-0.03911074731487063,-0.04466753221270513,-0.02070588491080557,-0.31831801076319394
-0.047555787751123076,-0.10843152993387138,-0.08341253305590683,-0.04998996212323782,-0.037487849798531994,-0.03562272430082492,-0.00549875671126635,-0.31805329007231375
-0.05804176626801904,-0.10889493864319831,-0.08458152404663948,-0.05301581364996491,-0.03977283557057805,-0.04024776195632436,-0.020783723824142997,-0.3393382669749826
-0.058296982387615943,-0.10046122177049573,-0.08342924916936231,-0.043997959145140014,-0.047506593044974954,-0.04787113071673606,-0.018315964320633128,-0.32568001377727296
-0.05456816296654013,-0.10258796419295967,-0.08745219196607809,-0.05669230924487986,-0.05247487406740421,-0.04706265739548572,-0.008866397499394966,-0.3348749261770929
-0.05536050284872767,-0.11863390074053905,-0.09124617445183161,-0.05950819414432136,-0.04631343654540144,-0.05446792450654499,-0.03828337757599862,-0.3603723928479205
-0.06204193612374034,-0.12044810221003902,-0.09437554972181363,-0.05160324057730768,-0.05359447546320592,-0.054824824920936065,-0.01973180058038798,-0.36644845261386133
-0.062180106067876335,-0.12173405662834155,-0.09643978744986717,-0.057968628126558994,-0.05851024710668111,-0.06292264827081528,-0.028093658456099305,-0.3655866776367147
-0.058069657635560816,-0.11040214081709565,-0.09410340877642592,-0.05330193764179975,-0.06222189689611256,-0.06731116051700631,-0.032389319959586216,-0.357042730322786
-0.05966030360107589,-0.12674196147002842,-0.09878886489118102,-0.057298810640679376,-0.06287902963783724,-0.06587427382588527,-0.03861040088284834,-0.3809322892606748
-0.06267460617755935,-0.13465059612552394,-0.09591640913481611,-0.05571997557099365,-0.08338731115401976,-0.07705456978090162,-0.06390214836305738,-0.38610355550659264
-0.0636075187721371,-0.12412884222347043,-0.08733878347284636,-0.050977883730181514,-0.07263272986254436,-0.06492507727458978,-0.044918378588038606,-0.3836105751375477
-0.06103735856947398,-0.11791896818967362,-0.09558184281696432,-0.054937775714696345,-0.08270786175599627,-0.07435817735933106,-0.04817178605948831,-0.3658776839188637
-0.06387584703060607,-0.12607154120753788,-0.09458326311706192,-0.04277832228199179,-0.07977449146764096,-0.07364609958473281,-0.04399980107723796,-0.3845387074314852
-0.058733539784549614,-0.13258637115707939,-0.09480654645334348,-0.053045092055305956,-0.07352262805335139,-0.06341481339196901,-0.04142946438210087,-0.39604999070641617
-0.05465649731121991,-0.12143203144254187,-0.0931769924173629,-0.04680403567354908,-0.06477387631628626,-0.04608416149005595,-0.02241213063030846,-0.4021324748636161
-0.05746546968263778,-0.11499618097009102,-0.08242760586411882,-0.03577662614707093,-0.08033943899358738,-0.057088359929835575,-0.02884061111947194,-0.38560002873492444
-0.053799019076735635,-0.12453988594239032,-0.0852961227326795,-0.042762761223276755,-0.07148007194062005,-0.05505177204896967,-0.028468064501261582,-0.3842668253853907
-0.05004188465614112,-0.1347218418744617,-0.08814692686355881,-0.030191773952644312,-0.07942390123578556,-0.05519740183125243,-0.016912837838986037,-0.40159261481129777
-0.05439886341021008,-0.1298966575225968,-0.08607966581601467,-0.0341107251422055,-0.05828100758889884,-0.05150189775096248,-0.01375307886684424,-0.40426011568130965
-0.05046392794499116,-0.09857162921305522,-0.08215299883079519,-0.021399021391048607,-0.07186382565516065,-0.044948381701153554,-0.029584882508514477,-0.37923941072617745
-0.04656096787870794,-0.11422963743007555,-0.0852462536689697,-0.027359567441483518,-0.06801239433999481,-0.0685323604826687,-0.018108243420910327,-0.37532222076778643
-0.04974619597952563,-0.11279781250895947,-0.07936331413215707,-0.025356992458678056,-0.06841430022837341,-0.04694642837915755,-0.03754215586058547,-0.38670189502664576
-0.051680752460484154,-0.1255349731449563,-0.08701293526661665,-0.021505350845531446,-0.07695328827822275,-0.04737123323249295,-0.00222393316967844,-0.39775860544499947
-0.05542883778228967,-0.11047609858132806,-0.07434490613502966,-0.02352587876045837,-0.06935982856794486,-0.054771471984205455,-0.006334480235411998,-0.3710467561859074
-0.053140100513673065,-0.1063216519202849,-0.07571594891128222,-0.022991965594278813,-0.07403330379616506,-0.054073211322930734,0.0021843070098160077,-0.37262671601286923
-0.054547405248267566,-0.11746869423970834,-0.0733114974044342,-0.024489845746623874,-0.06716635257870013,-0.04608341928906197,0.00966599486779638,-0.36672932869138763
-0.057641334644189746,-0.12087120578452624,-0.07447172141586357,-0.02065868295715395,-0.06563431505686386,-0.04183225915481725,0.004215517728046082,-0.37790241248677775
-0.052758106863280696,-0.11082690630284786,-0.07806861969473708,-0.0114934403055245,-0.06919211222280632,-0.03300386795565479,0.008370968738220269,-0.36287377000331905
-0.04680728452164941,-0.11032902684954751,-0.06788750161518371,-0.020375266176513192,-0.07131980576964794,-0.04467564883269649,-0.004545499629797927,-0.3472782247354138
-0.05567173255332659,-0.12260465627539928,-0.07093018299710026,-0.023027360470912136,-0.07031727642258778,-0.04108893702449333,7.171312386267694E-4,-0.3813002583031788
-0.04801207763409127,-0.12688614124578534,-0.07585436152828004,-0.018256433268654396,-0.07089038612195976,-0.03406586677951407,0.008496341671751973,-0.3935873942464943
-0.05169143737078391,-0.11272627995850945,-0.07604100554079898,-0.01628970733013785,-0.07293368344824971,-0.04667891927395601,-0.007430260321760871,-0.37355032716351955
-0.054597953410886885,-0.11253855738370068,-0.06974784667583409,-0.017545303948470033,-0.08388002338578336,-0.05218288532867595,-0.0034983051899024342,-0.3801355974464643
-0.062123713358233135,-0.11405961070614852,-0.07652698876061147,-0.0212044315655316,-0.08482792498834787,-0.05064124928068109,-0.013985540876933709,-0.3761802038222542
-0.06185231106910752,-0.1277117743960535,-0.07192620239996575,-0.02077861685097852,-0.0800906601689958,-0.04019964919039543,-0.007640739626164816,-0.405932149302104
-0.06154505235542141,-0.11718496725794615,-0.0709132677739014,-0.00980093916476494,-0.09020166196135772,-0.04198200796994567,0.004274623548968539,-0.3868717227872018
-0.05259062666146922,-0.12273646832064905,-0.06331193777487083,-0.012378820897770607,-0.0865541949418542,-0.06305804900986782,-0.017688252974489883,-0.3961488980388285
-0.05586987352959558,-0.11968469691112767,-0.06759651094807967,-0.020657814366951667,-0.08778034026996265,-0.05569395998618041,-0.022795943475329095,-0.377059078285473
-0.058064607193446825,-0.1255337104000442,-0.07075015632331687,-0.02187054034339749,-0.08774340260303176,-0.06209664233194634,-0.026868671151070885,-0.4111494199180179
-0.05892355391334106,-0.1132545568473154,-0.06471411789752338,-0.015887759640225953,-0.08821318603838396,-0.06761690394646298,-0.04768940287277143,-0.37719584620545843
-0.05309133841792689,-0.10876591778269742,-0.06873672369529736,-0.014103573817718382,-0.09195825974015055,-0.068435067569492,-0.03794494639782382,-0.39987823912254367
-0.05234668117501995,-0.10727364183299651,-0.0716120954118067,-0.017672748669458914,-0.09422738236360664,-0.07120411316310424,-0.06155239636522338,-0.401200605220886
-0.05577233605102238,-0.11638166844260381,-0.061651753378264944,-0.023178455375573795,-0.08608288291446187,-0.08572195125775377,-0.05547681264823573,-0.40790992604856185
-0.05809738608122024,-0.09952507600326396,-0.0566966422516725,-0.006923667967842404,-0.09552374294665204,-0.09231645411755428,-0.072569788323343,-0.38718458222858126
-0.04909743029128829,-0.09974270788536027,-0.058973921468132295,-0.015594218268599502,-0.09310446377010224,-0.08947183429074235,-0.0748537084669846,-0.3911980164653048
-0.05778615018235613,-0.10643270096421195,-0.060051370527280434,-0.012762187685063311,-0.11020608357029141,-0.09363930130282114,-0.07421149016739051,-0.3779058878488725
-0.056844901405674796,-0.10087664454634535,-0.059948962098212294,-0.016419473729082982,-0.10384861964668338,-0.11110399361615025,-0.07469139448183354,-0.3606149492769549
-0.05847800909002811,-0.08559428721878241,-0.04083539103371468,-0.008322481095673077,-0.10456149309011224,-0.10770525779542207,-0.09744596133090924,-0.3844603829922893
-0.051840720524622304,-0.08211984765007413,-0.04259126201589348,-0.004751668836268715,-0.10054791276186548,-0.10781561530157992,-0.09661212553308896,-0.3448095386220236
-0.05393449494277276,-0.08744431924765472,-0.043792542456626185,-0.0019151066273472943,-0.1114596331215376,-0.11612410594740434,-0.0981067516203433,-0.36961590508502845
-0.049512334590108065,-0.09958956956242433,-0.043246337856726796,-0.009659894326310155,-0.11054757475586657,-0.11004802169977142,-0.09843675500593595,-0.34764796520718655
-0.05632003622808985,-0.0669096690865873,-0.03918519955107327,-2.3000419413798708E-5,-0.10146495276563167,-0.10934677640843714,-0.08575590085046449,-0.330780788184068
-0.04895052312535754,-0.07595470946772405,-0.036913857762523254,0.0036807887049625887,-0.11226643205853026,-0.11049603701259168,-0.08464389343401171,-0.34856924042847504
-0.05349891014889531,-0.07620669556750434,-0.035681227751305215,0.003341758286403154,-0.10781130609947612,-0.12284625378337595,-0.08882265235675663,-0.35171306687061327
-0.055825799376775405,-0.09132945540942572,-0.04197588919663854,-0.001380889789896709,-0.09826683935309713,-0.11229574464102926,-0.0828814782300807,-0.34728203810129993
-0.048896793701601084,-0.07764671652962934,-0.03533739812907362,0.0026609311157894653,-0.11094275816377115,-0.09089747502588967,-0.08199241080472318,-0.3388219837892435
-0.06027790363214594,-0.07007100217942808,-0.034265243164083754,0.009820588322873278,-0.10896949641314906,-0.11819797368929044,-0.09135530447360556,-0.3389117672981869
-0.05614336194866054,-0.07999606598469268,-0.039250364963857656,-7.023232688573655E-4,-0.11411840320053847,-0.11444988967325577,-0.09622102832100035,-0.31462274918126104
-0.06249801570128064,-0.08369870360434303,-0.04301961006416693,-0.003761146549451201,-0.11532241665696907,-0.10644834907775724,-0.08260341497816238,-0.3731491921784873
-0.06016648328958993,-0.09388698067302254,-0.04333383384918404,-0.0019876691354894635,-0.10650086990607578,-0.10156583111043409,-0.0745163338612342,-0.36089032684388506
-0.06127493485868736,-0.07780905975230752,-0.03668632656334195,-0.0018298082188226111,-0.11820922727742271,-0.10426330253514467,-0.07556810552817957,-0.3303315745843328
-0.05311368615837296,-0.09077633374250536,-0.048110016571247555,-3.353256696623841E-5,-0.11355851029216428,-0.10119706467837403,-0.06318933070179782,-0.3124895221370013
-0.06381418916087421,-0.09717417650185341,-0.05164482145901741,-0.00538494270853478,-0.10972150065704492,-0.10508097935857462,-0.09020170010127067,-0.34839331566333653
-0.0635239727744112,-0.10924292126420788,-0.05400168571639043,-0.012688034354829405,-0.12107675822116641,-0.11806455475848852,-0.08426233385758847,-0.3462558224629055
-0.06690711186197813,-0.0980861742522713,-0.051155687847109575,0.003016848073486455,-0.10549533051359108,-0.10517748323604437,-0.07029262859375891,-0.350230474415385
-0.06267684284402279,-0.07409895926810095,-0.05068160099356342,0.005972380862537627,-0.11051348870161824,-0.11115226262816102,-0.078744486165279,-0.33368988853810905
-0.06546452952883178,-0.09449493988793417,-0.05105157753636062,-6.62398365152833E-5,-0.10927276318268096,-0.11402848475140218,-0.08836334124663747,-0.33785846936007047
-0.06556373584505723,-0.10537645774979161,-0.052969442543615394,-0.0059730667157925615,-0.12049866495146579,-0.10021258024268158,-0.07437254958797043,-0.3482183660474551
-0.06603193457404435,-0.10108407624435646,-0.05059105059407899,8.564238399047977E-4,-0.11980889931950706,-0.10627000985701593,-0.07027393459758312,-0.34310186021608896
-0.062189896474026285,-0.08014990473576852,-0.048287662719178115,-0.0026418577702702097,-0.10757740092180858,-0.11202911608181963,-0.08437770952708176,-0.30990226157301326
-0.0699156840750457,-0.08347158884694067,-0.05022018397271348,-0.004233276112517623,-0.10687515187092626,-0.12147216452574229,-0.09557175736151768,-0.3295463819843389
-0.06347269890960577,-0.11595924128243502,-0.05602748057180383,-0.003497520888281649,-0.11753324636223872,-0.10922235102079836,-0.09838432304901719,-0.3470219609938943
-0.061578536547926055,-0.11752473525801536,-0.06007648386643704,-0.009861621178196375,-0.12207341477057816,-0.10657642246545844,-0.07113513856341289,-0.3551430416980639
-0.06605448574085568,-0.07512016086827435,-0.05218167931194195,0.004747948350344158,-0.11437925299212215,-0.11341230768604307,-0.09667643702426715,-0.33769468444474265
-0.06900470873442145,-0.09652116181092146,-0.052344626482414794,0.015828518838975788,-0.12041912360032156,-0.1157549709700277,-0.08490453493349819,-0.34079168694650214
-0.06866156572493831,-0.0950220100403987,-0.05246815462087805,-8.563512267546527E-4,-0.12530944332191948,-0.12648785561142237,-0.10167082026105206,-0.346623336742526
-0.06303474745736341,-0.1190405029285518,-0.05726176481518967,-0.004553791021112493,-0.11696282734880456,-0.12018275415681103,-0.09519832476885164,-0.35954147808970305
-0.060446751463590305,-0.09319507537706735,-0.050566171017479136,-2.2121959925786302E-4,-0.1101605668309753,-0.11508460338923467,-0.0990001934478759,-0.3364267954658185
-0.054761129691566324,-0.08528634778755846,-0.05337805179498903,-0.00519791402012549,-0.12231211383438509,-0.11995037515860767,-0.10392540145488344,-0.3346223418315241
-0.06838503589948956,-0.08636666700111949,-0.058062026653284304,0.0030409187680370043,-0.11064941994542642,-0.13301333003817875,-0.10736043755514925,-0.3486068223070929
-0.06655613018426694,-0.10475379894064875,-0.0635274969779721,-0.010002336269789847,-0.12696742010204362,-0.1279919672534259,-0.1108763016699717,-0.34494970193785196
-0.06559024184891912,-0.10956821023142087,-0.056002334660093064,-0.008345349827321963,-0.12668860709688837,-0.12753300609817322,-0.11654979547813285,-0.34989835964913046
-0.06834681343590415,-0.08163833836333112,-0.05253463184930798,-0.006255566757086865,-0.1286509024370598,-0.12167422358156124,-0.11060833280557153,-0.34029872247596266
-0.05226985845890254,-0.08504739815726917,-0.058607760337247315,-0.007290569068606929,-0.12374087297772643,-0.12518624698773045,-0.12368870122681166,-0.3470913070986924
-0.06083643606410957,-0.09601979556753784,-0.06508220154389167,-0.013479157507737732,-0.13057326848408649,-0.13230641014356045,-0.12683563107931503,-0.341989041235322
-0.06274785479035039,-0.11794833601736818,-0.06437996483030227,-0.009591490767095104,-0.11045117787786654,-0.12067424734192277,-0.12762763197274044,-0.36636758506802836
-0.05985823006291726,-0.09114023736098288,-0.05768474015148808,-0.010946955127197554,-0.11497152961783047,-0.1290758666633545,-0.12414098148139029,-0.3340671338487551
-0.06554893213197895,-0.09628536290318979,-0.06701939113799418,-0.017904785861193376,-0.11804864154823984,-0.1282712660209717,-0.12850288622628908,-0.3416529996819586
-0.07388034497502823,-0.10135826518516847,-0.07403658394267813,-0.02117748712674248,-0.12327165413451222,-0.13667484303245186,-0.10992779239155233,-0.3520705837449633
-0.06665724952817909,-0.11361826775965449,-0.06688882013209835,-0.0251434020512327,-0.11664503752193167,-0.12888034914607827,-0.1110027952461928,-0.35441065076925377
-0.06358764196390455,-0.09572180196955692,-0.06495606615131026,-0.01197647242510219,-0.10812987326938099,-0.13483744570474465,-0.1274638775258593,-0.345647600224775
-0.06443590004849861,-0.08872228293602508,-0.07015219503870819,-0.018913146682358942,-0.1269019224273132,-0.14467877459572162,-0.1294564535894408,-0.35452745415474274
-0.06359535010383965,-0.09571392390600275,-0.07894353598723446,-0.03270065944354769,-0.11870016567697536,-0.14585096603737382,-0.1291171089459249,-0.36644683020982316
-0.06844004508497228,-0.10879320068814252,-0.07785575500560662,-0.0381067216793256,-0.11846527438588879,-0.14081787300053195,-0.1205269548757921,-0.3444838057959853
-0.05823049951376937,-0.08202169073008775,-0.06143897257623465,-0.028342906375855174,-0.12688178884092247,-0.13829545599552906,-0.13576626299767958,-0.32248499588497426
-0.05468516370156996,-0.08282578066181548,-0.06876584354871837,-0.030061893235734178,-0.11390432027594155,-0.13462000147221864,-0.13557108421259617,-0.32528024123500676
-0.06061333565538059,-0.10695572123006512,-0.07108342837623864,-0.02426462904614307,-0.12981259332229553,-0.14142047576817218,-0.14800688579768512,-0.33699038789969094
-0.06618832093265754,-0.10916867042960547,-0.08003167132130581,-0.03236470616370343,-0.12199479847481784,-0.15136054553471828,-0.1382429433472496,-0.376583181177585
-0.062794359418248,-0.08235922634284139,-0.06666690363806609,-0.032938582060115275,-0.11152235150165216,-0.1327665870807596,-0.13533743963664988,-0.34068644989505487
-0.06093474276764939,-0.0776142075323112,-0.07101451710348841,-0.03697515986104213,-0.12203665027924138,-0.14908427284858897,-0.1410543485494737,-0.33160893448409
-0.061763274890372366,-0.0869116414101505,-0.08247514448216597,-0.03565730774809737,-0.12158901761613579,-0.14647829281498906,-0.12680934505989447,-0.33053259728718193
-0.06480261158657774,-0.0996043322715475,-0.0849280917701087,-0.04321209205834676,-0.11061283513898486,-0.1295906602222993,-0.13629221862940416,-0.35681215550873735
-0.061956336157327395,-0.08816455398290825,-0.0757053838583771,-0.04089669439654756,-0.10888669977363105,-0.14978367459807115,-0.11889994846226838,-0.32656253197398166
-0.04920368949961756,-0.08317593606551438,-0.07149215548305429,-0.04097946583551879,-0.11289569529328601,-0.14146915695906115,-0.12193377908268137,-0.3148279315644984
-0.057643326585831996,-0.09615871116842267,-0.07586067710488484,-0.03902412958264881,-0.10706136848455769,-0.12895140669202393,-0.11429969099186658,-0.34326747823674625
-0.061265137440199555,-0.10476693087065835,-0.08703657873117965,-0.04813987357159816,-0.10517810959338791,-0.14542542550863316,-0.15278588738839766,-0.354250234288135
-0.05771023678402237,-0.10403975342849765,-0.08568517998123847,-0.042467093861246565,-0.10899342731799332,-0.14331008468747827,-0.12054033747516743,-0.32066900687758243
-0.056021916680285604,-0.09307938191048971,-0.08369257323927312,-0.05700923962240561,-0.10045869511411099,-0.12538325189191496,-0.12919454197002933,-0.31304476650948826
-0.052961118847606806,-0.09758268632700344,-0.08023044223895463,-0.05524174254711999,-0.10535169819301131,-0.12672144800426752,-0.12400794528770151,-0.31280400869563935
-0.06377828525789023,-0.10667187933382305,-0.08679726604396959,-0.04873271382279244,-0.10829070933043004,-0.12268364706360613,-0.1169031551241926,-0.3381891379676106
-0.06907306401544615,-0.11963948847217935,-0.09292132568859501,-0.05205294498493424,-0.10356612370341864,-0.13406582603622724,-0.12475918423794385,-0.317895396045967
-0.052679510189460634,-0.09938473466944528,-0.08150189060521776,-0.05441885709483287,-0.09497789274689436,-0.11767386626589701,-0.10295683043433801,-0.30218106065803335
-0.06610197177642756,-0.0988289866977919,-0.09158315654324237,-0.05835986915517679,-0.09920826737769865,-0.12703350911293498,-0.11644744458083066,-0.33336448691003345
-0.06833681228713821,-0.10868952117085375,-0.08932320612094512,-0.061705168869864845,-0.10122453990889972,-0.13577088123702877,-0.1309909146111146,-0.3109241886887047
-0.06392277710306142,-0.12010094557270229,-0.09783588988164506,-0.05398130575591245,-0.09860281322149887,-0.131020628756142,-0.13940314692575975,-0.31903801719064284
-0.0573224475621134,-0.094090917367114,-0.08102004112943043,-0.05923007333042493,-0.09492449613546013,-0.1332794031376129,-0.12900629997175572,-0.2923024920427904
-0.062469134071867466,-0.09508649193737197,-0.09197779750164267,-0.05959382821639683,-0.09685056905361035,-0.12637120521964096,-0.11872074832512317,-0.30645197789371287
-0.06332642759864911,-0.10827220796730977,-0.09497071494989887,-0.05922591723817381,-0.10036760113326385,-0.1409878029837946,-0.12646678807936632,-0.30857723700232165
-0.06348627126818959,-0.11859250470838531,-0.09625125393947256,-0.07014968377491478,-0.100664400077279,-0.13384389624865514,-0.13151838862235615,-0.33733683451462576
-0.061087300346807295,-0.0937081309502378,-0.08629188935735904,-0.06022398815611688,-0.0952393471753922,-0.13286061260165197,-0.11692608597507294,-0.3189448477773298
-0.05370207579775202,-0.09450959751755476,-0.0893397658798931,-0.06032267575918509,-0.10654786244071003,-0.14019457574265648,-0.13389649167962064,-0.30578146859556377
-0.0512340007060342,-0.11316017010079717,-0.0892230547281019,-0.062024953503209655,-0.10505864030302196,-0.1403412859286899,-0.1379058098076073,-0.3079761465863351
-0.0637435702512013,-0.11577537026748631,-0.09948834899662001,-0.06037625998434247,-0.10193314256799532,-0.1388757715563022,-0.13855043834424927,-0.3403010500947654
-0.05929950360013105,-0.11768002500286716,-0.09927333684976342,-0.06062160257678929,-0.099282818815721,-0.1376051674166072,-0.12328444467545137,-0.3365759210887544
-0.05995828628047593,-0.0917716878305408,-0.08444332039436081,-0.06601696470536106,-0.09870142745516927,-0.14622129158074917,-0.1354362209970809,-0.31100662652170924
-0.05504224121117853,-0.09163156747780524,-0.0850711377162979,-0.0683387637228272,-0.10695531311993538,-0.1365729022550011,-0.14185601581421303,-0.32947656052344637
-0.06542375238326816,-0.11261311727137897,-0.09830821098516793,-0.060914650464480295,-0.10887355489219488,-0.14642095745785758,-0.15310643971564233,-0.3323956073461271
-0.06624467799139969,-0.12267300401560784,-0.09713116847184687,-0.07649420837406398,-0.10789147359903357,-0.13865288392569403,-0.13386688782071665,-0.34970432046159144
-0.061421841269133096,-0.10381658896347432,-0.08717230929199928,-0.054593811099546516,-0.10329342363492224,-0.13945706473417294,-0.13697287446826484,-0.32170364880460917
-0.06594544607099871,-0.09910608650192083,-0.09135848768829727,-0.05477585024678735,-0.09582438307872114,-0.1511397422266295,-0.12828054354788296,-0.32406389252570994
-0.05614926145222202,-0.12330383452379143,-0.09521748118137409,-0.06213058784754825,-0.09845525995219935,-0.14732013880298123,-0.14353962903402823,-0.3308022768041126
-0.07029630483105662,-0.13012627545838537,-0.09823123869246325,-0.05833366814051247,-0.11137253508363353,-0.15225449135331262,-0.14566635566915484,-0.3452037518026104
-0.057062531587664486,-0.11324934700688477,-0.08794685078747125,-0.0567944196041537,-0.1031247729152128,-0.14360381481298037,-0.1296248457104246,-0.33594641321295415
-0.06353286269539528,-0.11269381946679051,-0.09317510519309517,-0.04650037034217316,-0.10973875937208799,-0.14918804811023115,-0.1468121794268901,-0.30963430105220885
-0.06523147845330782,-0.11734571041748097,-0.08627888089401087,-0.05972838560741915,-0.10532617648382608,-0.1620125034426174,-0.13953447052924536,-0.31151737417905395
-0.06541949258002716,-0.12591932312546825,-0.09700196213924009,-0.06398983309868018,-0.11070407304232774,-0.15819028598433743,-0.15037735347867764,-0.3508308723269733
-0.05759956677486079,-0.12836966045308185,-0.09641139397926925,-0.06568715591551143,-0.10798363185338296,-0.14894235222658297,-0.1447330565831523,-0.3257198678604351
-0.06175931204065014,-0.10669835077938475,-0.09114997511431652,-0.05428633317897676,-0.10778995823004418,-0.14519145632420033,-0.154899796276361,-0.2852941202339106
-0.05814555402095356,-0.11368522136345655,-0.09497883975415679,-0.05951243637125902,-0.09914872068903668,-0.14299293340379338,-0.1357385527601211,-0.31159704966599244
-0.060276835069221206,-0.11773338874754163,-0.09612350166731834,-0.06365055549852515,-0.10530686696336336,-0.1444546666281646,-0.15033372462508757,-0.3395999134312102
-0.06602966128259355,-0.14288134758036708,-0.1056903044860767,-0.06897246091247644,-0.10080967949431802,-0.14114729373924004,-0.14342416035306624,-0.36003443956342435
-0.06297323596543603,-0.11057528738868233,-0.08687252059067466,-0.07599266130893974,-0.10988682573391931,-0.14738796688158062,-0.13857757141099059,-0.3386532194681392
-0.05330051632463242,-0.11714900217775855,-0.08963647065838573,-0.06720959001724373,-0.11292360918553175,-0.14236907982000627,-0.15799440329529368,-0.33616583984506254
-0.060814619784133044,-0.12975567725709017,-0.0983261308578228,-0.07297951167845014,-0.11723517005521246,-0.16486384955569655,-0.15343562434682081,-0.3384945663790438
-0.06737788423607935,-0.13337631226255992,-0.10669930553597405,-0.07399103405416542,-0.11008526836759577,-0.1646328112192584,-0.15191940932902315,-0.34906258971458
-0.06688328091763186,-0.12981508307356415,-0.09634850258531157,-0.06551657909569543,-0.11012208230710653,-0.14271708258328145,-0.1460486929034563,-0.3526043366235886
-0.06439532922774449,-0.1227032359356965,-0.08916490505226836,-0.06261429928747007,-0.11547352185113849,-0.14977001814155644,-0.16625352117381942,-0.3280555403614921
-0.05346779907062213,-0.12295598961306324,-0.09699649926812313,-0.06823409697108639,-0.11190249934561557,-0.15822322902536012,-0.16077358307758896,-0.3334347550925547
-0.0693501862892267,-0.13244380301761383,-0.09668933204989878,-0.06646130912203259,-0.12062120887490693,-0.1581941069963972,-0.1571315261033565,-0.3694584837892073
-0.06667787287240301,-0.12916035048282062,-0.1002170604427245,-0.06275709351986455,-0.11821594413636108,-0.1588870137640822,-0.15697396089680762,-0.35629507339951116
-0.05491211722723226,-0.12548847905038474,-0.09567638505833577,-0.06538554645316469,-0.10888340356741741,-0.14667543397881216,-0.14714998973497306,-0.32020068327224194
-0.06202454031997443,-0.1287418824871173,-0.09996507546149928,-0.07020910908409553,-0.11178035278878048,-0.15816724223663287,-0.15411550821021877,-0.32558523276835954
-0.06698393527466893,-0.1334658327236145,-0.10523554718155415,-0.06951508503039644,-0.12095016388575852,-0.15828919219564602,-0.15781700843835134,-0.35515262926196006
-0.06741042393094139,-0.1275775953451887,-0.10458019375811399,-0.07725966357680196,-0.11018237341605061,-0.14498638230412372,-0.15282108174661171,-0.35555299223832265
-0.06834294081909538,-0.11000281717399969,-0.09817577461546557,-0.06489680392577984,-0.10660273562863704,-0.15349602108539828,-0.1345145803452518,-0.302957725116327
-0.05600513075889764,-0.11213358831705497,-0.10247198766997498,-0.07219939262031969,-0.10344370130641685,-0.1602138750029175,-0.1508529733539096,-0.315178823701684
-0.06563106519439352,-0.12395246698242854,-0.10595709638535113,-0.0785613636612782,-0.11956677748802676,-0.14859060630608553,-0.15749030053469093,-0.33962651241162967
-0.05976787291882445,-0.12385741373905346,-0.10370290933403217,-0.08104556612284396,-0.12570809371910788,-0.15679831826169707,-0.17262027565566046,-0.3305692725573763
-0.052078160934178976,-0.09988394458399655,-0.0964413937783857,-0.07272197915119459,-0.10331824606511439,-0.1443579117703697,-0.1348996397494897,-0.3110748135734028
-0.05688399802830238,-0.10339526617203045,-0.09394727816529742,-0.0635992925157082,-0.11150484634646969,-0.1626100898678734,-0.1761883704130843,-0.31554948148612616
-0.06459207748359692,-0.11455243139356745,-0.10404638713393506,-0.06986510773212161,-0.11594497359226222,-0.1679237627957378,-0.18118162081550354,-0.3173279938197995
-0.057676255710040564,-0.12644880738034822,-0.10569851313049844,-0.07315652584259014,-0.11737104078240079,-0.16997481416380472,-0.17458661934240252,-0.3445719497093219
-0.05894655805627049,-0.12074963392333195,-0.10004991801633037,-0.05548411726947978,-0.10451286060661959,-0.1479808575400959,-0.17122522558686895,-0.31119214474053614
-0.06297907628629666,-0.1023111568466791,-0.09777532846724658,-0.06705688622066662,-0.09454887150324794,-0.1359346856078491,-0.1437373481651943,-0.267466521133378
-0.05620545562693804,-0.10225904932968721,-0.1054708552021762,-0.07006733560763097,-0.10548705007250228,-0.1429936646373938,-0.14202004804071108,-0.30667835367305696
-0.06559351013279106,-0.1203447412483107,-0.11987961508519579,-0.08877298057228754,-0.10174940498605867,-0.13630499079500655,-0.14796639394064084,-0.3065616405462149
-0.06510764446023835,-0.12992580395200565,-0.11586471562990142,-0.07796667301786757,-0.10561724680033327,-0.13966367887568537,-0.1204144885659182,-0.30581023759958625
-0.05880021449306755,-0.10517652084976069,-0.11459069609945753,-0.07337931565417853,-0.09954777215552651,-0.1427171171937571,-0.1475988269930168,-0.30598944681229734
-0.07217681920210704,-0.10629897040976181,-0.11708580614507404,-0.08040553066329176,-0.10928973492547024,-0.17264457977164113,-0.17676094796692698,-0.32666709192416427
-0.07317713742013401,-0.12401274502437928,-0.120814648323493,-0.0846142496539956,-0.11834807981151739,-0.16616202124928298,-0.17711985754737997,-0.34411473209798726
-0.06713791682802546,-0.14208516973103827,-0.12818503374442733,-0.0798756699143199,-0.11904617124612747,-0.173074406274553,-0.18425320126823977,-0.3555955603105326
-0.06874675698392407,-0.1220772885057283,-0.11855865512758841,-0.07336312958253828,-0.12503372263195425,-0.17987428105057182,-0.21119644250813369,-0.33942027147014675
-0.06836977115208744,-0.11717678153041598,-0.11035614907935093,-0.07781454190013903,-0.12341346131574488,-0.18163476477850363,-0.1934769701236408,-0.31992484112160857
-0.06357916624658305,-0.12222403031343713,-0.11622140298344655,-0.08219009859900515,-0.12278107025296113,-0.17515207383420964,-0.1958292258140992,-0.34880698327141907
-0.06848397336760093,-0.1269780464919185,-0.11329991936726799,-0.07905506710157281,-0.11753628060227125,-0.170778858775134,-0.18068062383450442,-0.3449076872149467
-0.06649779007084905,-0.10494524474145213,-0.101020960452496,-0.06016548224293438,-0.10096036637326306,-0.17300984390018737,-0.1954670020906933,-0.30877252783932163
-0.06946314685539906,-0.10988222808760165,-0.10266405688131748,-0.06246264228555445,-0.10846630125740946,-0.17230507189138958,-0.19611434190447943,-0.3233402038127162
-0.06574624994031848,-0.11451032883515504,-0.11304750822102125,-0.07664017361584735,-0.11354633696980689,-0.1754497557323,-0.18696793738514056,-0.3152742394594433
-0.06844033724628938,-0.12149035843750576,-0.10261435601884383,-0.06706595043313468,-0.11508179136697715,-0.17790485912326878,-0.19491277946025956,-0.33911964115442433
-0.06841436316204624,-0.09761484139688145,-0.10319452646532931,-0.0561779174464356,-0.11092343076022176,-0.1703369160170575,-0.16836689769539193,-0.32809604367260226
-0.06486442390642638,-0.09807997714539739,-0.09935502336466508,-0.058944546597760133,-0.11672500622910653,-0.1758844070685346,-0.1933821551115601,-0.33375969897226776
-0.06820800719555134,-0.1215252746440372,-0.10637539231778588,-0.06436311981439659,-0.12554307392607278,-0.17173632940874328,-0.18381314513303532,-0.33902297841673934
-0.07625259194993005,-0.12005320592790673,-0.1101867561753663,-0.06962375821875662,-0.11983297098722079,-0.18272243587901507,-0.19859491372409152,-0.3543020554451787
-0.07003168276239644,-0.09638961132057647,-0.09268072718332698,-0.05385771472346233,-0.12213044570919517,-0.1683011763490044,-0.19171471572554605,-0.3260617064051106
-0.06481766110554722,-0.09200709827076864,-0.09997437729382862,-0.06554843300335592,-0.1219891129041447,-0.17010954127473568,-0.181477447870611,-0.318155560824411
-0.05675488905776347,-0.10408785188486545,-0.09370506133069298,-0.0545968373295558,-0.11745545187883584,-0.18164817291530452,-0.19661980191632153,-0.32850285601878
-0.06643389070710794,-0.11077981005666541,-0.10219716434165388,-0.05280636057131759,-0.12199000285926494,-0.16438846721661737,-0.19616917964690886,-0.3563167313153301
-0.059097318263014516,-0.10785342676781269,-0.08970661251761824,-0.036486970425108074,-0.11705541152893488,-0.17097357985906958,-0.19480963261610432,-0.3213323499714905
-0.0612280615626686,-0.09842058182843476,-0.08565203488109137,-0.04595162344640053,-0.11861404623451036,-0.17541989115318937,-0.18296683576694767,-0.311299286131748
-0.06228035349467804,-0.10171696128703711,-0.09074292733195426,-0.04901451048953848,-0.11182718645810713,-0.16844176862052515,-0.19296489474477366,-0.3255221672416832
-0.06458010858118955,-0.11531659735082767,-0.099551712433439,-0.04857829240356058,-0.12522120262593825,-0.17407714789230688,-0.19293074829926063,-0.3390794976231211
-0.062013197319206875,-0.11435500325305141,-0.10248443970704794,-0.05323614651810462,-0.1239167093829538,-0.16350026620934735,-0.1801792435507648,-0.37479507854313043
-0.06877640192033405,-0.10865984710237428,-0.09250277577726665,-0.0390487438563195,-0.12471343763363757,-0.1687745381335075,-0.1784935947461912,-0.33717108701623394
-0.06640404549649073,-0.11808600378788169,-0.08952635355399852,-0.04688862987976673,-0.12007265354962074,-0.1839482472811982,-0.18575517114327855,-0.351441447175049
-0.06946364453030641,-0.11324451642635232,-0.09473959959079147,-0.042201826818894075,-0.1297098081285179,-0.1702894001964551,-0.18009074908819803,-0.3585895568155815
-0.07791886812651795,-0.13144948002968818,-0.09615169249515716,-0.041426766528932686,-0.12947041236845475,-0.1605692867599071,-0.1860533552012348,-0.36421707613711
-0.06743029980650196,-0.10801725133772296,-0.08862127810123874,-0.0418272577399448,-0.11871760809038621,-0.1763193443497467,-0.18597779008577317,-0.3283328520654742
-0.06409803534693152,-0.1207948973947032,-0.09308833038429361,-0.04087747069600101,-0.11606235059096734,-0.1735908952427948,-0.18737806864008139,-0.3564361992907345
-0.07702216960654161,-0.11879932884976516,-0.09370911002541771,-0.04038715656163907,-0.12694892173550198,-0.17365369152977853,-0.18757953818890832,-0.33814797828156484
-0.07411930174723796,-0.12120671353042362,-0.09819776366056295,-0.042049237516913196,-0.12111865310772216,-0.1647834785978218,-0.18207056538554628,-0.34284088090509185
-0.06437216494939814,-0.0970457883482991,-0.08588749935874901,-0.03083409102171681,-0.11803176877465345,-0.16470649273171603,-0.17823398631957066,-0.3296202659357745
-0.06538646368777445,-0.098213109785869,-0.08588651930450211,-0.04313524205620078,-0.12221258168055396,-0.1586752995166829,-0.17038771160686014,-0.33028741093463104
-0.07867700428935781,-0.1211359049834696,-0.10044515301402329,-0.043682458039621355,-0.12771063418099876,-0.1652313246629972,-0.16875966042783558,-0.33345890207124385
-0.07161690131415874,-0.1115570868555082,-0.08973306562738954,-0.03627797669464457,-0.11934589930545554,-0.1719850736154119,-0.17216623883621113,-0.33782944704716855
-0.06442453876691158,-0.09463105355056635,-0.0842672047515321,-0.04283887465933777,-0.11742336003115403,-0.16094659023615718,-0.18969522538688627,-0.31202837359451985
-0.06971627649066812,-0.10517549250387435,-0.0892766379583325,-0.04620776482935833,-0.11896401594936384,-0.16523797411716928,-0.18241559222509351,-0.3323453530956024
-0.0665203216714336,-0.11411189798513187,-0.10539988096545916,-0.0508793166892267,-0.13438721754394164,-0.16688569862757788,-0.18372977907618773,-0.3416324702695152
-0.066925791382101,-0.11163196469641719,-0.09770694081219215,-0.054664377406613666,-0.11647702694765748,-0.1663794610835115,-0.17725081773090207,-0.32253312976983634
-0.07136010104392475,-0.08475610725702169,-0.08911180546281289,-0.04586405947329764,-0.11617648141262296,-0.17468204361448844,-0.1936197426874527,-0.33688971327981415
-0.0706783451991534,-0.08687369527263906,-0.09640616901548116,-0.04818126369557031,-0.12919411231397424,-0.18300153197597743,-0.18898738421391909,-0.3347446052443535
-0.06183418308065332,-0.10511009899437296,-0.09920095961843926,-0.054181573941322295,-0.12003840827709653,-0.1797675173719145,-0.19461801073681043,-0.3357816745479174
-0.07640099881723521,-0.11951598496357473,-0.10044088444073784,-0.05527897214130441,-0.1157635155563346,-0.1758227421914038,-0.1901021888777837,-0.3517023908122656
-0.06150279536611393,-0.08790553371777621,-0.08716455743800891,-0.04136282243542386,-0.1210675702430425,-0.17197069033717693,-0.2105391920055074,-0.33122213302981507
-0.06177233017677043,-0.09327975540850714,-0.09119213008091737,-0.049226896376935135,-0.12247781086899895,-0.18828621891316855,-0.19242437480426738,-0.3095587803934299
-0.06991767733924642,-0.09532377226141128,-0.09758849622897955,-0.056861119977954226,-0.1286528291848522,-0.18384009274417545,-0.1995242402589931,-0.3386825263597383
-0.068354713275724,-0.11213858997300846,-0.1061698614756727,-0.06695693755412027,-0.1326937141950772,-0.18840861041111398,-0.22164168909161647,-0.3635086175534183
-0.06772136141351705,-0.10941569920164161,-0.10364784570831015,-0.06342668381099807,-0.12348252089894265,-0.18352085148736955,-0.20452677352080229,-0.34394968486608024
-0.060690684721323,-0.10172965542493123,-0.09462896616074916,-0.05395172035491269,-0.1313619094683865,-0.18597108622095723,-0.21277104328591323,-0.3283455532101682
-0.06722276935492588,-0.1046188326081796,-0.10550144472322605,-0.06361625130840261,-0.1294224794614025,-0.1902247666390973,-0.20735592703743302,-0.33275468721686896
-0.062446102474794055,-0.11390192244897185,-0.11144452896062428,-0.06107333352386645,-0.13400864825875453,-0.1814864029230469,-0.21118927082960431,-0.3639245645981922
-0.07527724955917664,-0.12955432522158203,-0.11621475763511303,-0.0770709236566997,-0.12562270577117876,-0.1869666361263803,-0.21547131601496639,-0.371085251632058
-0.06956382145766021,-0.11746019197201021,-0.10338723300612665,-0.061398705004242264,-0.12670166632690108,-0.18289407231618954,-0.20172710259274454,-0.37028573592033465
-0.07574878734410094,-0.10466921056479701,-0.11092571603577764,-0.0620493485083228,-0.13290548796824203,-0.18619209394289976,-0.1925133448077158,-0.342618857168053
-0.0773289345657003,-0.11346787244402108,-0.11716047037998802,-0.06363962641233065,-0.12721271182241617,-0.1857555104542746,-0.19410176595980286,-0.34741946058062495
-0.08551259345157149,-0.12100448062335269,-0.12312435208505626,-0.07638204208693734,-0.12614845936617894,-0.184525330955141,-0.19180212645239386,-0.3572656832457237
-0.07818796787450195,-0.13979586120371368,-0.11785375775437293,-0.07950599866924624,-0.12265954991620172,-0.1658170273025182,-0.1900307500249343,-0.36361618312896404
-0.07415606809255348,-0.11843799574037996,-0.11367364922630578,-0.07256797430952179,-0.13767250199553765,-0.17641558600609578,-0.17357538335999778,-0.33434848387252425
-0.07930136139803369,-0.1268709196873848,-0.12295678626269602,-0.07014882840871112,-0.12999147557194998,-0.18471026551289793,-0.1997643893700246,-0.3352044074650836
-0.08790747534543249,-0.131999997722329,-0.1305793522585565,-0.08203240102415994,-0.13312417950404867,-0.17708878680122123,-0.19883305772693893,-0.3499213213368624
-0.08027016063659857,-0.14342911716697831,-0.1293598717556119,-0.07702407198669393,-0.1320865984928068,-0.18847161209821903,-0.20129923678835307,-0.35565449118819414
-0.06949536768019803,-0.10495584853677419,-0.11722280262121855,-0.06931069624368433,-0.12068753139920435,-0.18940560539464843,-0.19658034360843377,-0.3361687623687881
-0.08306740986388472,-0.12508937136670628,-0.12758966723844425,-0.08297072205048625,-0.13346964891601457,-0.19109974756243356,-0.19641954373985349,-0.308133573308891
-0.08293330693181794,-0.13086719184389775,-0.12642551163719143,-0.08660871968905591,-0.1346502444721595,-0.18906145130636123,-0.20882445796660037,-0.3653235122616146
-0.0816196857536463,-0.14918574638757223,-0.13254198178668586,-0.08088378930369383,-0.13989808026048975,-0.1861233641533101,-0.2010614951689629,-0.3569928351913599
-0.08311548171281016,-0.11785974272512854,-0.12261843414856029,-0.07542546392233489,-0.13067906967756568,-0.18688048740898508,-0.20023771311050875,-0.33935567367322284
-0.07731045584424677,-0.10954481042504723,-0.12006897557603669,-0.0811634762144673,-0.12465632532107032,-0.1857770589778826,-0.19745236443850328,-0.3337307748138058
-0.077058738011627,-0.1259734084918364,-0.1274325790259987,-0.08254501192356273,-0.13376608256384012,-0.19659466195728487,-0.2158184730965688,-0.37215282430277846
-0.08643614018522607,-0.13925407203783413,-0.1357092678368577,-0.09416246851237488,-0.13426066006006745,-0.18693647332457697,-0.18896534563715747,-0.3566447991419384
-0.08169474525472653,-0.13039710944556762,-0.12194500261598705,-0.07538517040056092,-0.12409330848708869,-0.19590152048281878,-0.1979224299100634,-0.3208019556382458
-0.07588188872052935,-0.1234754628262018,-0.12517416594019942,-0.08731362596481079,-0.13850383425936233,-0.19984862450949512,-0.20781033004137178,-0.33647107782394564
-0.07969092948457,-0.12985828997454885,-0.12649690031252855,-0.07946469906118458,-0.1389147769933721,-0.18907854437980462,-0.22248408990543742,-0.3318798225795337
-0.08697679056161212,-0.1436120247912754,-0.13130554019885923,-0.08095481761570827,-0.1373166065226644,-0.19004426229342475,-0.2125207951322386,-0.3750438962969311
-0.08088842492610625,-0.14915965276880055,-0.1308944762832967,-0.07769836443399433,-0.12270333331427336,-0.19073003987576914,-0.20444763119267345,-0.344294124484086
-0.0774959119601607,-0.11757510712640827,-0.12061324306242507,-0.08053601151356707,-0.12715581062426792,-0.18546756265541892,-0.21981016861203032,-0.32483625719453463
-0.08277091539918358,-0.12388171499494856,-0.13130111594314287,-0.08889131282790928,-0.13181913026225361,-0.19399285304313826,-0.20337931335517714,-0.3307574488668957
-0.0747001545386412,-0.14346344817579942,-0.1335097220944878,-0.08820576915342127,-0.12617808958137908,-0.1967140026804168,-0.21435261747064221,-0.36147126022220755
-0.08166916156530012,-0.15922810249891134,-0.1289001213875951,-0.0949594643250882,-0.1357636117871567,-0.19116300022650182,-0.22807376704510546,-0.3465724910607873
-0.0866023547669299,-0.1330954921372451,-0.12647374133899486,-0.08970618567478161,-0.13354136341321804,-0.18943212746041982,-0.2101524782444724,-0.3430460439247493
-0.07424915881150906,-0.14868789990797063,-0.13482132875796565,-0.08862854140794624,-0.1405537184686229,-0.19391925846331576,-0.20956327810871356,-0.3348026528999335
-0.07748798114863792,-0.15349350311855034,-0.14094454007891377,-0.09346845808511446,-0.13639312857843508,-0.1890030357243843,-0.21120592919212403,-0.3521496201434226
-0.08653490991921887,-0.15846531354918397,-0.13471969790207936,-0.08580454305855013,-0.1355696523439557,-0.1870140211204828,-0.21167953904890932,-0.3611864974252562
-0.08690392263591477,-0.1380062924739032,-0.13227618936436092,-0.07902123528530819,-0.14506695846837275,-0.18877927976346837,-0.2055331664616548,-0.33037726431314307
-0.08099932768387788,-0.14072115209628558,-0.1351685303445105,-0.09954856967778526,-0.1283116265793284,-0.19583440038945035,-0.2109649247258956,-0.34347485400679784
-0.08444609579202929,-0.1558654141960982,-0.13823059641442212,-0.09762921212552604,-0.14379077779635113,-0.20061660207654894,-0.20701058382765958,-0.34556960543703114
-0.0867678720438607,-0.14922759611221276,-0.14321902923914723,-0.10453694638130283,-0.1345916395860592,-0.17296801947995485,-0.20450856599067216,-0.3345087102480613
-0.07819125037866885,-0.13588953607571116,-0.12896370759864023,-0.10320628936124257,-0.13962381381681038,-0.18860621497084198,-0.20441816530333445,-0.324225582623841
-0.08441570128776944,-0.13573716763463353,-0.139350255124269,-0.10137928445064762,-0.12848115574599706,-0.18727222824267614,-0.21157280640130277,-0.3610548883582011
-0.08103805224920745,-0.15192499638839024,-0.14348104146156887,-0.09683299219013822,-0.13146146546537849,-0.1876173793540652,-0.19556656388628282,-0.35275564948107585
-0.08175288754398503,-0.1312190060879081,-0.13642597492001007,-0.10706130995701288,-0.13020404696782525,-0.1798337022514735,-0.19278271739335595,-0.31271976136031227
-0.07914086084609552,-0.12087813503513936,-0.13485427341382142,-0.1057525600701494,-0.12637598485931154,-0.1846979620593859,-0.20670945263784765,-0.3225301011647571
-0.07949387390638289,-0.12199907346224916,-0.1401073805220555,-0.10625476855179918,-0.12606384321430208,-0.1912083488512744,-0.19736680397660294,-0.32040142599890814
-0.07076219638480219,-0.1503164648297583,-0.1500463706284498,-0.11611261487676833,-0.13263124861488304,-0.19288763780714843,-0.19102558504390993,-0.3347596274504289
-0.08142196885939804,-0.1315379345734157,-0.1363335310522488,-0.10314852550165718,-0.12268480272221348,-0.17272177114421322,-0.1764922200875168,-0.2954283253148934
-0.07279438797940824,-0.1120163690345105,-0.1392008412479006,-0.10583644185398512,-0.11919100976483024,-0.15738894643093876,-0.17211677353467683,-0.2803996286655889
-0.06826881378710913,-0.10699761976073313,-0.14235001061413077,-0.1014146008145668,-0.1249817835325524,-0.17234586304249028,-0.19492273235073893,-0.31791280702024444
-0.07443491980171094,-0.12124722661094177,-0.14303368960844184,-0.1164217636623985,-0.12228895153112097,-0.1678643102590647,-0.18225687804880103,-0.32588782877905953
-0.07236566506707445,-0.13311167122996315,-0.14709073883830062,-0.11598582207019263,-0.10865911865724266,-0.1662092990249961,-0.17748031718119123,-0.3212056212606542
-0.06827162510117613,-0.11098047371397961,-0.14191933363787645,-0.11521143221023715,-0.11281342358644374,-0.15628234012419556,-0.16642525475461828,-0.28732472899951683
-0.07348378389274157,-0.11195958794389708,-0.15149851819666815,-0.11569149289393982,-0.11522235421875249,-0.17908002721042152,-0.1888920705154377,-0.27959269504557693
-0.07967323527949145,-0.11936869631213608,-0.14997470124466974,-0.12395814352744616,-0.11741463501611187,-0.17714643930668397,-0.19446615728793754,-0.3200126900806847
-0.08528449706461873,-0.13700040624938956,-0.15232798360837102,-0.12490856098934139,-0.1259197456088302,-0.18962414963601779,-0.18725998551630935,-0.31643117026746903
-0.08489376679704069,-0.13454088191079094,-0.15642744122247867,-0.1286445874458986,-0.11727513011848831,-0.17936738268917887,-0.1897382666565124,-0.29960927665638637
-0.07549933321869565,-0.11097710792390764,-0.14675924424990372,-0.12437367757093541,-0.1170267846418949,-0.17160914929608145,-0.18457595023659806,-0.2965326670352119
-0.08494767882846432,-0.11758545251062462,-0.1463821713053791,-0.12225306410194878,-0.13004017527755624,-0.18362134181520587,-0.21137259941420267,-0.3104342154250656
-0.08579258663819367,-0.13127940835548615,-0.1538603405924276,-0.12552146785421184,-0.13268932699068212,-0.17391987179035023,-0.20043674255769448,-0.31830953655171373
-0.0875956062983739,-0.15112111394415143,-0.16164599555442077,-0.13048550890757663,-0.1192289025468535,-0.19205902995625787,-0.19896950295797522,-0.31985055514119315
-0.077515308843682,-0.14509258383657062,-0.157338638807422,-0.11491382308018629,-0.12462177015831062,-0.17632624117684703,-0.18997032788913026,-0.3195514320777767
-0.08470568775613477,-0.12559456713133765,-0.1488747337144546,-0.11995008910827704,-0.12976194102299668,-0.17982068197004977,-0.1954673338032189,-0.3080617810086016
-0.08709125587912067,-0.1405687960514272,-0.15674684254447346,-0.11990623948139648,-0.13232981328208798,-0.18720367764064666,-0.2045965540315846,-0.3236530410144939
-0.08796159646088814,-0.14258775217879258,-0.15789890653265473,-0.12021889860561405,-0.13535739706257238,-0.19991459420134688,-0.22176659898724016,-0.33666831354563426
-0.09820920646329907,-0.15589675450990803,-0.16368017151639355,-0.12619397839506158,-0.14598208907388785,-0.19557380768300087,-0.19345146025648274,-0.3514536832392275
-0.0855713197960996,-0.13213178762517552,-0.15287201460340924,-0.10613122092140001,-0.13589127285722272,-0.18778598959479742,-0.20453420968526972,-0.3311403215583189
-0.09150425946368133,-0.13876466345917962,-0.1455108563046401,-0.11331901904314857,-0.14280450777910927,-0.20326109685867272,-0.21530960991136763,-0.344189047490081
-0.0930200901814721,-0.14293372599025467,-0.14194451756155277,-0.10966012431479825,-0.1479142482786449,-0.21392348776541054,-0.22416010367527678,-0.3575301299148774
-0.09185819324059988,-0.15906541255035891,-0.15291024990678914,-0.10465599922674376,-0.15750467609747387,-0.2098377607358617,-0.22237804896081084,-0.3729273589325589
-0.08657259947948599,-0.14460021064396597,-0.1453377171756991,-0.09528600822683149,-0.15075371501497065,-0.20350369641294944,-0.2227283446833181,-0.38384681660078834
-0.08445278956984938,-0.1361361532290028,-0.13776338943578945,-0.0952762095374338,-0.14923442617658894,-0.20131434202434317,-0.20502613623817806,-0.334932426668809
-0.09060939515089965,-0.1484253058674122,-0.1433876593342895,-0.09570909943224815,-0.15120108641724314,-0.20172577401457598,-0.20996320315143346,-0.3635389334054922
-0.09951043045482601,-0.14024580711640483,-0.1429890410763758,-0.08605025157229573,-0.13944165562209285,-0.1899101048425289,-0.18817262431536416,-0.37222536713554083
-0.09679994903295337,-0.17116411617803887,-0.1411629589555836,-0.10046692180718593,-0.1418636691407916,-0.19184502575720144,-0.19195711901357265,-0.35568995355343513
-0.08620304787039564,-0.1356304520497575,-0.140425086538191,-0.08915376341076778,-0.14592772493599326,-0.19305281063922722,-0.2049291963661426,-0.36792211757314347
-0.09088061651045343,-0.14630972333910863,-0.14021725540930033,-0.09829805007490795,-0.1531959184501446,-0.20703721630364597,-0.21178899503210946,-0.3479877877023034
-0.0917452060257773,-0.1656753270318695,-0.13973126105178982,-0.09736684763144693,-0.15370413460710916,-0.2131678334347355,-0.21336210552206736,-0.3871941919688447
-0.09653165577634278,-0.1674344262863372,-0.15384411988850688,-0.09601927124879753,-0.14103975395766183,-0.21254993703067415,-0.22740534840245766,-0.3914973209896239
-0.08915327118916527,-0.14636574154709703,-0.13485097533556442,-0.08252660046538089,-0.14897174138864225,-0.19095754025974263,-0.19420989702660588,-0.37768882742933774
-0.08267926021296726,-0.13919082520753445,-0.1461327594288762,-0.08783315482164543,-0.14921168848729302,-0.20045736980735496,-0.21897822078802978,-0.34867057093021336
-0.09678292392969802,-0.1615064664636176,-0.1468693098274998,-0.09290311396101282,-0.1509561325979824,-0.18974990559052085,-0.2092760413483155,-0.36749007127181643
-0.09378831339714404,-0.1572098344971406,-0.15245931303520052,-0.09735213199665847,-0.15696490085093057,-0.19828180399558196,-0.21504899492587973,-0.3768806553415539
-0.09871898278531165,-0.15036481653095524,-0.15104053820353058,-0.10471634925331552,-0.15180673432636763,-0.1965441753349112,-0.19740262263941347,-0.3675935569673838
-0.09129559191342458,-0.15634964014981081,-0.15307648060433082,-0.09904124588119602,-0.16264560237585682,-0.20692919787200556,-0.2272258046123012,-0.3708182407532967
-0.09416565198392102,-0.16323432054867118,-0.15449468614925246,-0.08839877837648076,-0.16457742174196396,-0.20213704569098737,-0.2157629186188222,-0.3697247050385305
-0.0919136492357859,-0.1741870452470086,-0.1570302305293516,-0.10175382523080545,-0.15861849277879309,-0.2154065018979399,-0.23110285625566213,-0.40188315133888025
-0.09084425140858873,-0.15953222003291906,-0.14829019546941555,-0.09863243875144334,-0.13935833535446449,-0.20121711377359536,-0.23266795060802273,-0.38046329851505345
-0.09087105705475568,-0.1597158684957236,-0.15025185547566666,-0.0948595101118359,-0.1632884681299218,-0.21385118192261088,-0.2176321476162736,-0.3690548757620332
-0.08887221658914503,-0.16254847887660195,-0.15109368758510658,-0.11050291310060008,-0.16143873066387987,-0.22444663257429567,-0.2202534650367316,-0.396495072944244
-0.09177491034798582,-0.16708717055292463,-0.15117240865616874,-0.10080918834621427,-0.1620168622579182,-0.22480914241187533,-0.2374798669998752,-0.38802454121801744
-0.08292450893861036,-0.15139890704899558,-0.14532072837907273,-0.0961375650994037,-0.15176500778064742,-0.21500160244662986,-0.23616266819798767,-0.40044928657691065
-0.086565447321409,-0.1575152949506771,-0.14373545187411932,-0.09882950516273878,-0.17674691079480073,-0.2260420203455069,-0.24458788064248554,-0.3852866191955037
-0.08594089167416741,-0.16929273970167621,-0.15412685369351317,-0.10098297664036579,-0.1597569647985502,-0.23149164040041886,-0.24985557139282497,-0.40310434156470715
-0.08541972359949854,-0.15968218380652563,-0.1496157811331,-0.10061980603498474,-0.1621960234244727,-0.22879228065772195,-0.22796795714747337,-0.3809136299404605
-0.08332754820455436,-0.13682641554133199,-0.13696315593349365,-0.10055147439844535,-0.16104176270253284,-0.2222473318738912,-0.2507665412955117,-0.3861273670821257
-0.07642442549300082,-0.14807697279679985,-0.1500824622684784,-0.10277160358090519,-0.1681936967981748,-0.2274683721075839,-0.259051392326594,-0.39958587814298985
-0.08365909025421882,-0.15523481071913126,-0.1492205876262806,-0.10565391885599945,-0.1665770031714367,-0.23599699780957137,-0.25782618188200296,-0.39507984834675214
-0.09256282049364405,-0.14688748985234906,-0.14943453529766831,-0.11578617345607076,-0.17403913843472096,-0.23325067347636155,-0.26267134068029363,-0.39040771264358515
-0.08177810722297917,-0.1308068833820216,-0.14804377243324976,-0.10418737119053378,-0.16030833391148905,-0.24172368957299184,-0.26763455128788416,-0.3867235356496739
-0.07818342773774149,-0.12859140208896036,-0.14947133157058928,-0.1120577695647455,-0.160319037351093,-0.23202963428169757,-0.2674200760591587,-0.38976725900202047
-0.08164385536584459,-0.1502340128399493,-0.15387694731830714,-0.11851118853047196,-0.16248358958748763,-0.2215314143690271,-0.24766170194032242,-0.38001954767922397
-0.08365702894833466,-0.15925870419578772,-0.15071203502154895,-0.11360676087676552,-0.1503466883003125,-0.2204389266762121,-0.24878368378574625,-0.3928641459141184
-0.07791350445324807,-0.12120567822749535,-0.14981789661316572,-0.1297665824112823,-0.14106840413416968,-0.21712676473862827,-0.23646558926385017,-0.33467324565361417
-0.0848564054920871,-0.13384613884254404,-0.15888386082681893,-0.12807971410652724,-0.14911017138244284,-0.21427002395132635,-0.25043070500001086,-0.3389323525690771
-0.07764345795059005,-0.1419153479588838,-0.167718908889,-0.13223310869210939,-0.14143896887673538,-0.23413801172013693,-0.24483108789846858,-0.3505511034877514
-0.0770267477555313,-0.14760967935362276,-0.17012845133360216,-0.13762442129888042,-0.1569158833024701,-0.23723114740205092,-0.267066953793627,-0.36919455146328856
-0.07376927505196645,-0.13412926567668984,-0.16260713362726903,-0.13424691148255627,-0.15569537364658703,-0.22369276765570711,-0.2615942067663936,-0.363882995077839
-0.08296525575754492,-0.1315335402143874,-0.16704319250218566,-0.14165110029377223,-0.1424064562663033,-0.23286524676937848,-0.284018889807351,-0.35108663351803965
-0.07537241546875952,-0.1338950688267419,-0.17922656332468573,-0.13964543129404985,-0.14403709287509303,-0.22767568885542613,-0.25677785576042716,-0.35762114800537925
-0.0850954146993299,-0.1529720222217435,-0.16860237217234333,-0.15066750881497637,-0.155839679317942,-0.22928074584668545,-0.2522378220633001,-0.37263034448976384
-0.08756362636665659,-0.16864089880325742,-0.17327070336087724,-0.14323210330388467,-0.1362622739273078,-0.21205677931486233,-0.22772503530424273,-0.37923271452259916
-0.0889883562472392,-0.13517256752440748,-0.1687742504027193,-0.1406453593970962,-0.14438521584136074,-0.2242667331723857,-0.24014228257914558,-0.33655773843083464
-0.07883022977595099,-0.151211055919365,-0.17348393057150388,-0.13705943020784658,-0.14523968504019708,-0.23803921157734717,-0.2578431227085085,-0.35415386334599364
-0.09101246000840538,-0.1587855288966476,-0.1741595975901268,-0.14902364672029908,-0.15057098909292352,-0.23946147591815664,-0.25954033467751014,-0.3917337561999258
-0.0895558595381271,-0.17686793192184028,-0.1741511981265137,-0.13624561465484133,-0.15617678246764052,-0.217981403219353,-0.2743952364517642,-0.39040270954478706
-0.08772700092027934,-0.15494305906015882,-0.16686148391571448,-0.1430769905999212,-0.14965028828141458,-0.24135009466110371,-0.2686798126916207,-0.37182543512969124
