0.06222487963031433,0.25034894762447724,0.16284850009105978,0.1969794460900813,0.17625834744928182,0.17221951102960098,0.1410248825314382,1.385588294859301
0.11961714068559728,0.20640239593902154,0.23097683818360856,0.3126875123795962,0.24399990347642625,0.254108765411676,0.2229313429194992,1.3866922210759536
0.10661385371810968,0.21133067999856311,0.24359492499232122,0.320737345025861,0.19801872957888203,0.18720621230211187,0.17618091929378724,1.260974210131843
0.12390958271275608,0.19987053992207765,0.2425223972448719,0.3215990885694212,0.18256208458701245,0.15769244453342926,0.09386927692480189,1.2580861953709714
0.14961077698998781,0.20411956905562878,0.32212137129673535,0.4186695305481768,0.27208830217634405,0.245227156423531,0.1816448095041967,1.1563324144816407
0.19404922549405532,0.19373141449932646,0.3840212288535585,0.5178887541913795,0.27035676012140075,0.328735624168164,0.2712315568055935,1.2472847131398022
0.17783351036372588,0.22191189819940846,0.36611545615905977,0.5346144982389588,0.29702893326941865,0.3465848068548925,0.28677261270597953,1.1814820653770974
0.1515562810842565,0.20210893183038686,0.33843742644620756,0.49777209511257675,0.232629676364759,0.28443859163865953,0.23862190086368454,1.1884480291034007
0.19185102650376096,0.21212829938184102,0.4280289137380612,0.5723163436844216,0.28186812824205526,0.36178014213012294,0.3365696928005693,1.3018159931653892
0.19556592796098599,0.20537055917890526,0.42425656161388026,0.6069352382775868,0.31894075522990495,0.42135995622178335,0.38119500152405933,1.291580784031604
0.15631154051481858,0.1982492907216134,0.4075674988674001,0.5703322067845693,0.31331728307881845,0.37251056925595766,0.30837444542854864,1.2488095458121962
0.09992257245080713,0.18309098189563341,0.3480721510742609,0.5048923391905057,0.2534141128389131,0.30098058561400065,0.2429742816139731,1.198439905222838
0.1703849614090653,0.19335836858619398,0.40126689655691355,0.5711501154596923,0.3176306761405656,0.40178806029267305,0.3571424793418679,1.2242037067797362
0.132767349469862,0.17744370427269288,0.32649442397946626,0.45812685289190064,0.2706146833741416,0.3978907124390662,0.3640488995454485,1.1170544530519737
0.08454679869368306,0.17861231616593404,0.22225455585010995,0.33716277473646056,0.2327126425188048,0.3315609470854661,0.3282204165285412,1.2685944459275675
0.039098883475402905,0.16042858896855194,0.1437844994963527,0.22006046799159112,0.20648745642326644,0.29770861246452596,0.2901845513729888,1.0798445222343156
0.0765010134469005,0.1586884471108984,0.1836475669215915,0.2844189720861582,0.2894657340812402,0.39475805122862556,0.43937382053764096,1.1078940874196193
0.0561958159018147,0.14714736743125878,0.10558602909384512,0.17499852522858655,0.23733048074611054,0.3386593926942896,0.38055034917108205,1.1603229178338599
-0.018391506300704366,0.13666649161661767,0.011641085944605029,0.02714972388007704,0.2145595596611354,0.2924616507729314,0.31607702044246466,1.1757892652281476
0.0076891446772083955,0.12776376550020663,0.02218011859325876,0.0024468794521047,0.2048051044265491,0.3057015141175911,0.3250268429909564,1.1331262690303952
0.025263947536404926,0.16576290721526976,0.02253300482065787,0.03448325210277309,0.21030521479439718,0.3260580231792836,0.32659377437172277,1.1400818600674125
-0.03081242424967233,0.15140180737242587,-0.02188946277699684,-0.03073842369493271,0.16491029180463132,0.23459439650420855,0.23158350219081886,1.0489034275270197
-0.08484869030850115,0.13842577001973586,-0.08444677262225077,-0.10972497999641263,0.0902955963317894,0.15996455157487066,0.15144958647215856,1.038844484456092
-0.018200654859737837,0.17407065718327175,0.006366378051370927,-0.0016592245644060644,0.168435304668877,0.22641510655568586,0.2559685610936596,1.0035901359424724
-0.026916204610458305,0.1257622513374912,-0.023071137891124444,-0.024860934208010943,0.1464366535343022,0.2103520236315793,0.28555713251898585,1.0557783145891575
-0.08244346093797356,0.14341812500918208,-0.09326549133494423,-0.10359989749011742,0.06334353336608765,0.0943877522258918,0.08052911878372054,0.9269644782735557
-0.16349356072002116,0.1344895735698755,-0.15738379381982381,-0.19634982717545013,-0.06331070896065888,-0.06425331495744466,-0.1257266156047174,0.9234701422900328
-0.07295121998056167,0.15009182552561628,-0.05628726174197322,-0.03646161378821091,0.0030626692377965364,0.02067941591645467,0.011061122863992183,0.924691932524586
-0.04560941765224402,0.1301172431184493,-0.04743018935091124,-0.04609012473072528,0.06766588519112163,0.10416615794991624,0.07290799811005105,0.9098068788267771
-0.10796277482651141,0.14121728186448845,-0.1035716074532665,-0.08136212898822082,0.04360916988139276,0.08537285792965621,0.055639676098416004,1.007219047769424
-0.15915213745387372,0.13720444893520187,-0.15362322951290325,-0.18557545677642473,-0.021995067798557498,-0.008798517076262627,-0.013218383570361703,0.934000254313828
-0.07938408008697073,0.1369638214829365,-0.05954473503331534,-0.08306310817369003,0.0248505312718982,0.05292079656331182,0.05414594623196817,0.9849044429010989
-0.087975399860882,0.15950581452587073,-0.05509253355947333,-0.0861329987193599,0.01947710143068621,0.04883932952325339,0.06087290571222849,0.9950661217593009
-0.12173511788806399,0.13567565522233446,-0.10866068029084214,-0.14432927981293697,-0.007407658909348796,0.004145790001011375,0.01748844977585373,0.9502682384945482
-0.19686728090604277,0.10539963978188391,-0.2002129519249053,-0.24693204963461304,-0.05109215008585098,-0.05443460307944282,-0.09438237850937871,0.9296487628728968
-0.12416362618578727,0.1278772306259649,-0.10832905790374908,-0.11496229708174939,-0.05974180216749649,-0.09130968849130719,-0.07974920207188323,0.8171582544760714
-0.11264520341861112,0.13946905200886994,-0.08699856434941805,-0.10796785939150678,-0.020687374862931658,-0.037947249789169045,-0.058556611138270084,0.8403981118019854
-0.15907500305145922,0.13635436318568572,-0.12763291820513276,-0.14758224165519737,-0.08531986978154837,-0.12532351031176736,-0.136985402292517,0.8712049993331922
-0.2410099202076813,0.12945878686403103,-0.2130702333484884,-0.25420658936570867,-0.170247831758133,-0.2092129495902838,-0.2327366978429357,0.9111416491148151
-0.1430970234412276,0.12690742947600026,-0.09656630594516853,-0.10248150119924433,-0.0860013578686714,-0.14335760701147945,-0.15262901848700106,0.8881964376266785
-0.1425496780078943,0.1307720847001435,-0.10353613029660311,-0.12607229166701112,-0.09334263556259945,-0.10542756651377275,-0.1493243908280037,0.9384279746533367
-0.19049062133608918,0.1270280058554068,-0.15469006172864153,-0.16041447503111073,-0.12905055352966324,-0.1728302216169355,-0.18468585037914964,0.9423926882409956
-0.24167532434751765,0.12113309079591789,-0.19246886753713147,-0.2127054713356808,-0.20090379321892846,-0.26312409861924146,-0.2571125314397711,0.9133551247175512
-0.1192924518667002,0.14821219911219546,-0.04740539337659994,-0.05998256936426251,-0.1314195851078084,-0.1539542680667968,-0.17855431574826877,0.8544190249826595
-0.16672538190630776,0.1195004255646495,-0.11654523693563155,-0.0989419382514062,-0.1718697332083001,-0.20093619656095565,-0.2304525652002992,0.8473178933140342
-0.22774697852480652,0.11729357275955138,-0.157768279308025,-0.13714392704881923,-0.17713234929905958,-0.26782485514928556,-0.2837387197200322,0.970746595441313
-0.17840337667572326,0.12285512232548171,-0.07635191486741312,-0.0697384179061171,-0.14399270391356433,-0.22909284394374724,-0.2726573061790747,0.8729753901042097
-0.12102829119702727,0.14385348507850787,-0.04267628338177755,-0.003226902880460125,-0.13990418734686727,-0.1704881786144721,-0.22191631976339254,0.9123451311906032
-0.1342104817342093,0.1485393341868977,-0.07001484682932975,-0.029692589881636942,-0.14669594085904547,-0.198215415408101,-0.25517784851575487,0.9256061643415757
-0.1685930597864811,0.15287848054894815,-0.08489473013831375,-0.04670852696865528,-0.18325481247133665,-0.2373917403881927,-0.24911067206255422,0.9742054363237043
-0.05368382647396218,0.16460101039968617,0.0677924726158341,0.12165228589796327,-0.06989517198441994,-0.11198728919082146,-0.121074925903544,0.9073499854818406
-0.07487665621136146,0.1677069576922446,0.04153761289782241,0.09134126715587929,-0.08339946829442993,-0.14031955764674378,-0.17547698763455277,0.9623137815257159
-0.1174379022135615,0.15854758630978097,0.003639036358325631,0.05157322712934859,-0.10087879007635878,-0.1680428061852185,-0.21417201357690402,0.924708014951795
-0.03795424379983703,0.16472497259334146,0.0999037101059487,0.1735614655222643,-0.0534674369942597,-0.11772118972732395,-0.13159169732545248,0.9694105752247166
0.01790784237176493,0.16353312489722305,0.17353442093460594,0.21825650059593352,0.010041131177051221,-0.023813242193292776,-0.06171485240803335,0.9323844230545105
-0.014096051297434787,0.18507645095066333,0.1594536653965858,0.2095099616247145,-0.018612566158653122,-0.05569654021901775,-0.09424404916223883,0.9355997397198131
-0.05625733720903686,0.18959634221999877,0.1183188106705689,0.16205180088305846,-0.07736258805591635,-0.11894496051210303,-0.15736166342105373,0.9198459072255034
0.057459327745264695,0.19206848018549566,0.2799869604969049,0.349696824683982,0.030216488606258578,0.03230918075671648,-0.006388033760052335,0.9805207877874516
0.05333882357208353,0.18249451004997566,0.3037437473623887,0.3528514753062938,0.07131064107094925,0.05317189427492494,0.02036799630490541,0.9909832053195999
0.030390040627155373,0.20775475868827986,0.24579890262744028,0.32711369607752044,0.03168530452909365,0.007079137904541455,-0.026113028942952532,1.0413473548272048
0.0015660801458504802,0.17711636743841103,0.24002700597577825,0.29322391127281094,0.006932069760401904,-0.04514990961800721,-0.031339260875344076,1.0284862296118793
0.12424588649214391,0.21481532617087523,0.37695120035329,0.46833699573532533,0.09754740766197581,0.07238589788826835,0.04656899244539921,0.9664845267862764
0.11835446965557238,0.20895970503992262,0.3640207896029165,0.4452798798601428,0.09210615848413989,0.05465488446214185,0.04430564457953156,1.0276460311219895
0.06008054500952634,0.183812186844735,0.3068427304042869,0.40200927949019094,0.05012274444673687,0.017860963119120114,-0.02297246568245822,0.9924709458439429
0.028124558570210966,0.1876987513555607,0.26949629422434984,0.36505724985933435,-0.01115021158098455,-0.06507397821755873,-0.0868275301132377,0.9764320054956712
0.13480623006704623,0.2104682708590879,0.42516235077648673,0.5247166652913149,0.10028096309493585,0.08967528295745301,0.05216857135483864,1.0205750169434662
0.10444605911262521,0.22428598658318186,0.4051706478441359,0.4925995846047926,0.05117130477537632,0.05190478525236476,-0.011591166863522212,0.9724904383087123
0.0734248436378912,0.20534926246973986,0.3667780164082609,0.4392972119799267,0.03131654327085315,-0.028968889390073,-0.05375344119957885,1.0181994040292641
0.01307973694221406,0.17694367688575383,0.2699255882023601,0.4022054517804139,-0.03441475220709105,-0.061436143607581886,-0.15688514195331138,0.9276467672032885
0.12854421915968955,0.21073109935077364,0.43926590913498476,0.5434172795829721,0.0677792165910861,0.04928484878479488,-0.018467479581400187,0.9287884998378759
0.08715049775228885,0.19831967763804256,0.39235446823384357,0.5059620265931302,0.03984114828310836,-0.017967598603368655,-0.04700726580217289,1.0581675218108986
0.05238017599319832,0.20266939722530405,0.33929519937698804,0.4697014063638353,-0.04118553226222964,-0.08684356155393522,-0.1722296667228113,0.9709235774741238
-0.014783588428185125,0.17576274174981907,0.28439557233693935,0.4289157154040973,-0.0921915243290746,-0.16200642165819712,-0.23350109757327214,0.9851774028722619
0.10954617367116132,0.20246261397238527,0.42332407395269817,0.5774489855027765,0.010225930200373694,-0.07293606750691109,-0.08012189940692027,0.9093092895964581
0.06090723434146494,0.17959943441596887,0.3712497697072106,0.5197342017743477,-0.02154434307841748,-0.08326065324558243,-0.16009743778647897,0.970310650271992
0.008483139889344866,0.1510890895674081,0.32905052821107916,0.46840148575610685,-0.06568108305374412,-0.1350066003344667,-0.2107627059628664,0.9540813193914823
0.012730383722818525,0.14429597593588692,0.3584532858137387,0.48506833758780127,-0.05941644323279675,-0.13959313053756267,-0.19001689989003334,0.9921591628854671
0.055943675271727666,0.16150257795876102,0.4357059858280072,0.571557671086324,-0.025680807023653596,-0.0737170023373446,-0.1172630842360326,0.974984001402835
0.05008375919040828,0.14792472412308313,0.3925052651918853,0.5384417415864485,-0.026963602504512747,-0.08131495307190317,-0.15310623233746323,0.9926227891347781
-0.027047467395376605,0.1479981451598496,0.3036238850793842,0.4605001763336036,-0.07537732113337955,-0.1487184079153566,-0.22232448926471282,1.0225661667011483
0.0943745375901475,0.15285923935673298,0.45729418609979433,0.5973237400251789,-0.008369379223611837,-0.05041975602257717,-0.08607365389844647,1.015691836862701
0.08964484029223387,0.16386614454983267,0.44960207376396955,0.6150743742401978,0.007574349315407729,-0.02737356182852957,-0.10222149489412588,1.0050053125243041
0.04832516696299194,0.1633485693790838,0.39984167375548657,0.5468347697921976,0.015635200152141464,-0.032674061140570115,-0.10030578121800537,1.0130479041014893
0.02738046569419112,0.13004277347451465,0.3869126514690108,0.5347328155658244,-0.015696586526672537,-0.06245752631217254,-0.08936135004408009,1.0224690617516714
0.12346262915960268,0.16116041590228683,0.5147083977397277,0.6652220615041412,0.10796279391490078,0.0700946823242393,0.06575133004590863,1.099017288342374
0.12071661486093939,0.1657230944733602,0.4780989074190465,0.6442824959039292,0.097151186596436,0.06737656351691525,0.01227266032111625,1.1143299941322045
0.07797585593285292,0.1544818118356497,0.39939049962799367,0.5668207180581657,0.06351883290429959,0.026943154834180763,-0.06874121686042182,1.103171299662327
0.10392290637266674,0.15933682656036868,0.4464051978666712,0.5977118584211658,0.0755736113168525,0.031853921621789225,-0.045009051095932395,1.149770931337579
0.15871473473632136,0.1831863192804067,0.530444379102518,0.7169283541504136,0.16201640387437938,0.1720813771395553,0.09389044578246099,1.2231462800271617
0.15573290648599172,0.19207710209731915,0.5092310183945992,0.69920380732186,0.18060925409052614,0.16681274708746793,0.11007248051360834,1.2737312983126785
0.11910384169459826,0.18373683618200803,0.45690936828864126,0.6250814049181235,0.16322240420142334,0.1446140981848868,0.056744184629993366,1.2399473213170669
0.1585668644409614,0.1469465676320454,0.5200917572357334,0.6980321304536444,0.17161928643976881,0.15345320853410965,0.0728858914892872,1.1527035247171469
0.17096060610626157,0.18168117209383744,0.5467093119163474,0.7344633450354462,0.2239794724483485,0.2273692253595634,0.1355246350883244,1.1446118176330666
0.08735342252502806,0.19478789615316322,0.47710057873760947,0.6383133810132181,0.22721716524311916,0.22912241797410796,0.16436033608316508,1.0855870150397289
0.04905410391097981,0.19172602998712518,0.37306236842457907,0.5370388702346494,0.15431704567440327,0.15584079443420876,0.07412896443167138,1.0863889491214165
0.13469617522981436,0.2095092937923297,0.4741931170315979,0.659055888436752,0.23601972705017413,0.2585443550582385,0.1869264324219328,1.0921629110309599
0.13780615102402768,0.24421369858025438,0.46011906652699275,0.6620699463102326,0.23754618926334573,0.23755359653422065,0.16947375820053734,1.025159407552853
0.11840423437894633,0.2031702858568063,0.44646909107523564,0.6405832820209006,0.18169324854359067,0.20243956110689104,0.09895871196301465,1.0328585276752835
0.06512103988839239,0.19455432138679973,0.40688367908490713,0.5727290361114772,0.15219241746174417,0.10376865240120382,-0.01403140161784773,0.9753337508688806
0.16649597588870974,0.2283601781160544,0.5264399132305201,0.6985968463655268,0.2197118123881957,0.2256744316722504,0.148640749211003,1.115723041914109
0.15577250856257813,0.2181170192364841,0.4908542476695034,0.6766079335449954,0.2306937054406917,0.24646409604792657,0.15322481979595426,1.044641945733356
0.1105758394397031,0.21868995886161047,0.4427613927195972,0.6291478600584491,0.16023047432267237,0.18134677858555262,0.06957559604027562,1.1049634381956752
0.08006692819912893,0.18344439468223114,0.41282645612976077,0.5737583539030225,0.12795936044783676,0.0873454938234761,0.016515509003670895,1.0787629575244715
0.13708819966659216,0.23171505540001758,0.5224708399065312,0.6936267604304284,0.20948063262752045,0.2153936258631205,0.13488239418351264,1.0055408676452764
0.10589267660159789,0.23810751353574655,0.4773028414906077,0.645139096734114,0.17500873333300493,0.1731274970523315,0.09528015535708739,0.9503843994574492
0.05941611876397282,0.19958932836035476,0.4222275088320258,0.5830854563023509,0.11205770286456006,0.11474072563556847,0.024765570160950677,0.9487500855271869
0.08489576779271837,0.23949730302083488,0.4537221107153949,0.6279498041034094,0.14206495730046448,0.1529631808867225,0.10375276005763451,1.081123673113721
0.09701521513999423,0.21023515869925233,0.48011959111475744,0.6539034862151423,0.18724956832437312,0.20023509284991078,0.1697316683176421,1.0553780382766833
0.07642890564477763,0.21963701569404812,0.45655070468532777,0.6200847593261954,0.15358500347574325,0.18821797449194025,0.10645023315033902,0.9996711809778234
0.02597136319218598,0.2126990714228475,0.392843790625077,0.5599168272772588,0.13160673390751892,0.10936016277754063,0.04990501443960973,1.093496854308701
0.12063750317996122,0.23859303963106904,0.4956564413513319,0.6397036618729353,0.19612039872674508,0.24331428723641924,0.19341603056881082,1.0149433358329873
0.08660469695999651,0.22850468149715172,0.4697404218306671,0.617633849671668,0.17916478394547064,0.21698517899656505,0.19477115173456683,1.0539584091622047
0.05353049734102943,0.221855285657524,0.4222186794221467,0.586176232198296,0.12779224249612603,0.16181256217485812,0.1278599922729182,1.0159534916385746
0.04888669866293928,0.24877410241530112,0.43472551630449274,0.5801537111479665,0.12977440499357135,0.20412759856025164,0.12014735601177046,1.015638723275623
0.10343240219598451,0.2203759074286819,0.49036268271233485,0.669781801188996,0.19350049714028716,0.28034803271513775,0.2452105411788293,1.160778857367027
0.07247011569981979,0.19727169412482898,0.45998947672137735,0.6380709791034194,0.17112566020584546,0.26376677569030393,0.2226944951704849,1.1382015471732603
0.028650316129083767,0.19612791023408094,0.3956390323998123,0.5432113723863287,0.13730915659681214,0.1908630964371536,0.14756822946992762,1.1045461558713419
0.04723717270837076,0.20134072190846058,0.4208881548789105,0.5879398826473122,0.17814553215296733,0.2524108637779413,0.230870364029453,1.1255518313052066
0.0802510580641713,0.18904382611680617,0.4349359078265601,0.6178423821364066,0.24597290257770918,0.34699860644623404,0.32595772982166493,1.1043182751543141
0.06484237115364401,0.19741785128310502,0.396279558403654,0.5816693450508257,0.2346447447877023,0.3080025586907988,0.25277714512776284,1.1650153212257512
0.042621561356982356,0.17577332242963212,0.3185567676556453,0.48872906068371225,0.1803405182070772,0.2129133570602899,0.22358204820079006,1.1224177269073894
0.011344797015987517,0.16975916417120812,0.3073971531526463,0.4628870203785705,0.13309846946518902,0.16920394413937567,0.12902663151299637,1.0897612210169236
0.087455642597712,0.17617219374546186,0.39541518764565625,0.5777295334649964,0.19030587286775466,0.30040831893347386,0.2884385558774078,1.1279920626099362
0.08375306913891298,0.17641406927058556,0.3822156939163171,0.5412474090526712,0.17829977045515868,0.2519555523138081,0.21887113493329388,1.126197254241841
0.032121733071939045,0.17615522385482618,0.3292280744613369,0.4997653942181135,0.10914315360515738,0.155148075852851,0.12475386654959777,1.1556147398638545
-0.004281516404799882,0.1589783667603144,0.2628506196786626,0.4342805759633065,0.06555756692786012,0.09585573261735315,0.046203747035339374,1.0322676561780797
0.03391519702805704,0.1748312101747051,0.3345863578179293,0.4892314141134638,0.06859125721641314,0.08294945957676401,0.07436340063287263,1.2233616184078668
0.0844948412533204,0.17829749622437813,0.3817184374916831,0.5607249963644326,0.15107473803126628,0.17376741546530694,0.182555236973161,1.1662274873059333
0.05913056184324796,0.17827804546051354,0.3454620611545472,0.5201713700758003,0.11017502225930542,0.14308802609187138,0.09595794145002322,1.1196289988092216
0.013751324641146409,0.15903309389342363,0.3231462776337737,0.465070212294053,0.052450320406504734,0.04662228370103251,0.005185635430464186,1.1177791606241865
-0.007811940114004337,0.13746787112094766,0.25889428945661774,0.3987856885108284,0.018259571707313037,-0.0241057125005947,-0.05970964290960017,1.0797409717692434
0.03385698181763462,0.1868578047635151,0.36402425152802015,0.5186981555945434,0.06601207611428261,0.07798883168703404,0.08593713378869304,1.0371119234051625
0.041503569109724935,0.1714406008206361,0.3677674979222463,0.5079287721694474,0.07005065482581639,0.07796568702872686,0.06552006074219224,1.0090015786452295
0.016712161549869296,0.16448160717499294,0.3329981766944295,0.47849210237453327,0.04496682239664817,0.021184615647341233,-0.017249146308831956,1.0740132782182736
-0.018249355019207797,0.1745740758009257,0.2633748120308828,0.408775001829592,-0.004788634112250681,-0.028474212780504195,-0.08678566696336713,1.1254491459053215
0.0470139652062795,0.1676993842654625,0.381430170993837,0.5091472671729195,0.0433736608037463,0.04815559648308194,-0.031070299845331766,1.0613817114973334
0.042684427586085996,0.18603790545324186,0.3670675616172997,0.5380521589269639,0.05019801121618303,0.032567963229650734,0.019001172448969872,1.044636094489633
0.028356877480454238,0.18458238618670977,0.348598474690163,0.4979522784977737,0.03625898130176053,-0.0036766606827267,-0.05996957018755587,1.0655220774712653
-0.008802761321378126,0.1568579356382796,0.28838933756362484,0.42157280688449866,-0.04301333374819162,-0.07384255753380507,-0.12489220356387692,0.9459347923318224
0.06650039603522606,0.18059980294553646,0.39131803992299874,0.5389312968664618,0.0283684479069465,0.004138397952445858,-0.0027943656255961374,0.9321926574340285
0.06721615860441037,0.2136746619458213,0.4014318573492899,0.5633828199216697,0.055300151758182585,0.058565745154743346,0.012023238439076357,0.9999598300287417
0.04615561645591747,0.18436051086018912,0.3525163091550797,0.5291608543276074,0.006265305973887565,0.030753657768484863,-0.03072570185589067,1.0031499347387285
-0.0014376279108057888,0.18712427552502275,0.3269402562496419,0.45091821471266597,-0.0241200975964922,-0.07778872711793383,-0.1264835031891831,0.9579399760799918
0.0596408870966736,0.15992890290606593,0.40319293196429545,0.559212262816498,-0.00452119211126401,6.545735266664243E-4,-0.046872181650775335,0.8823539700027226
0.08706703847952167,0.17628574846065032,0.4502948699888002,0.5905808293485821,0.062189504219609726,0.08298308352823144,0.031058735190582026,1.046924579725385
0.05484183749641212,0.19398997196769846,0.38283195286301086,0.5470259518539735,0.07075571114139448,0.017331032067085923,0.013595239392989577,0.9872971051648377
0.01844404751684845,0.15789129256961248,0.3215376222591079,0.4673972006352306,0.01294648251274868,-0.002145590718050601,-0.06871178051686572,1.0213018956439157
0.023429187745288765,0.18312665196778205,0.3329796196511892,0.48395503017988506,-0.006259757660320191,0.009347963037159124,-0.03092420462020968,1.0355748441835813
0.08426045503219405,0.2012393036694859,0.39985562357807297,0.5557214756690547,0.07620409062025787,0.10806929835184423,0.0793978428541917,1.0138254376105418
0.0675127795614204,0.18404618968847902,0.35655788027211005,0.5014937516147706,0.039455434796677284,0.02356464933649621,0.030797806772659475,1.0256547788401553
0.017279332601751386,0.17198673827821487,0.3003701004078473,0.44468702297878265,-0.0033653905112679106,0.0015924693032906018,-0.05379605056769078,1.024560854825267
0.007510979072499029,0.1701405021487956,0.3033014169702663,0.43913349153485304,-0.030492064936812266,-0.040904453239630864,-0.08977326384400634,1.0518636980822498
0.06160916097739187,0.18351800387981126,0.38213662613731875,0.5402718579915813,0.03580675118193348,0.07136530145528858,0.04216510525505203,1.0493667744638422
0.04283299530289719,0.184032726324235,0.34496024962399874,0.503049297049269,0.011361824400841498,0.018739566594247716,0.004988043118918466,1.0592059537736318
-0.010415106535901317,0.19545735368539802,0.30557365440932815,0.4465857266574382,-0.0023549653431092048,-0.025520226469707794,-0.08046131295557928,0.9694707674628602
-0.002215095828812956,0.1759932262302657,0.3070147301454999,0.4476497683080717,-7.079080452583944E-4,-0.03461187443531134,-0.07962478520567157,1.1809945335861958
0.06559205859447327,0.1972002675451639,0.3998760881893836,0.5240808209525629,0.04184709679250782,0.04065099350977778,0.008438907203778968,0.9532061514896346
0.03173514505186481,0.1840220267446448,0.3650482115028466,0.49509457079496616,0.006021633389523427,0.0029190018633000717,-0.019855916210919016,1.0622748148447738
-0.019720892407620053,0.15950739594050822,0.28408404840228896,0.44035332497483115,-0.021256875292235924,-0.06274808293917145,-0.07949489772711901,1.0550319736596965
0.013984315256599801,0.1714607503356471,0.3551884475147467,0.47204633295582565,-0.003278241550235153,4.474461394529892E-4,-0.06889405622807038,1.0650402460248865
0.06086772896335853,0.16582388446942098,0.3964582048312948,0.5412482921543541,0.03798567988410748,0.07189763938421302,0.050364576732813346,1.0581110857098277
0.041729590572059536,0.1868973289399477,0.3663467961231675,0.4952396968021055,0.03524764494941905,0.029801154768771956,-0.020672689117177685,1.08300619984393
-0.0033359176990809675,0.16212032925320005,0.31915051499139224,0.43434020751390146,-0.007906900971041004,-0.03632962242229091,-0.08774575078797131,1.0064340562089789
0.020935710017701985,0.1941877977474386,0.32627549027970193,0.47897258546025656,0.004103132693649239,-0.028105455983204047,-0.06676493536262215,1.0632067714122675
0.08013346162185894,0.16576578508393383,0.4034800648461941,0.5585746332539628,0.06972572090499114,0.09196780073985841,0.037327415609853906,1.0268747227988855
0.05465943513557273,0.18423691473153686,0.3939731638227135,0.5158864399230749,0.03518042236179911,0.05951344576227994,-0.002230412879064038,1.0291656754191514
-0.0076221211558265885,0.1603355815407188,0.3280090427296028,0.4468884512878167,-0.013242072776261585,-0.004641910661688677,-0.08057883875887378,1.0472098399755834
-0.006155946264316897,0.15768116144777178,0.27710514186944724,0.4174447839658664,-0.04298856297906323,-0.07420490491664461,-0.12369747241587796,0.9259155252546722
0.07257291823123273,0.17706507285450124,0.4031271811546239,0.5318996523279561,0.08900296713938435,0.08041635951795066,0.05707122679487614,1.0816140288606966
0.050512466191276466,0.18668991768931406,0.3731017405579754,0.5087323274619543,0.05972403481215947,0.06674569414457059,0.026890651122497083,1.0204961501044454
0.022898290550805278,0.15048509080515388,0.3219536440137689,0.458525689109914,0.02431609764129148,-0.014577302706232044,-0.08644251227839644,1.0328999968684793
-0.024177723714549855,0.14865023078078066,0.2625605372722669,0.38315610099910613,-0.05845520572135096,-0.08334297523835704,-0.1529696606481651,1.0139237646056574
0.025129157252406546,0.16367771535182352,0.3178496939033289,0.46252076014487115,-0.018487459856266358,-0.051388489026865596,-0.10663187277516262,0.9725383846461519
0.04696900596607681,0.15225086576467603,0.3495310246850816,0.4945713887631917,0.02579770455858956,0.024972818166576087,-0.01388826508334557,1.0150639080008004
0.03156646796208083,0.18919073904140937,0.3402206754312993,0.48165504332868514,0.005675902207817883,-0.0026263415936973473,-0.08984285836899016,1.0145363018089841
-0.029964948405294976,0.1526798254362639,0.2745934526382964,0.39875394136484077,-0.04568752604366902,-0.07362347101310909,-0.14494718695305733,0.935107763295831
-0.013774377011245793,0.14325593248153762,0.27350449470737254,0.37948871740563167,-0.05290782059870272,-0.11414075931799847,-0.16896167482053182,1.018743063272479
0.05311787228453309,0.1819793997698922,0.3453032631683411,0.48316735536353794,0.015011122198874143,-0.030548477390411506,-0.03365970593646164,0.9588236015200073
0.014832181582585584,0.16952112270349096,0.3141902911521539,0.44529480675516286,-0.011165321810534909,-0.028559582848311074,-0.06702892701430316,0.9297533731264038
-0.023744140467602377,0.166737122825842,0.28164310885776384,0.4014898922923786,-0.062114819070441876,-0.09311975974542369,-0.11492187977146537,1.0192458209469133
-0.03633597625256441,0.1590493179580918,0.2575994610731718,0.3836683228545685,-0.07572455007562554,-0.1110273466974141,-0.1795718676357304,0.9750200900378814
0.031101419976863064,0.17210165311160036,0.3274297809420741,0.4937155992024142,0.023099726295114354,-0.020746496763530815,-0.016639990640476526,0.9580972353647029
0.015908518219611877,0.16076742168565572,0.3275223642986728,0.44549673471526036,-0.02788094206665268,-0.04006370790601763,-0.10335665826032409,1.0279495463105701
-0.026279161580022074,0.18652540768545764,0.2923460754982358,0.39973009080772953,-0.05042613980100075,-0.10962969694172205,-0.17425470050062408,0.8710209695287634
-0.02705938983894997,0.14768253228518122,0.267795775225885,0.4087230848028955,-0.05237259882666798,-0.10158565061055225,-0.16366749146694803,0.952523635432899
0.05371636215797477,0.15589871488389898,0.3790527803934911,0.5121577578523103,0.02329293370940163,0.015315112794399347,-0.03799028654085884,0.978350189616972
0.023602381791430767,0.16594081532092037,0.37270054099832134,0.4970633273433413,-0.016106733310111192,-0.0013804182299576775,-0.0687490170474735,0.9457264743198625
-0.007947969619196648,0.19048371300336694,0.29832308971078575,0.46140236743805163,-0.030428387962078626,-0.05461042103732355,-0.1602955620910986,0.9731933825247299
-0.00871655631526813,0.16687149625367562,0.3017130613646339,0.445898784617048,-0.07140881380075799,-0.08513759207039961,-0.15873591567172016,0.9856753802221301
0.08676288946867085,0.1584993700680372,0.40794288789417377,0.5662567483887386,0.01912898744035348,0.03831421901059408,0.0045035648586109365,1.0177274594104966
0.06700395046954391,0.15813085108501576,0.4161141817306463,0.5521731865595737,0.025843823036723123,0.0197749000035274,-0.05233008024888783,0.9601554719086622
0.04156435636092268,0.19101422204369417,0.36130503033621597,0.5007179823335863,0.0011785974234194661,-0.035048541267187656,-0.137428446470072,1.017870026128538
0.002067906417690276,0.17436889091696695,0.30407224927288706,0.47524140637158796,-0.05831729473685773,-0.09873906770322972,-0.15241106730395373,0.9645352273485072
0.07477007958734153,0.17364302781225546,0.44546093693492106,0.5923908101450355,0.0751120384658795,0.04903350141859325,0.013792610803307837,0.9392769935681506
0.06768544451149912,0.18268394779660935,0.43050948034688824,0.5775603835412936,0.03885955123117049,0.04590020945611215,0.009456737884489448,0.9506841817162448
0.04123550679134863,0.15292797773292016,0.4071426425439094,0.5463645747375829,-0.002321377327763649,0.010443440466730472,-0.07548462902620562,0.9790846695515858
9.363908142584754E-4,0.16539691391620748,0.33840500441646004,0.47762533848023336,-0.057933700098001945,-0.08759844739360045,-0.14242427449377282,0.898698311222629
0.08544446900662905,0.17505932381242373,0.42423278541269116,0.6056971932079772,0.02963336880558181,0.023783881131813227,-0.048081431951894134,0.9529378020507638
0.06380273244149368,0.19485656171904653,0.4469087841076339,0.5822831939625712,0.049494150940834744,0.05474470453204755,-0.00794905069692512,1.0331497245781798
0.05094734617440412,0.18400321840427286,0.39521685730475814,0.5361585622105418,0.014654873660483795,0.017518017492582656,-0.053681155698509724,1.0171037340554325
-0.014437215142745726,0.1721612059534409,0.32298711699578264,0.46394978469669823,-0.01697377654617596,-0.04471894387152532,-0.09535810516454633,0.8988362689757554
0.07086635119251268,0.19190329619344995,0.39944216795270227,0.5496024964578711,0.03183050498842035,0.0450084481860906,0.020457827879714303,0.9605121915128115
0.06052493769976174,0.1884513144718717,0.3952600025929875,0.5367962494181435,0.024540604120050484,0.07409575442375982,0.008958519518465529,0.9882058734153822
0.02720669543699401,0.14386143933216555,0.35249154903555313,0.4719750127924998,0.013462739075421344,0.04633783188135053,-0.026574519155537137,1.0344219552063625
-0.01008027517715977,0.16537126743272407,0.2911828110683394,0.44017435650316306,4.920406112710399E-4,-0.012337074356094867,-0.05360134552657777,1.077807693395576
0.06042944813424193,0.17647213672254652,0.3649060656739733,0.5372373777513466,0.06301738061325472,0.12108800766677325,0.08920470311652232,0.9752146924908047
0.039298658739620865,0.1644580555523576,0.3424545323974462,0.5016833289599336,0.05414935963066425,0.09857465322636208,0.037779501325145494,0.9360787085977453
-1.8941527590317364E-4,0.18123129114631614,0.30983843008890816,0.4611922072780919,-0.00521390415252412,0.022930766660928352,-0.043788728952610836,1.0387803588730775
0.0030470027688810075,0.14512317334558578,0.3205516256913519,0.46227682638366385,-7.230008822647106E-4,0.004454972418703246,-0.0586347191972592,0.993919027166013
0.07993906944165899,0.18356902268710243,0.39045858595335053,0.5447849587587948,0.11585931044241099,0.14897093971169995,0.11759450471511892,0.9680036025726454
0.04747984147916512,0.19741315397405398,0.34668430583661763,0.5089392799186017,0.0797229003502159,0.14913766872317366,0.10507743686383172,0.9979738631550452
0.003173272211465461,0.16914633829943793,0.27148431224040587,0.43721641912406645,0.07838621201244872,0.0845616735848307,0.06072482066464217,0.9849218563980664
0.031058704952918764,0.16108433461629384,0.3334239945527033,0.4674467080072308,0.06555112581874589,0.13761366162018107,0.09834096188919447,0.9390980607211904
0.07459667593989372,0.18297454901396376,0.35227770852311296,0.5332402300179886,0.1388488836086834,0.20348448340850064,0.14167725017161792,0.9932697503333487
0.0411444813339042,0.15730249304991673,0.33160709397335164,0.46564678357210504,0.11706604888848801,0.15127924266673978,0.09417148959259343,1.0354821136830656
-0.0028916701691468205,0.17170088710996473,0.26271421627727176,0.4364037540494998,0.06734905032429189,0.10825475503637,0.0144675544530135,0.9045843440816208
0.052604377342926806,0.19226584347324943,0.36533094594677346,0.5145158152767337,0.10983472206147012,0.15846698554761016,0.15801735059246827,1.0509460866173614
0.07059402270670607,0.17354913524045967,0.375220771361721,0.5259194731423107,0.1725237444436733,0.21468197927525523,0.15560929493109088,1.0272730291974743
0.03850275402852603,0.18732396566966752,0.3493972245905433,0.49386265538597673,0.11575107761230868,0.1951783361148589,0.1330706375181547,0.9998782059421822
0.003349335489789912,0.1690232946849775,0.2866003308164831,0.42837331510711196,0.08222565177396568,0.10501491532126066,0.026149125027190787,0.9723500625760282
0.042496620704136616,0.18034990037930568,0.3496590820725466,0.5044319532940946,0.1449556291384526,0.20606325881796692,0.1453775046882167,0.934694649145815
0.06425416796217814,0.1804865975866662,0.35012207404976,0.5320321591591153,0.16410615742231366,0.27318065463046814,0.19788338772774847,1.051248474031476
0.034773283528213676,0.19181815495890073,0.34287984493385476,0.48116630967064294,0.15877027208826197,0.18924444491514542,0.1254370544950648,0.9973710031762888
-0.0029580728399725975,0.1633686883006737,0.2785126182207214,0.40880658743355164,0.10624668709378576,0.12204788320616979,0.05911325572777941,0.9746184338022875
0.024955519582850305,0.18173500214365426,0.30024134961591836,0.43450084807642153,0.11182285184520098,0.15752355217414815,0.08858585128837514,1.013616627536007
0.048116445015298576,0.17359688082535907,0.3431716669905435,0.48424393144615474,0.1758258599913546,0.23657869351553618,0.20211167694815907,1.0538073294552086
0.03029624459565386,0.1697578421917726,0.3155491758415818,0.44756101242342505,0.13866468156507833,0.16518968421344138,0.11306558872957609,1.041346801061102
-0.01007336199908708,0.15883203534964369,0.23645727838329486,0.40312102460951,0.06482898951479785,0.11589684027332063,0.039380798436727066,0.9241929248799258
0.0032737629200216417,0.15493597865684067,0.28785835209111754,0.4199072330373281,0.08072376221946913,0.12514677707914323,0.05164818830541844,0.9383625231728132
0.04217267948269332,0.15622324410969587,0.3384960807556918,0.46596695463413784,0.15203128710958413,0.19271709367800938,0.17360743595214634,1.065770922832756
0.02869393739298543,0.1916402771286523,0.279993949377381,0.4293367179272991,0.12191263775199868,0.1578355699617106,0.11969952753592644,1.1191020677591843
-0.006899252352712215,0.17649928988862135,0.2658746266252805,0.37363176514614926,0.07797653966599016,0.10139291485684238,0.04098030052296585,0.984569624296316
-0.01695322972802709,0.18397506233846658,0.27563514948079515,0.4129372443866327,0.09058616737941844,0.11912493834676846,0.052106823138836904,0.9555939057445584
0.0334991017674549,0.1557588258128905,0.29048906362853855,0.4524679920204941,0.1442567879378733,0.17306965795137746,0.10266562112690872,0.964871603182011
0.013998170893434726,0.1759674135692244,0.28201507359143896,0.42973124905112203,0.09366018044487494,0.11616427615542109,0.05294175974835785,0.9829318154321605
-0.034477819528569154,0.17108214965346297,0.22763319629072273,0.36474231757466363,0.05133195935794109,0.05654203248205505,-0.025755613984839883,0.9632575477528464
-0.014940222900401548,0.17320972972426996,0.2792399533821391,0.4109643941700373,0.057740892537101185,0.09178971181924671,0.044604252860916085,0.9687286952514814
0.032779438064283885,0.17683438750570063,0.3306054337752602,0.4612043893961371,0.07300151562032067,0.15596825530088193,0.11310649664585755,1.0779976334166563
0.005309703440125144,0.17640504462207862,0.30126002809127694,0.4314949867660799,0.09885583904184563,0.14378673203988399,0.055655193542662025,0.9389101772053022
-0.015078534542296119,0.1680437651732889,0.23287775335049174,0.36682377737117566,0.0523125661309263,0.07833390143368996,0.01425097804575784,1.072820565235985
0.013873435907844255,0.17611741413224982,0.2669719188121485,0.42601101211112774,0.10096210261747993,0.12943063286425685,0.10690640076643806,1.007106066126923
0.046266091939712366,0.1829284907290976,0.31168276350766067,0.4670465855456455,0.1213154099596209,0.17853770435015118,0.15557339422915661,0.9973592218084212
0.022234673195376017,0.19407724721331737,0.2891549784988237,0.4301542416676685,0.11251923459793114,0.12622926397584905,0.05421669882671172,0.9216759750733865
-0.02031564818444985,0.14777409897256272,0.26099747538644075,0.3767686232643842,0.026218863678955283,0.06778904116717613,0.013926974008135421,0.9983509369112837
0.02542801872881758,0.17792409773157664,0.31078257391899256,0.4609174570164069,0.06589327591852844,0.10635566562143922,0.06334460189022391,0.9274521051447884
0.044093746934902076,0.19191441621479463,0.34872626289100883,0.4992798747591521,0.0954709504465022,0.19098122040408647,0.1398383608417188,0.918261616381204
0.060921194513375646,0.1908134964885998,0.34788859778351433,0.4814932192398853,0.097213840216054,0.16361826119510708,0.09940757516657467,0.9538773352824905
-0.001570693826384948,0.1783727343620176,0.2624050398347537,0.40999358056719426,0.07215770812960717,0.09689680524925504,0.017176462619191542,0.9027100183720873
0.05142340460037182,0.15770893245615433,0.3089960994160179,0.46539020827518984,0.08955808004371604,0.15654267976545144,0.08887545330632182,0.8970367772934876
0.05670652125733902,0.1932877059698327,0.3454273567111332,0.4945115374187594,0.11800659635343197,0.16479719109703714,0.11000670207994387,0.8416675423129796
0.05513188028423891,0.20638281411760212,0.32700502474657506,0.4468009347214431,0.08228688216694968,0.14517678528689687,0.0826737491811314,0.8422972839749376
-0.00849395217149395,0.1826878187543045,0.2564397970628505,0.4103113285334161,0.0346676977715235,0.0429688122595622,-0.03558378091808595,0.8923253897005865
0.033235160065415596,0.17324783781753134,0.3181813566917974,0.4752028036505743,0.08373504475805732,0.10886976148888738,0.05555508300439523,0.9297340009506019
0.05792526155171647,0.18231803915338263,0.33672202484969693,0.49239332814694436,0.08362260373467126,0.1135610416994975,0.07130533419984428,0.8564001843178264
0.02437351481665697,0.19744902109442597,0.31539761930108556,0.4730091226956092,0.056355950775665194,0.12421613913532269,0.0494899510657282,0.9034894145382679
0.020048567631819295,0.16824981250772353,0.2890286911805634,0.42999750801256553,0.006087915077709033,0.03970918234232328,-0.020097163027821083,0.8505841067222596
0.08765821502222534,0.2021666541882508,0.3784550521198201,0.5184133126495596,0.10242014855611004,0.17467447861495927,0.13659675830045917,0.8943039552615426
0.06873352737605526,0.1983074639747663,0.3605417104620863,0.5229591243849242,0.10702352385580223,0.14757014436370786,0.0973696364202177,0.8916158943201334
0.0482219390377997,0.17844058186116912,0.31678008168344624,0.4736859433895672,0.06816194257250223,0.11212523047013657,0.023885903717688853,0.8492278609479142
0.01851195279805378,0.19819157431715928,0.3008139295441615,0.4456230032016486,0.04352837162832055,0.08744517149379474,0.011468952562958625,0.8989694502439575
0.11119190887015806,0.2004776185367208,0.40042133241783157,0.5578297564754353,0.1320100862077108,0.206395527874584,0.1674036630115237,0.9416777628554546
0.0835954237541815,0.1896540726953464,0.36717187435168364,0.5203492760145961,0.148824624203102,0.18406082330958703,0.1460633676646905,0.8945123292941618
0.07212108898732589,0.15838951766535994,0.3402150950952837,0.4751399734971325,0.07297785201035904,0.1259252523252641,0.08266240853569619,0.90852336999932
0.042770169982171494,0.16027930243292415,0.3205541374727495,0.443268975759307,0.07344558249567945,0.10623144003448717,0.028986145766370205,0.9776378737198326
0.1404629613290975,0.19835428298344154,0.39582663478137015,0.5618462144016937,0.1614646595728263,0.22679548793645402,0.20568989254603634,0.9269122267310097
0.11225099985447463,0.21372349354577008,0.39118662380187796,0.5401838979789212,0.1639071197875398,0.2129428095499295,0.16404862439615947,0.9514629668665889
0.07197429139073452,0.19825101843039206,0.3318759544978021,0.47075012494374724,0.11445183314980935,0.13732496304132702,0.08887612142559315,0.9619396177195796
0.06115962131564565,0.15903930595143964,0.2969493970002994,0.4341598489396002,0.030408647626121915,0.08175853255061608,0.009070154915304173,0.9553174143529701
0.11315641265168636,0.19014120497039735,0.418514794787028,0.5537440382910631,0.15861797747984657,0.22237871430529,0.16472791747956894,1.0034895792090333
0.13760509774790006,0.19770632759219395,0.4230212832912448,0.5658067392785195,0.1606274779965625,0.21326222072868647,0.15466767875066081,0.9523704767533838
0.1085743938474194,0.18765909872039888,0.39430317983888735,0.5209988351426034,0.12074765223869607,0.17885102007892237,0.12911310708385784,0.9855751314423589
0.07632172754047672,0.20181679864174634,0.35161203538989105,0.47038391637432503,0.07139516194573095,0.0904781548686974,0.0271456254573834,0.9651853561949838
0.07121823704365764,0.17143525820706185,0.3677115942125577,0.4939683700143548,0.07294689440662759,0.11702323545406348,0.09218689739384948,0.8611253054324834
0.1354980414645859,0.19291480769560576,0.4198791849231428,0.5822387728126354,0.1718052981828438,0.21726094498719614,0.17597381257144348,0.9934012163367638
0.13503034596001395,0.1846181649738117,0.4121134754598915,0.554660709791278,0.1303180783399634,0.18528400245718724,0.13180387792982234,0.9160427494054307
0.07776616457843316,0.19007212847173627,0.35298418467340237,0.5009129001296606,0.09995408757692581,0.12456619122101482,0.05379930680658198,0.967780252897914
0.0534920255742478,0.1762416703292452,0.3053621793086769,0.475726414945441,0.055923561475095404,0.04730455646871473,0.020312035874074832,0.932325502971742
0.13970888440107287,0.18299738286356892,0.4274874904878445,0.6099581896928473,0.13049495095819352,0.21257934358679909,0.16288522425861413,1.0146488036343402
0.12071644256281681,0.19772842746638963,0.4141108286205997,0.5789513653851275,0.10876064821384183,0.17069284561207604,0.12004470114430286,0.9651303361343917
0.07689111386192425,0.18981663500282822,0.3708137380787558,0.5164793070851513,0.0944708768661426,0.10671863927629188,0.03618706741290359,0.9002471819207285
0.04560229672689639,0.17829034274063488,0.313084151476146,0.4681808974425349,0.024135502107444175,0.0322986890743832,-0.031037749759588357,0.9282863333828686
0.10837323487863743,0.19534162735819127,0.4124708161808905,0.5781111683684393,0.09100744576510603,0.1453891393915645,0.0842781696526312,0.9354031348096665
0.12974375511670508,0.1934939134828339,0.4563320509072478,0.6155547030068498,0.1226914381297329,0.19860154851224018,0.11401281867144672,0.9068300343098934
0.10155005254011973,0.16225967682813258,0.4160520446943207,0.5812482491759265,0.10903622320049783,0.15225007672560092,0.08861408019089703,0.973845420240434
0.06064242787627823,0.17028068522125506,0.367808998841749,0.5059898903271195,0.0531244224303321,0.0761706538990185,-0.0013452357248437512,0.8958654408813943
0.06636826429633386,0.1586082876370289,0.3847747040522422,0.528420091683761,0.05856902167152377,0.07043044512872734,0.0015101701653124824,0.9280055431452583
0.14672569829690046,0.1571252511372987,0.4745182973740284,0.6433677043451106,0.15986691029547678,0.213498354545466,0.14714686095752402,0.9752108132609658
0.1278080011458673,0.17930793247320304,0.4443399502314598,0.6249506367024255,0.12807481905730098,0.1766325135110568,0.11956866934876288,0.9530617905759124
0.08662003429873019,0.18525824321237455,0.3784661834540807,0.5549175945410955,0.07648244460271295,0.10665187406247989,0.05625070866263172,0.9168390842393419
0.030840383250502944,0.1649620748318208,0.32282211957038676,0.4798000185901573,0.03740510073473817,0.02543460797154233,-0.014585736564740787,0.8486573290815123
0.10174424129764435,0.17126546352399624,0.443198811997936,0.5992176653614202,0.10566595314868937,0.16209504221280394,0.09527837180284954,0.9403594617829378
0.11779888857675609,0.16880602175906323,0.4615516569232877,0.629463867761804,0.11471970653396299,0.19219090972109826,0.12653316985597315,0.9379535314621151
0.09438431811650805,0.15077556266875386,0.4185460436493268,0.5836647602591305,0.09794779384827601,0.13093199889132273,0.08142486095460075,0.969552556996854
0.03939048761449526,0.13961954720786202,0.33114007676304774,0.5105639698933333,0.023987861215595388,0.04618124493805606,-0.02888169207558514,0.8675107715954191
0.06006760768608702,0.14520065579188124,0.38023782149211954,0.537767556054438,0.04305027868959488,0.05070520539298357,-0.016768545320112384,0.8731215945835884
0.1033587698770283,0.15923799473582317,0.46429548653529895,0.6063979926412831,0.08614257072885204,0.11508484875294675,0.07093194706573319,0.8333649583147098
0.09020910736465217,0.16727845294614196,0.4108578871531728,0.585837393186034,0.08411738147186973,0.12660381536169646,0.08640141730745345,0.8414490920506559
0.030136978239460217,0.13328761267223563,0.34256448172146897,0.4991806308086848,0.016579613402108374,0.058677468189938416,-0.016484144082935324,0.8882859200051669
0.06732921036203199,0.16056756438503517,0.383550569677645,0.5382131212992728,0.04973568837242973,0.10546530779797433,0.04697365085904578,0.8261634320307649
0.1171874377225556,0.16428038082747093,0.41573892688167846,0.5868866749910455,0.1371942409298511,0.21520578511426677,0.15981777239875483,0.8814480317476014
0.07280495938468654,0.15999795570323494,0.3663740918571426,0.5300253948124741,0.0915913396432499,0.15880818794022533,0.09304943783369236,0.8567552022602785
0.03368936401564706,0.14027961503195507,0.31157308285241964,0.4637514244454188,0.07738437184366298,0.09336959341955636,0.03863355025862549,0.8648257278614591
0.05871030224704071,0.13986629376845627,0.32380287401554764,0.49151013550853645,0.08385461826565696,0.14971922449918237,0.1013832221549949,0.9332450905543849
0.11344682945687273,0.18610692153058928,0.38410769277338835,0.545961695344349,0.1656542162982359,0.2445382246130497,0.23160171112811956,0.9279446815242738
0.0898991442165161,0.1519233787889434,0.357282138233086,0.49585022356066427,0.17581596878709227,0.22572343638689213,0.18279756015828222,0.8725799716408685
0.043679259080126244,0.13060248565581828,0.28625161198975346,0.4112097819624129,0.0790597919045774,0.1687479342825756,0.10012645068786998,0.9255895942759969
0.042479095083517236,0.14539258965569316,0.2723645547516748,0.38300441488220105,0.09481736992341454,0.15069747837074185,0.0895228486424694,0.9114393116618947
0.10328470824058819,0.13218603140022628,0.3710772046020774,0.5124895283918833,0.1954150397782424,0.3083852636675434,0.22550120310951302,1.0207479573151381
0.08280115810547403,0.11920917179302468,0.32196016942492295,0.4740901592585452,0.1893347272113583,0.23256703729138475,0.20780362715760822,0.874102577392928
0.04800340181641991,0.13970470467997648,0.2710808055838455,0.4007628092349189,0.11742214053610078,0.17453082565073208,0.11719776601530829,0.8649697684470683
-0.007871905006146943,0.1657500251225381,0.2280604720510317,0.3618270986314763,0.0633006035076918,0.09121026679584653,0.05940270649278148,0.9754558816951628
0.09883808790471159,0.16855791705656367,0.3381434909359511,0.4758141147381281,0.18841423521088813,0.2712003056510311,0.20192351778782125,0.9304316040832344
0.08090711291378688,0.17174040236566895,0.3191655907828304,0.44663527392491414,0.16124789497587602,0.26075906363329854,0.21816155262805825,0.9657628688256419
0.032899199681338975,0.14197992419398517,0.2661716066147812,0.4140936330575004,0.13075476090888322,0.17984367397411674,0.12387076798792293,0.9247384460977899
-0.0037190179722188244,0.12531096976818737,0.20835594656656947,0.3375536239941317,0.06426022433429325,0.10029613677450763,0.05324391878020326,0.8488101258951576
0.05189176647001577,0.12425438206586971,0.2879067951778915,0.43410288164223915,0.10351200929926888,0.19734784032297564,0.1406223880656403,0.9034745240062884
0.06976564521894282,0.1370893524470237,0.29753102022365163,0.4300104316216865,0.19222315111356753,0.2610140901989485,0.17949805449640305,0.8080754463028343
0.046378353153190166,0.1476989335549242,0.2582478827600521,0.4067322821526186,0.12610719237597612,0.17361549458493902,0.12419368547664392,0.8927689817645141
-0.01986357744085427,0.13321378755957097,0.19801168040655737,0.3237608935157166,0.08091281639345413,0.13521112647538425,0.07984565491830183,0.7990599451409757
0.01369802027701391,0.13710024608438612,0.22445248366595827,0.35359292729474323,0.09498280553526023,0.19414187563944724,0.14064258918777844,0.8777152358755494
0.053538639390043066,0.1220315828992696,0.2959643966947875,0.414676746490101,0.21180551243280357,0.3100644138166721,0.2747195363659415,0.8638804638281471
0.037249706490531526,0.15237280340370635,0.24664238486531337,0.37850369111338106,0.1866252213805044,0.2720876258492409,0.1964674843018367,0.9153283800834114
-0.013255178320440063,0.1330762355115296,0.18496184528571902,0.31464897484184723,0.1395715284290661,0.16639919831462824,0.12190179874071802,1.0511409322279353
-0.020536071251791937,0.12054669278242372,0.16523179429464924,0.2996372185111312,0.05681135251704004,0.11761956059525623,0.042222456803831715,0.8962526190090185
0.058937425591468605,0.155126824477106,0.26245620181795837,0.40424796145788267,0.2059607744661815,0.27479660471046663,0.23361084796373263,0.9353108656544927
0.03544517293239951,0.15593307812076979,0.24487631441806873,0.3893900683483711,0.18855831402401088,0.25313200138390124,0.18988002956087213,0.8131708045758376
0.009715063344433172,0.13816580973219356,0.21416726022577612,0.3424842177788088,0.11282205746222634,0.17790281119837054,0.09275465133678007,0.9017558255887872
-0.044414518708650944,0.12148392185181922,0.1566389037346363,0.2829983073636798,0.03905674397192807,0.0828300313078294,-0.003018015951399937,0.8467583745425294
0.04257749947545996,0.15845121466882922,0.2682790152891397,0.43367350844896596,0.14162991091539462,0.21505262909507977,0.12234384005152493,0.8504878736144452
0.0425261173305258,0.13881561366639836,0.2537528392164189,0.4082010359672752,0.16727324820365191,0.24117172819278349,0.14287390733349076,0.878991548764683
0.026046061736181098,0.12635755240540902,0.23462252267075384,0.3725218989926616,0.12546089440371283,0.1654060667787846,0.13232609580955706,0.9348972133853166
-0.037696099915580705,0.1461265492494962,0.1574333118194728,0.3091562155341749,0.07440973483151339,0.08785332436664675,0.010017880895602044,0.8021363489973263
0.020991534247692012,0.12304149726304639,0.2412641629656982,0.3847257730915388,0.12198179230494352,0.20556025761417646,0.16175405214997407,0.8220086011763718
0.04154538858157516,0.12042633683792339,0.2574457183620438,0.4082111467603663,0.18588126454438658,0.21837042516918365,0.17416730394786378,0.944709071195525
0.028857363523541582,0.11287630191649123,0.20965264795768107,0.3660125053010167,0.14248468479073528,0.18879919354614366,0.15073253971051542,0.9109585373847036
-0.03718201375740226,0.08174737251093689,0.15618792855117325,0.3028728251567425,0.05273949782337926,0.1014916175206906,0.031819861782533015,0.8058920518178156
0.022734481926686576,0.12065659047414008,0.23902304135731098,0.40357828391686906,0.13550049518094615,0.17759229870637905,0.14193593490209463,0.9500147230994465
0.04700554183780334,0.1299549547540928,0.2649706225124136,0.4083094198028579,0.16239849050192018,0.22749352256620836,0.16386241730384554,0.9135858120991275
0.02470481812835567,0.12198664784245522,0.26548147081066525,0.39204416547268706,0.12951263333468097,0.1915530969764177,0.12466326873014126,0.8822554630177841
-0.023261584484202104,0.13669386041651374,0.19015597741655743,0.3307071859317373,0.05954981319950166,0.09840975631483541,0.04507447296773401,0.8795301239465845
0.035214090356294754,0.13933413669445488,0.2895387646569847,0.42732128288275595,0.16835602475837977,0.18712768970712973,0.1337920713967363,0.8324590879823599
0.077142492875552,0.14665180318656493,0.3034541899609289,0.45948784719382707,0.2047261196847482,0.29925054557581315,0.2213150701441508,0.9288322515903191
0.04711823049309336,0.1254067474883161,0.28508469101193723,0.42626651068025245,0.18994311328426303,0.24390994892201578,0.20910820174671346,0.8313522978952181
-0.005581027873061563,0.11753524039947817,0.20276371891328415,0.3442854904422479,0.15192220330782166,0.15315948013273237,0.13086054958759544,0.9044141740716438
0.056952410901797,0.0994876761323644,0.2722885930306798,0.37856239343911213,0.14685239080964285,0.21428007916639552,0.14485226302105375,0.813637836146547
0.08524582013647246,0.1061433699975626,0.3115278571527064,0.48406103303477865,0.22318402708127277,0.30213020344280134,0.27259369152226154,0.8407273913212395
0.07043452987008092,0.12077824651285408,0.30227062444167696,0.4530565148541789,0.19658681134893502,0.25392301444419063,0.19779850590204826,0.9211972280085021
0.028080660001418692,0.12333035750623826,0.2253681200860997,0.38525161187556933,0.13169259468716632,0.14997193991750146,0.10653834738592868,0.9055673385971008
0.012055683674514955,0.10416699909979898,0.22467769181653877,0.37842020143893873,0.10992787880173852,0.14898900614050598,0.09815132373082856,0.8951748861085828
0.09913541659616232,0.1331055616427035,0.3053652410302956,0.4878869481238441,0.21506308172727617,0.28151192457691715,0.22355992380518327,0.9496100507198663
0.08866402562900333,0.11962546930482396,0.30003120474804335,0.4601557837135563,0.19150476262317756,0.2642470956810558,0.2189215520396535,0.9361673844385936
0.03980913907410566,0.1187945360377719,0.2431642054325877,0.392665539773234,0.1400978770786107,0.20282847331200335,0.14961319744629165,1.0013479305510293
0.03253908011387224,0.13250740547659567,0.21335125705530011,0.36278105172765795,0.08928503585355425,0.14410030592455575,0.09025903493819157,0.9231145246824655
0.11660811520596717,0.11213392692665096,0.3324950252128062,0.4707083627994114,0.1932506207223093,0.29938412652744184,0.25460313920351835,0.8774368232370143
0.09436739495322058,0.1104978856825688,0.2751440505467421,0.4596595057984192,0.17970516157181465,0.27513891586647904,0.21795520183585054,0.9249599967101372
0.03926168085340692,0.13370546958868978,0.2483274997311017,0.3902597792178571,0.17210089622469815,0.22474797586494205,0.18092032955818088,0.9343929316339769
0.03776366912513187,0.11850960150532536,0.2154949948610556,0.3445275274923093,0.15195588985023953,0.18900991911162762,0.1699678763476963,0.9540598261301146
0.10520531673810007,0.15478030952245675,0.3118604858192455,0.4519432973896386,0.2554790047620563,0.3602486022266837,0.32066666186105064,1.054717529745148
0.10640974457955146,0.18437846261420154,0.3048301700300469,0.436802048531258,0.25382761743019056,0.3435909234495265,0.3466044528421664,1.2268783987879313
0.08022764641148307,0.16430115718830596,0.26823670980093,0.4111711174159145,0.23302782560006152,0.2972353674433863,0.31130533831627566,1.448051422794226
0.09152172608669307,0.19961434968224126,0.2724988486829805,0.42123038070606333,0.23215612183505327,0.32089970124075584,0.3172242446834317,1.4288580322703577
0.17192602069755045,0.2081652879136059,0.37645728793947664,0.5377962882171037,0.3519122093571774,0.47308338416211726,0.476793709772586,1.4432184398928478
0.16398580969418428,0.20883434952309704,0.3820736723993865,0.5355574512009257,0.3422797243920689,0.46524646184322627,0.4590410453775731,1.4821049750551247
0.16368053197355517,0.23689340368134618,0.36304538148335525,0.4970726252113986,0.3101366534445625,0.4179860409462208,0.3976176053254349,1.5307016454089848
0.202299095193639,0.21317993865639578,0.40710943771115204,0.5748939660274692,0.3505589597484734,0.48470023245842153,0.47582080932507326,1.5516904723383411
0.23010873854630629,0.2218455539013847,0.4766566805262006,0.6382591950181667,0.40170218509706074,0.5669601827846769,0.5781454263000915,1.5732432484383938
0.22301667343856993,0.23999421500061063,0.45701384770932874,0.6179814530654684,0.42687675893890586,0.5431744663293194,0.5590189291040661,1.572559876998655
0.22129750056287614,0.2354385127550236,0.44120604146580483,0.5781167349260229,0.35716887614859344,0.4828307620513855,0.45672603109094984,1.5902593532236224
0.2669002391764235,0.24944466581309538,0.5392140644496545,0.6834894426914294,0.45574648700444115,0.6054468328872046,0.590295392704192,1.66825881976435
0.30037684208082177,0.24208981857537964,0.5757955215975021,0.7336276610815373,0.48827258658030454,0.6501024928733732,0.6794409004555766,1.7198126500016435
0.2927527753293718,0.23443805400907633,0.5584074745811695,0.6971474606826683,0.49698308191058727,0.6122829768903507,0.632276016669102,1.7274041927841033
0.2396497648427446,0.23629974434651174,0.4956990836571033,0.6525145070925701,0.4437298376024111,0.5746567780059206,0.5683385635664049,1.721762388125805
0.2711576562939414,0.250514612421164,0.5167138256273598,0.6983712293927283,0.43970310375073957,0.5800629606527101,0.5594849848091236,1.745926811633773
0.32046939851203965,0.2325584555823046,0.6248966477175643,0.7797284405192051,0.5227939406045766,0.7167809181546195,0.7261896885448613,1.654298495320198
0.3327614010714681,0.2602233527794203,0.6075875428198322,0.7778863916018459,0.5215294570778427,0.7245558968734143,0.7300570419872391,1.6840753816671832
0.307299751884173,0.2304041495445092,0.5747514879564477,0.7234290205023857,0.4686897217648204,0.6484762359479891,0.6350555474945425,1.65292209476483
0.25567979570383526,0.2327373499537886,0.5194694595634036,0.6619145889878791,0.4155398823494484,0.5474800742532521,0.539076923699489,1.7379908644606494
0.29738129473568453,0.24228198389183508,0.5867268555466538,0.7333629772608908,0.4808664022812353,0.6472665708711068,0.6372695169145252,1.5568646912311763
0.3231021281908884,0.2471650265430417,0.6207169274187775,0.7954695456273712,0.5623874868386837,0.7441095025518982,0.7529533771246357,1.6207664019786308
0.31985541318738686,0.2616038716867082,0.6094193915320553,0.7610004819036563,0.5296481387629776,0.7039836970359072,0.6910483963304774,1.607699704513464
0.2646665100898412,0.24184301299086453,0.5514085713633401,0.6715045689983429,0.4747649696925375,0.6029934310139873,0.6213965215257149,1.7115952719722747
0.23940093635245105,0.23322259633427142,0.4780581563100138,0.5970700743433431,0.42584365817425157,0.5323446751388327,0.5450173915259681,1.628424153369537
0.28523290695761455,0.25109895860160536,0.5493730629056349,0.7058379403528445,0.4681933077926918,0.6351606048048554,0.6322193959272072,1.6705405312730999
0.2853933434948685,0.2515200973571648,0.5879119047129733,0.7175525645980716,0.4991792926198969,0.6635617726760822,0.7044964283191583,1.7686331597428069
0.2748106600505593,0.23646812237327747,0.5184079988306648,0.6888405549577504,0.4896596016058704,0.6353576254928517,0.6192461314248504,1.6870319987313271
0.22900989981274594,0.22853383351495316,0.4723968045514347,0.5936643731971776,0.40617163938179507,0.5257937951257692,0.5233605433953268,1.6203648631379872
0.2008711826764475,0.21471485732417495,0.4176224227705379,0.54602469868235,0.3356950275811577,0.45750508546562196,0.4528824525717057,1.6167309724194396
0.24749584956020126,0.24358223402050483,0.5185753269842975,0.6443172217287766,0.4215590949546406,0.5731588148342173,0.5954062372621053,1.6287384322689742
0.23307963293375147,0.24046732550245659,0.48093978127764925,0.6291005240950935,0.4101722119909157,0.5507025065620926,0.5401509998214187,1.5941155789332622
0.19411897568452,0.23715750064974772,0.44564709157742544,0.5867551021533037,0.32752615085108944,0.4757590851004824,0.4814816543856034,1.5747047190041976
0.1513783626767758,0.2144407921827541,0.37272015646954865,0.509645770532474,0.29166954245030396,0.4144763939583799,0.35608858623988493,1.5626970789552672
0.18348464627259126,0.2259356652750992,0.42265987346522427,0.552547394792946,0.2970281817927115,0.41391324980183325,0.4101693380046443,1.6100854036494394
0.2091648822162806,0.1972827350592784,0.4494895537593057,0.5922326922719491,0.33274447445055816,0.44331586763294756,0.4506330632735767,1.542496667874758
0.1658170059817037,0.21783982047432793,0.4232930366104283,0.5682595133198534,0.2863800884571209,0.37213443988031764,0.3818823653796046,1.5803372194314393
0.13181288905366456,0.2128941508670028,0.3746901447046843,0.5103014836840815,0.24155624393075398,0.3283024109434104,0.30323302993748635,1.5012905074276945
0.15204393993011733,0.2149153359502794,0.36915223400905844,0.5386510659358588,0.257506598534705,0.3323184743581917,0.3266527730618458,1.5044506650059803
0.18122391550169825,0.2182125600871313,0.4401353880999211,0.589904676839778,0.3239679977251985,0.40695367539748994,0.44312968247321605,1.5023490407857156
0.16143793100879483,0.2364119462075206,0.4131316970885185,0.5385721691245006,0.26639525283957466,0.3747445137442137,0.3444760568772961,1.5434435904834316
0.11917637383936128,0.20360231401650603,0.33320519842374874,0.4935522289188371,0.24288536225272114,0.277239918206985,0.2867303160019693,1.507831751883201
0.13377273390889752,0.2003733604856397,0.38839251619545284,0.5289225236309504,0.2225710261141208,0.27850027106905334,0.28453264299149783,1.5623492301544164
0.17702189991105138,0.215008205258726,0.42037191822957465,0.586508379370524,0.289159427013015,0.3952327167170023,0.3985641548005173,1.582563659762624
0.17536413948116247,0.23322310183257336,0.40155171639721754,0.5697158083269909,0.24356978267683638,0.3582335092786498,0.33435265833280486,1.5749617850974231
0.12753290206051737,0.21552051529026675,0.3683814143547303,0.494197299053509,0.22118179009962413,0.2885680794621564,0.2710763354717098,1.5439911617237267
0.1336404934767469,0.21864330376152127,0.3847398053365369,0.5230013258764492,0.2189972330036045,0.3010627162150283,0.28280140186933983,1.5594298375628552
0.19133805972924856,0.17318963327129994,0.4508244080274154,0.6040465908092967,0.2845857384710645,0.36166917081619787,0.4199419190545629,1.5690733445791833
0.17436569730888843,0.22798769152397527,0.44441268144725704,0.579395814522087,0.2708995800844779,0.3709262888111735,0.3683018192814276,1.485575488009987
0.14012205487043827,0.2092486162208631,0.3808263366169142,0.5389697890158885,0.2233575631279296,0.2928117527406293,0.3044261778861526,1.4927214507823314
0.12577938106785666,0.20627695071023225,0.36527700848895245,0.5207365251946888,0.21935836935006758,0.26968024803389024,0.27739373909135245,1.5897135865443865
0.20731969823473184,0.23569262430596294,0.4503951152105923,0.6117132116942334,0.29686257952886425,0.38933534773048,0.4104051049066804,1.553450168277906
0.18643432503011084,0.20431342495948987,0.4355673835612812,0.6014924900724133,0.2886345507823716,0.35920884193190594,0.37760703949058966,1.5351403312891838
0.17605973985257858,0.226810847421186,0.39646258345834834,0.5577133813875796,0.25441008897435197,0.3241346945010487,0.3306616122076266,1.453174173141099
0.13169743640786288,0.19368496685372416,0.34246186378361465,0.49964712590546984,0.1997082927286274,0.26649998296749966,0.24390016665968867,1.4602248042183608
0.18470494337554333,0.23562471715601668,0.4426343306637771,0.5909998772468859,0.3044742365609181,0.38063344914378555,0.38310433529746546,1.5276006855606765
0.1904828184339618,0.21963603173216997,0.41887846633322345,0.5996920878922044,0.28571590539552516,0.3777300889258079,0.40157134733825994,1.4420359992215124
0.16283374162622793,0.22962633936148624,0.38343679338925396,0.5647640636460094,0.2683264431940383,0.3315848928695684,0.3415978639867266,1.5171904595057422
0.13926316643175518,0.19675951904462385,0.3342981789642874,0.4969302856023781,0.21047176053232214,0.26574163875967877,0.2615450302586546,1.5445846344525767
0.16214849208912857,0.20121228376417247,0.42617877919443714,0.5567851245187141,0.2650798158768035,0.35981904731378234,0.39912106073880477,1.5404952679484167
0.16942045255504323,0.22160676384213046,0.4093613683204952,0.5851933748366066,0.2651459719466807,0.3522069173749442,0.36610177777567154,1.5576024074525439
0.16253881652871582,0.19343574112059053,0.4009139756398205,0.5426420979803716,0.262677887303987,0.32507822664344277,0.32479580412726305,1.4884304149397805
0.1206142224444611,0.1931327348045865,0.3293889591407515,0.49410760122803693,0.19129262808496517,0.2562996506631719,0.2600609210573339,1.5128137691613504
0.17990560013434223,0.20720187949167052,0.41862894092288855,0.5788361255852762,0.25785781475124087,0.3286479313156799,0.3426312480809174,1.5490824672947812
0.17610187426796844,0.22975091765259326,0.42277645002901815,0.5860564514621135,0.27491653310090325,0.3768160725630657,0.3572768619047168,1.5625062630315227
0.15985350882689187,0.22699023484293795,0.39971209837804306,0.575799338745945,0.26057873888106464,0.32029739828957565,0.32248039029528747,1.476187728837485
0.11866910126445532,0.2230899668508257,0.37664719540367647,0.5391494089479791,0.19857015829600572,0.2769241849521719,0.2528586508318239,1.529971660296118
0.1906927175480118,0.24471963653351703,0.47361545973105057,0.6694976825160522,0.30003807825115797,0.3833995158915712,0.3954161759050122,1.5029969058965111
0.2016881943731662,0.2197072292770296,0.49047190053081213,0.6740594715305441,0.2775886842751726,0.35672572197339314,0.36098369837700156,1.5365661153781769
0.17670332261339383,0.20327138810254133,0.47191306540817923,0.640410808199754,0.24859388825544856,0.30198979274202564,0.31312558110920136,1.4645333046805231
0.16578564274472574,0.2345156981898542,0.4335278522287611,0.6100621272245745,0.21535380719185593,0.26831219838733106,0.24963635466316586,1.474452939495721
0.2199857143082965,0.2257973719495043,0.5686353330749324,0.7358455853050927,0.3169560190246674,0.41376272363904254,0.42611205922355455,1.4953470266864193
0.22414572400630342,0.21246414847133682,0.5517470220803242,0.7296004265909765,0.3014141649368554,0.38093728530911175,0.35460911595687195,1.4612377839774173
0.19264851166287525,0.21038488103940015,0.5221863428129538,0.7220601406003125,0.26002447923937966,0.31036642587809216,0.265542252380058,1.3385013414427114
0.18529215963497972,0.2024813987042198,0.5264341462604243,0.7245781366181523,0.2285724460616255,0.2839716772211982,0.21273478625700804,1.227865996833672
0.2544187938690865,0.22578756061240912,0.6182474051568201,0.8447105293255559,0.32828139960478864,0.4063407500078309,0.37893635653647295,1.4189455280317225
0.253777754769284,0.21807498550641663,0.62668052041414,0.8442975199407841,0.3004460188642984,0.3764019760264126,0.3628356528243584,1.2314833664228868
0.2269907022800116,0.1916163877002719,0.5964008565646389,0.7881458611875645,0.2653410503786528,0.34580528440794267,0.25978180529511274,1.2501804544705344
0.1901660696783463,0.19156759239491494,0.5515739278704991,0.7366916779170797,0.20420591091911833,0.2496328004512257,0.19042802535316494,1.1376517452604369
0.2802005497871673,0.16360282914863866,0.6749767418278989,0.8452831613824798,0.2935417336464171,0.3820903773265361,0.34161320688725194,1.1925268897661612
0.2700712045508355,0.18706540557439783,0.6728681395743809,0.8731540892896176,0.35692493718486695,0.4092324979440414,0.3563701709343887,1.294789072953787
0.25017919030349767,0.20614219236241152,0.6393655529092965,0.8137945774120164,0.2859392490727819,0.38788637991838565,0.29027451451963715,1.2160281804882591
0.2199917709658631,0.1823907326294808,0.5852928291857402,0.7561031990750179,0.23243113377878252,0.2735863175891465,0.20481326385054133,1.1533775478504364
0.21274617155707823,0.17204554636040897,0.6144726741482772,0.7820261719241921,0.24303937594946362,0.28492152503303225,0.2222362462056851,1.1553468726507243
0.2752042115392247,0.22445784321830226,0.681971741570277,0.8538369887019817,0.311735568761542,0.40444547311908274,0.3296243404884002,1.2289648984686772
0.23629590709475434,0.1903393777728306,0.6679907487772458,0.8356927607780416,0.30425106659706697,0.358892176039035,0.2942269296495673,1.103810519140167
0.2121578848140783,0.17053783911800216,0.6122552363754189,0.7683243984574154,0.25519493755324074,0.2996866874805206,0.22470513866751096,1.2851630208174671
0.1708380352828928,0.18102082993348778,0.5540259010437811,0.7208543026480938,0.18578478340036464,0.21263356707115272,0.15477113301658463,1.151720474370841
0.26071742858941344,0.18899817629930055,0.6543886484471007,0.8284982770399563,0.29881085612015107,0.35350723104795795,0.2905687293739814,1.1757398008912916
0.23648431733192393,0.20090188430947076,0.6488103357817567,0.8066325897901802,0.29228242435893015,0.3303985540125058,0.2872075738485182,1.0866745215038476
0.2136857137208193,0.18180230450943197,0.6038953569730827,0.7674184879624459,0.23527011402929163,0.28044784672395273,0.22540884267679245,1.1548628727438717
0.16190549812078936,0.16459291013276273,0.5389417211387018,0.7013247380085491,0.18221030014029282,0.2029253267195365,0.12569128299879123,1.0536064453642742
0.19303235371816135,0.17715824792942797,0.5844901794306028,0.7261247491850586,0.1966354887025469,0.25167456125947313,0.16781607780146723,1.1021515291008699
0.24069690638915198,0.186101498010029,0.6425267181289914,0.7879603027535563,0.23549082197780863,0.30334623671148736,0.23921694397801818,1.0954376242750858
0.21235559879277063,0.18585827188458215,0.6091616518575067,0.7537425608948197,0.2419750331787333,0.29268574365080646,0.208632884077168,1.0826574820273986
0.16172737791827999,0.16419262420289377,0.5333835012894702,0.6775398795961131,0.17366936495671953,0.18192838348753226,0.10752656099251545,1.0710507636419617
0.15780120342123027,0.14105629563865912,0.519422749234875,0.7048540722286237,0.1629882682835731,0.1667154093373671,0.1083576847801561,1.060467954037779
0.2471651009919288,0.16404947290590652,0.6341830167695957,0.7855438355703042,0.24614402861155904,0.3193894560419536,0.21606664949867058,1.0037905003586793
0.21562312369423456,0.1711259704196752,0.613002073156993,0.7713996450460744,0.2168420430279282,0.2941726003964334,0.22581365103157963,1.0135894165286286
0.1819055181159406,0.17916086441743212,0.5509096308431193,0.7061974528954541,0.1642406088701741,0.2013081786908526,0.13812700827285912,1.0171033553612767
0.1430412913354027,0.16260700306458092,0.5040586874581414,0.6717836506697246,0.129162825197427,0.17245566503173815,0.04253374411954504,0.9907151166645161
0.2521127506303148,0.18692885120439606,0.6473505018021675,0.8051856494560814,0.23542847527542232,0.2966797296926099,0.2421865680807233,1.075256882566188
0.24199080349038654,0.18966267616107008,0.6348608831556678,0.7940981704515899,0.2169993308396795,0.28702703516658784,0.22330889138533033,1.047057670490818
0.19838499031294388,0.17519393098426125,0.5819223096040352,0.7438476185774823,0.21710057583307676,0.24569914572002746,0.14765367037724325,1.0879625438385592
0.14729402476756848,0.1524745373469365,0.5104793632931994,0.6679372012801936,0.14405390617197814,0.1299805542293755,0.06623358529388361,0.975016576211535
0.2117141020811265,0.18056551434632556,0.596497567184089,0.7644050632936346,0.23247073995471568,0.2211444507252438,0.1783709028673794,1.0193344658011938
0.23167628283896535,0.16733262150973716,0.6399582693802213,0.8124214719997835,0.2637711606604436,0.29556636498150707,0.2527043553914912,1.06397370416446
0.22637219180912604,0.15765920154415713,0.6167711725248644,0.7690158495547902,0.20992502846929667,0.2598340228842094,0.16282332350990464,1.0844993861671253
0.1685277077971889,0.14684787460728194,0.559708272434592,0.7109481060930297,0.1696108898688131,0.18411941432367904,0.1340557246442863,0.9698305880973264
0.1603240337356731,0.1586868830030479,0.53611906616446,0.7066085258272516,0.14469254984255434,0.1856963335756773,0.07683196977417886,0.9867124545758414
0.24194273673670064,0.17683757991064197,0.6354561890706795,0.8300671498940332,0.2595566481079918,0.2782436714174058,0.24555061384356497,1.0413976289996212
0.21935848147904496,0.164467285366405,0.6322384527975451,0.7884105238449097,0.22538336710820037,0.2639704957440714,0.19158248438500466,1.0426985158482176
0.18858107596622659,0.15191851187783825,0.5821688762955822,0.7316881451971075,0.17597043941494375,0.19829255087364386,0.15613253130310004,0.9723941467932378
0.14322281740528583,0.17422007303524253,0.5150424360499855,0.6917087620175812,0.13096729572290747,0.12350403479140136,0.09450924238054426,0.9991624116107554
0.23580696308374746,0.17311427483153885,0.6282726407532502,0.8100035143760075,0.21372895088392052,0.2613162744805648,0.20787383059672082,1.005539616149118
0.22341933102313938,0.1872894342769333,0.6113831071161817,0.7814029739042405,0.21792873100108073,0.2510531785849581,0.2095859143799214,1.017688674106277
0.1799385307542946,0.15681584525385858,0.5596497884227994,0.7340162250981301,0.17546560844503697,0.19666884593942996,0.11501248293322715,0.9990364943152057
0.15264476607417873,0.16631311725280695,0.5128055080170915,0.6841712392081111,0.11558803391159814,0.1447824390380985,0.07195599089705473,0.9688362245885547
0.23947680677817446,0.1941646397615095,0.6364822182510742,0.8088069688914158,0.22317963082348974,0.28920487658979005,0.24161693637045067,1.0233685283943335
0.22809343180386685,0.16226731778952613,0.6319212841467722,0.8011837544234165,0.21707668292900859,0.277210777070927,0.21755379919807627,1.037789695441061
0.19201251581695022,0.15234668067416884,0.5911260873361687,0.760534779222485,0.2032431833519269,0.2097022251724052,0.12400826853878102,1.0316414913957608
0.16480681424294324,0.148324038476436,0.5395728809844973,0.7062566281268052,0.13992487383843155,0.1546408635219566,0.08195822528100588,0.9419612493647131
0.2496617601951925,0.15651724558666916,0.6486799486024394,0.8502548049275334,0.27774198730995825,0.3178683986275309,0.265453415979574,0.9639755371941772
0.2488315081618095,0.167557165499392,0.6506335656464144,0.8507055641445151,0.2506431371466319,0.30644728150484213,0.21747298752717725,0.9513650709582467
0.22015888121567034,0.19244630032884263,0.5922882230027262,0.8048829369760293,0.2130362757671411,0.24126075905860428,0.19452119062447254,0.9674216759494254
0.17389023161681505,0.16323858935376206,0.5691617119696306,0.7407311561222775,0.16672774208694172,0.19117051268413227,0.1166609274191582,1.105204768947626
0.2727683712575341,0.19217458987272612,0.6880420729724247,0.8820176563292543,0.2692691627695524,0.30816240419712576,0.2628351694265608,1.0633969830495908
0.28043188591937634,0.17552639216996296,0.6926179248367756,0.8686613033525135,0.3009961879970376,0.3335706591380232,0.26579830212567257,1.0605629034085204
0.24331588107465946,0.17274153703955675,0.6743026342962232,0.8539220198750133,0.25304661577636467,0.2803836447871205,0.21832785999761326,1.035735605996399
0.2003574705892608,0.16049641208400625,0.6006225474465875,0.7732624867175071,0.20831455046330755,0.22494013607160854,0.14312872316079867,1.0434102182729903
0.24728969392270786,0.1973378110547221,0.6604676393701079,0.8544895281565171,0.24250494279367316,0.3120185606952325,0.21468207946568868,1.0298687232485992
0.26733087185651705,0.23214901500014495,0.7028886387293191,0.9270060730935598,0.3169634545618059,0.37057653841710314,0.2987533552832305,0.9983450294713958
0.2545181786882175,0.22152750584502817,0.678445846390745,0.8705010679010898,0.2524226329392054,0.33698526097712794,0.23033275287791566,1.1248838992589376
0.20576028430566784,0.2112473713670605,0.6257859737252756,0.7950985393458228,0.20138893591003548,0.2694707635780742,0.16255258627948865,1.0893946793769893
0.21451989617183048,0.1998259706306827,0.6168480070260701,0.8037247456290363,0.2079192271543423,0.253787482421177,0.16247328941214198,0.9881853571943708
0.2739805170754478,0.20713301332344036,0.7035606033738385,0.8923968038378056,0.2952599972190312,0.35903749962681725,0.296365077900898,1.0371400165603926
0.24584725972876476,0.22340092121331073,0.668697334841442,0.8492072948705328,0.2748643865813834,0.32385627752415824,0.27382604028210866,1.058189631459604
0.21708914483243982,0.19565592839668816,0.6047082583903989,0.7785592894365128,0.2162542720181928,0.28311113855597403,0.19519447118594013,1.055582407198225
0.20195838709032304,0.2020730762762022,0.6002555893692919,0.7824113061870056,0.19302875374878356,0.23379076021688988,0.16275360578922338,0.9933289129083802
0.2610663431490042,0.21597111484712064,0.6769504694019751,0.8828844396934507,0.29829549767724584,0.36967879577584584,0.3175969135740051,1.0705597953499033
0.24439453424349367,0.20056732649077808,0.6537014750055018,0.8464514204006418,0.274688300314171,0.3662258535513807,0.2842146928574292,1.1270441128813287
0.2165613807553569,0.1675136974336629,0.598500029821168,0.7890212605153649,0.25235384477466577,0.2922837400258185,0.209877898523717,0.9835919402003535
0.1858415783172736,0.20639203428410496,0.57106998466239,0.732660071322454,0.21722290422410734,0.2577400650902171,0.1749101706311583,0.9507492563274145
0.2620192679282597,0.2132213921403351,0.656965756339934,0.8819092701078811,0.32577231618705993,0.4054437090703902,0.37971946382827304,1.0192039942717461
0.2582707009459194,0.2087656459799036,0.6774683798470184,0.8570177174473839,0.3020260376569143,0.3931512009095729,0.3136533196321235,1.0561291798146533
0.23716181535276915,0.21088290429292625,0.602854225415614,0.8096629837295205,0.27682492933327607,0.334052964570463,0.2559651598978472,1.011083671109478
0.17061324459936786,0.20189727763376633,0.5495445122546767,0.7343755464690492,0.19319538962190436,0.21910903000339324,0.1649402429682233,1.0305384391985943
0.27113020848713104,0.2219731239715975,0.6756667752133454,0.8530807337967008,0.32486993481954973,0.4079288739174449,0.3282360348930219,1.0994605113113083
0.2641066177274931,0.21957645810804916,0.6889124495928414,0.885838328686829,0.3130057192397071,0.40805786960018,0.3205085159222209,1.0170051599101966
0.23005027494694694,0.22277232305546263,0.6225804798618751,0.826105260787802,0.2807133782236061,0.3417866838465158,0.2729420172799846,1.0273170875539177
0.1769178236347031,0.18635488651070548,0.5730713194576542,0.7313610001492707,0.19861012966690303,0.24911026314928586,0.16713028130341875,1.0243499879828817
0.20584171823696432,0.21369910309247014,0.6036737723904371,0.7812799420408866,0.2068194394651015,0.2835688339617022,0.20488272890521525,1.036464703318166
0.2662340816644105,0.2091979623908405,0.6507188732470228,0.8426062263003966,0.2845540997802263,0.3740393381539945,0.3034299715277682,1.0415642505949134
0.21972910327909603,0.18669196344455044,0.6278525198759259,0.8055966859160268,0.26570200732833466,0.3358383126390303,0.27219563140022796,1.076238054402012
0.17857721570719098,0.1682187099805898,0.5841487450904519,0.7504020975064174,0.21757156746842268,0.2763757458370404,0.22721941462313403,1.0263556231659707
0.14700425807418002,0.1791569871930001,0.5355922851525304,0.6969445476090541,0.158201095317621,0.21462022205782222,0.1641224618362983,1.044886656906055
0.23943009166564355,0.20837017931248278,0.6234885512008926,0.8090225165964706,0.28052684816329737,0.35652818502076933,0.2929168675553259,1.078212352813678
0.22663346513579696,0.19021003803524644,0.6117214475923575,0.780206051689548,0.27790102232632236,0.3617702283772529,0.2831775508905455,1.0740043163621453
0.19768644214505668,0.20117895396625582,0.5663033112716018,0.7412807703664571,0.2175960055522831,0.28889148912507623,0.20918177773199448,1.0313519489324254
0.13994313643018966,0.19880844263968292,0.5015687467431791,0.6721611341150995,0.14058226285541603,0.18688454871879187,0.09912628059860482,0.9863478572324832
0.20059619641463283,0.21431131238138595,0.6000673653711582,0.7714854816707145,0.24024422166317969,0.3090556499537379,0.2330260578077823,1.1161839071755912
0.23324205165867146,0.21166980775005617,0.6384402758060467,0.8068500244682791,0.2896438674643426,0.3707202728174833,0.31420522802489237,1.007866486206846
0.20498776573511204,0.2098012176806131,0.5813908108929278,0.7667124572513909,0.2720811659591629,0.34236536629343506,0.22888659323962166,0.9722953023396685
0.1508915241616815,0.1904819335024928,0.5364675935873416,0.6829394935581067,0.19956479977430389,0.2374589911410624,0.1808103255305354,1.0431145705007359
0.1484397337475566,0.19833520005972016,0.5154513827027727,0.6951899770570455,0.175587271800195,0.22489405845270732,0.13865715462340186,0.9392862183032713
0.23583398814291354,0.22527423393342452,0.6318511016353257,0.800313977041089,0.2957690993629532,0.3712219998101342,0.3163110703529216,0.9222931969258505
0.2181424360708873,0.2106237908496616,0.6091518685832416,0.7799735517105683,0.25736858343163604,0.35373053485796313,0.3140043639965001,1.0244320507564226
0.17478253319030793,0.1634399317375052,0.5366360347485053,0.7024405045576083,0.23223800945566134,0.29084998497344794,0.24116581991017036,1.0560236761208497
0.12392472357356113,0.19559208213671814,0.45160532766580247,0.6273180332593086,0.1429591451910052,0.20033364668343098,0.14471159175335388,1.047660638085554
0.1716904268942003,0.1913410602647766,0.5468436111830283,0.7464250497779071,0.26073053108468125,0.33958550599377035,0.25872462425097653,1.0728505163999218
0.19695106975684265,0.20391500541437807,0.5650237822323727,0.74854908220005,0.28992443645683297,0.36903809744817284,0.3153233810284892,1.06845213315616
0.17775194456719767,0.2161536706888292,0.5390694256349217,0.7134587348298446,0.24718336411564695,0.30196595380240726,0.2523724479827073,1.0254450316676094
0.12545181627094748,0.1937354661465588,0.47478203307107203,0.6316851210640344,0.17801067319325417,0.20673849383823642,0.13773530284215313,1.020789823655546
0.1421590671145151,0.18314696071591557,0.4781647522903205,0.6498382162408647,0.17587657909402699,0.20909504407235294,0.15506998223287616,1.059001128340805
0.19468909043240318,0.2181991040126719,0.5450932674446226,0.7358631992490521,0.2706719718140106,0.32548967677515245,0.27738635456823196,1.0337226515034548
0.16454026496994548,0.21405646169304343,0.5386306538130852,0.7300245714988532,0.244201035281918,0.3103831190623484,0.22935020397575714,0.9906623924143731
0.13813760775361697,0.2023545612163538,0.48331816248633525,0.6371716423021144,0.19166803264418722,0.22796703036434818,0.18156083642578147,1.110606967052668
0.11485453630716058,0.15980421259199254,0.4550858071514712,0.6360686928686483,0.18038913267380127,0.20538057346956734,0.16542130481482556,1.0505020082015761
0.18182490033942555,0.22257137673379063,0.5586081987988605,0.7335973054991709,0.26871453550704116,0.3350813209132076,0.2997346848926774,1.0169471434270692
0.1878129369198286,0.22087690219144582,0.5427234938535375,0.7212558337522931,0.23641756087139218,0.29931670510192454,0.24834151870090596,0.9472102719640174
0.14315351062502774,0.18445736647576516,0.49174989478269615,0.6646420854976092,0.18709518076050186,0.2392571091723188,0.16429168391982069,1.0463412297263543
0.11843533752966552,0.1679886660494435,0.45287256066176307,0.6207508449499165,0.14217706219685908,0.18198303640963112,0.12349934071579824,1.0025931655829874
0.21852603142280824,0.18279840528351815,0.5931467279953698,0.763243826478387,0.296203927397651,0.40521506393966034,0.3474044895071976,0.9957242435486976
0.18942569881869004,0.1862472233311007,0.5764516992715221,0.754550235909301,0.25697745017686197,0.381016704012746,0.30171178845179003,1.0304725794277991
0.1639937219720332,0.20673015355204125,0.5263770122271264,0.6952276376833642,0.23307425307642177,0.3015412931419481,0.251797522067876,1.068683364027223
0.1121235445939197,0.15523052825412625,0.44214398890112916,0.6549879373068996,0.19553044128795974,0.2096160698311861,0.1595797050990015,0.9094196443318718
0.21928880877074922,0.1728476711194524,0.5665084536593195,0.7765101224821617,0.2785366337474482,0.3445032996442935,0.29372272828444335,1.037232348997706
0.22158215126309447,0.20502214233285593,0.5967269120338864,0.7958572644668845,0.29871456194613605,0.3906058547397584,0.3244974515241388,0.9764157771109865
0.2095027381579968,0.19463100657913335,0.5850079111442287,0.7685519793388571,0.2577954979177899,0.32176271427575376,0.27213730422720017,0.9706575878386445
0.16020079664824827,0.1966203741763156,0.5120262835278429,0.707712231689595,0.2199205880733765,0.24312231106242777,0.175206264451616,0.9796081265747235
0.17065574077586323,0.18476017817312185,0.5243000373430051,0.727532102853996,0.21088378190714707,0.24864921289550387,0.2068057553123315,0.9013482710701344
0.23697558577359995,0.1937339734190169,0.6125904748505392,0.8125876330917498,0.33505037300650786,0.41402102503677435,0.3917148473246979,0.9168576162037727
0.21575316388275315,0.18650854636042202,0.5655076860421899,0.7688769307003934,0.32299486023840274,0.4254501157369771,0.35878450397875183,1.1097146433383163
0.16486884650918043,0.17008145799380997,0.5141642450434216,0.679767200649363,0.26907322193734273,0.3229538945635997,0.28021474273716096,1.0239505358771077
0.12544777325088258,0.16561674275376992,0.44021177654872967,0.6162814325742714,0.2361526890467567,0.27532049386181234,0.21545033571212907,0.9173708458694055
0.20377451174312144,0.1486642890479073,0.5338274743599785,0.7381577726407437,0.2876520060887669,0.38091007780351593,0.30758740319003425,0.9959939919592734
0.1809944623408289,0.13133584451643943,0.4822042439197016,0.6867039607356407,0.251792237149167,0.28509832565571924,0.2225127941729434,0.9603022548428075
0.13572618843964435,0.12454257331146806,0.44008969773968554,0.646519776806672,0.18573586654532137,0.238907735829272,0.13359739130503523,0.9776835891503578
0.10249495391060666,0.12796566111205962,0.41592619424390553,0.5929432150835503,0.12278425986778906,0.1513569205217174,0.08024495589464084,0.9114175467240293
0.19045302634121947,0.15657390857148207,0.5258927997112017,0.7368378028581495,0.22886630689867646,0.2908468488490834,0.2203648104566286,0.9224201340150456
0.17164344607777832,0.1370125939119568,0.4946188876412951,0.7005921639809809,0.21145252502539646,0.24928249870409389,0.17335985637289764,0.8738521698094336
0.1307910130963197,0.11648562540200756,0.47294880869829214,0.6655801348062597,0.16265021974638377,0.22346918098277155,0.1275358178333362,0.9318697060284855
0.11276130164273968,0.1126425980087298,0.4261237631994679,0.6350220209324058,0.12363030218736612,0.1578186104674859,0.0937677812050269,0.91209280016035
0.1965434172385399,0.14746797585431043,0.5608867956062268,0.7948855986465213,0.2305325967849733,0.3272194465262531,0.2562337574895729,0.904562777681915
0.19190882640707968,0.14040034899802925,0.5672378311619711,0.7593981276807116,0.24970892039311388,0.29838931976619376,0.23359643708160524,0.9046809583415905
0.15639901819477614,0.10998057486816291,0.5107561098179358,0.7150069082315622,0.1821890700225799,0.21508645725839312,0.1382858081359583,0.8192506779988937
0.14240033050247974,0.12324622238749953,0.484874170948406,0.6861567970002919,0.15356625243079075,0.20227287327675128,0.08071200099628037,0.8958145792412475
0.22848714040312262,0.15931427022562364,0.6336500419017845,0.8326488416779879,0.26596075675151537,0.34208110659196034,0.2755109488466127,0.9807399321581848
0.20657297492050086,0.13707227512587444,0.5965915117468347,0.7949563130321586,0.2450803991196045,0.2963472763737815,0.23826362291389952,0.9768062365047803
0.17062305586039028,0.15509640963101376,0.5467318693952731,0.7395593726292679,0.19371927732796712,0.23186506614915453,0.14787117728128535,0.9110882781798422
0.12023359208471603,0.13338990119084077,0.49429303714223505,0.6728168308755421,0.12450984276430568,0.13668067463776193,0.06606487622233412,0.9110553692182116
0.24218992277261284,0.1426641757920732,0.6082002585595275,0.8252399707402918,0.2411205025670693,0.29185525824044123,0.22990122698846377,0.9739192179282923
0.22017492829400598,0.1588047695860802,0.642477301179426,0.8406093647271177,0.24976842557603668,0.32507448232071057,0.24876040297914387,0.9302278149577842
0.19786632063960027,0.13603066011769954,0.5743601837364054,0.7763034785121692,0.204064884670714,0.26403304116545,0.1608557379881256,0.8740739596161573
0.13663134920543651,0.11997670012061172,0.5076706621864258,0.6888076085179982,0.13598340680728271,0.14049850991459234,0.05142760662240442,0.888369900384
0.15754678321142496,0.15563624682276722,0.554506979911562,0.7422028013295149,0.16059408048095347,0.207824515837699,0.11865706606819362,0.8564137283776124
0.23144166587569723,0.16232718466839885,0.6212508825550979,0.8254360458149594,0.22027328142904692,0.29141724248917344,0.20228355028337908,0.8860500937905991
0.1793956773977109,0.13367114356125914,0.5637902039179993,0.7866947092409573,0.16512128945710597,0.25693155920351585,0.1295411515511781,0.8859604944809967
0.11439116537211157,0.12093703773881523,0.5119228933750537,0.6919928912618004,0.12329362362406948,0.1326394122673189,0.035276310547032286,0.8263196678958671
0.09345998239743855,0.10622567742077164,0.4843097161037689,0.6632622760199187,0.08311125424730856,0.10150289829578177,-0.006168129921287846,0.9526239983045652
0.20174231544079788,0.15088611813799477,0.5972397166455173,0.7746020159955179,0.1922312045378976,0.2486621823820485,0.1466162397533059,0.9198920279939202
0.15058926222982508,0.15539201362471877,0.5442022025679522,0.7385863544028495,0.14756774609751486,0.1952428984245473,0.11678817911739697,0.9323636711212356
0.10907779040297684,0.1280360659477181,0.484785850099711,0.6672408083312217,0.10149007393912801,0.13178578486971648,0.018329940343130458,0.9196139568622819
0.08532620176542492,0.12736027910158762,0.4536841663326148,0.6279018387103016,0.05788408958123756,0.047714333556234945,-0.02690409703699015,0.8890618107036556
0.17375566598157882,0.13491176080934286,0.5584324080388513,0.7413588273950426,0.16591290429530142,0.22582349325976972,0.14919272032476708,0.8718713561890283
0.13767732276457822,0.14429401938985423,0.5389786690532781,0.703455929598746,0.13036505972033785,0.1740729050335641,0.08002557350296524,0.9275355597516934
0.1136788958855071,0.10496954407056652,0.46919989445292665,0.656072250654953,0.10131406429295553,0.10913631763012019,0.03261548693284183,0.8054413428843212
0.11479101323595992,0.13229337261070506,0.4885110220370505,0.6659070723269056,0.0702043776189587,0.10199914960601872,0.03587734769394968,0.8608160346713507
0.1828747617319032,0.11810642441360747,0.5747629602488322,0.7613169269830242,0.18740067531534355,0.2726126466590211,0.19868805390651806,0.9206857464280094
0.1600889295935939,0.10708639991905791,0.5184095761206484,0.7383503264811336,0.15713798364951367,0.19322231005876667,0.11665088266212018,0.8486727098264824
0.12740497689384692,0.11829989843924213,0.4880096368500327,0.6458284764570211,0.09795472260706226,0.1415328077456046,0.03773208122946317,0.8179923416627081
0.14800957915438898,0.1356800087329174,0.5249197566639653,0.7180040472991305,0.13016643988004534,0.17141084449409402,0.08543153301204875,0.8780748361742621
0.2205616962557076,0.14161469584042197,0.5908701487689585,0.7955641648201649,0.22828361455834337,0.26617977703627005,0.25290229484163146,0.87163912552964
0.2063147044227575,0.14556813365673604,0.5734118826151532,0.7681801787184528,0.19115536525139376,0.23323104748129803,0.14265578724188116,0.9143933277033809
0.14976874739476634,0.14078628654148612,0.5228438507934182,0.7012435301820511,0.16094502768960975,0.16511760321318256,0.08384221011514573,0.8564441933091154
0.1744105181731619,0.1512642541544172,0.5462779115804555,0.7191002179691321,0.1422756563779226,0.2010467154334958,0.08329195517084054,0.8376426956710039
0.24978719275448807,0.14354770395682598,0.6400320297789308,0.8458256160236981,0.2536275933172295,0.32426983864154313,0.23851373760555672,0.9767605067617569
0.24542681461178717,0.156876922971938,0.61507648174554,0.8044190454665647,0.24131062384045207,0.27392089139692954,0.1987988981506903,0.9254947931396682
0.18375898827276665,0.15226269513318458,0.5553755332137531,0.7446026327423527,0.1569473923031632,0.19550115090846287,0.11818552728919632,0.8753690313100846
0.1731070644419611,0.14929568181109776,0.5067604008574472,0.6899248429334406,0.11201970312713339,0.13263921948743623,0.0406101269456641,0.8834906207449178
0.2722042782836775,0.16040251920905244,0.634719665869206,0.8407090975478642,0.248662156195193,0.30567280806172775,0.24201862910410185,0.998399347573832
0.26269089191941697,0.1660160374620917,0.6412826705057906,0.8440120915328735,0.2478641491558946,0.30710552215253106,0.23632597068801253,0.8972225594258769
0.23066794584059103,0.13840734792395637,0.5871953684098387,0.7874113271390636,0.22415292999242725,0.25267113942122604,0.134770421240391,0.9136192858740498
0.18135126637637128,0.1285820371304263,0.515564718513259,0.694614913618956,0.15267694525361453,0.1674086600604701,0.07309949128494697,0.9072966965941269
0.18531852173895308,0.12807042774981542,0.5511648177945654,0.7269426636771824,0.1532429315353833,0.16079447009668482,0.08223347302763345,0.8663454387814372
0.2651620684137639,0.17472667782798051,0.6459718060956595,0.8344631507140333,0.2633344866263159,0.3060273082657723,0.21393368941595137,0.9207997864130184
0.2539113649815028,0.14991618940840418,0.6157787510557037,0.8091479416307344,0.23519787667684128,0.2738169461256038,0.17175186421035601,0.9617886409800123
0.1717790653478608,0.1447866798860753,0.5448878592078893,0.7402782582150375,0.15382860888780125,0.16451351722118635,0.09275209137103513,0.9464083750481317
0.12914710900884172,0.12762071724415527,0.4695398944172354,0.6426427680182552,0.07226025458777013,0.06763519716109986,-0.02527800329701063,0.8471573319424834
0.15385871780547117,0.11261965527214837,0.5274520115412934,0.722130579641014,0.16082602531423992,0.16764013612767076,0.057348833378754044,0.9685950907472993
0.22761519425082094,0.15148104453184108,0.599669631486895,0.7837914846627702,0.2116762760781063,0.23003470942660614,0.12923314221930815,0.930999442007068
0.1890359500627391,0.11514631210993008,0.5639899682706688,0.7439098658417889,0.17197375073284937,0.1979824119549672,0.0855917239742934,0.9299259816609529
0.15131784124812664,0.1338356562793871,0.4890186788431127,0.6638301703275362,0.11054508312548833,0.13928574434702778,0.038230393243310484,0.9015117278762785
0.1406265909344166,0.13678939098926296,0.47013906721930565,0.6668246168756985,0.0988639108754913,0.11424176596627664,0.008733036335845074,0.8940534508944543
0.21321553564519302,0.14863103720926157,0.5652073036955886,0.7556054266804353,0.24075488629422442,0.2699761726053894,0.1717887010946364,0.8939936616500116
0.1818531765479492,0.11906681921477547,0.5240800120730371,0.7042868091001147,0.18366443325686302,0.19885790211657728,0.12971801583600895,0.8828526828886626
0.13866573401425536,0.11532661276121964,0.46441794593151203,0.6423026004858461,0.13082572423055874,0.13487120304405478,0.024069594998671145,0.8887082997918065
0.10336726372587342,0.11774992140071477,0.4211697029104854,0.5940816485448958,0.07295710164615773,0.07369759670805034,6.576715487683626E-4,0.8421727168284908
0.19471388087972097,0.1284652428039328,0.5563505946685565,0.7506329403196401,0.19987296838238489,0.2635249216706089,0.17660127376447102,0.9192190930059507
0.18797751732190882,0.13492517718567443,0.5564709949136233,0.7419381388831437,0.2160626693076176,0.24143189848295607,0.13680712545624674,0.811586439780017
0.1522905294118259,0.10703560563120618,0.4899374253800949,0.671730961576324,0.1634180385591888,0.16702077789422845,0.08238867438084269,0.9134708415327804
0.09017071126988195,0.12399902964433754,0.4250964022089532,0.6029773259949258,0.08198362037891962,0.08000491082343775,-0.011155245652467394,0.86731121743555
0.1888840055352259,0.13566588993633977,0.5661264957842358,0.753436334736116,0.2044047250826936,0.23285557669574822,0.14262413282646796,0.9102502108979766
0.1985411549201797,0.13051909428049674,0.561282368283551,0.773032559716073,0.18887579321264894,0.2539795396120836,0.17372057886029674,0.9124607108959006
0.1736782549813375,0.1191019991017104,0.5318393114456161,0.7331652453779811,0.18634198590884307,0.1938416059475614,0.0891207531950012,0.9588174907484461
0.12361914430397074,0.11778172562953465,0.4723554620202227,0.6398766607600288,0.1126538744601322,0.1038540441440935,-0.018832510213509013,0.8256236571760396
0.16089588953543313,0.14727258834317228,0.5243551450637953,0.7173097639041378,0.16065623293547834,0.186219260465809,0.08266106088460326,0.812716753200166
0.19727011162924307,0.13662383106891796,0.5966407005566199,0.7802772056158505,0.2336862561309749,0.2528981522531394,0.1641618964826259,0.9356712079376581
0.17256739799317428,0.1440900915665706,0.5495811875544918,0.7295245133300388,0.21070432550811583,0.20946272403030178,0.12312025802458129,0.8350143106931958
0.13001497308322374,0.12313523702536897,0.48894500707035626,0.6675117761570621,0.14675243363091992,0.11708683994952074,0.04256893865736178,0.9018400429778013
0.1253314043667686,0.1280017096288687,0.4936894119235184,0.664445744827235,0.11215516683897472,0.13237130514156525,0.03148057001553356,0.824554797695056
0.20269141230228427,0.1174478869701331,0.5741509620113726,0.7712433609517126,0.22111237130111042,0.2505157188881338,0.17323090236954083,0.8604714864055076
0.163492601089217,0.10869083503432055,0.5625847500700101,0.7402982650908401,0.19380173105987353,0.2318646085606106,0.12232312347333243,0.844929985135725
0.10723087533873057,0.11571740097266475,0.4919270010848124,0.671578263776169,0.1081504874618405,0.1567177019414062,0.03948669289951878,0.9097338434716994
0.07863302149697705,0.12840757010458792,0.42154740036437455,0.6226208667959475,0.09602037248780612,0.06582908795876566,0.002071162034622376,0.7889714004847499
0.17604481046447396,0.1323955775669707,0.5254022814697625,0.7187660650330119,0.20701499621287373,0.2234859829280269,0.1466737614499811,0.8644991916868454
0.126175678485356,0.15045776378086276,0.5185092309669956,0.6922661891305559,0.18261237350364645,0.18855805597148045,0.07979486483932507,0.8371118149352752
0.09103434980094985,0.11909234677438021,0.4534620045877015,0.6399076847335701,0.10780202725235893,0.10698673791573585,0.021282998262967256,0.887351818884144
0.07353330963133543,0.10405610893950129,0.435138342990842,0.603947891618197,0.08651232408633203,0.08984770408770729,-0.0018299652574630676,0.8177370743692954
0.15887578712396444,0.11768413224422322,0.5352609111337491,0.7227992850152014,0.21236176700543158,0.2375423140771326,0.11860856634928643,0.829870495049712
0.1287457874358273,0.10403935736626013,0.49233920288649047,0.6853375446237405,0.1533147469015302,0.20131408743733778,0.11493368788055855,0.874347867752268
0.10638347423141244,0.11732300667882858,0.4302571375121419,0.6308660612640956,0.14510523043324325,0.16472196894858435,0.035500513544999335,0.821944820723034
0.11709972485208407,0.11591085001162288,0.4863456203203206,0.676677228264499,0.14854881614494875,0.1458212756171787,0.05480432045651765,0.8177596709504633
0.17696626977934715,0.13925580765576664,0.5396943727198118,0.7371856587003288,0.22451499843447004,0.27215592496948493,0.17311118497137412,0.8517998332215273
0.14560913251589042,0.1185100465051129,0.5339437264183486,0.7297935867855224,0.21116929058799172,0.23012180902081542,0.14450281157242717,0.965139799237947
0.11289125161145076,0.11770339693643372,0.46660725729685965,0.64657774648671,0.18333313167430146,0.16093770474089203,0.039909747186938266,0.8654104395886265
0.17868499891684303,0.1205166186001313,0.5514931760555274,0.7648724786212454,0.2160998401045288,0.23769684356436255,0.14226013104465707,0.8469865082246648
0.2207913741928615,0.14355403370153189,0.5929134284047021,0.8218107040546957,0.2974600264563926,0.3315551923561524,0.24347132999519747,0.952974537774027
0.21294719624216696,0.12391008053739473,0.5705109796980145,0.7648901448549223,0.2504967151094592,0.2986760992853681,0.16903369442686988,0.9091993266267036
0.15572948464572722,0.16090468597878355,0.523318426976302,0.7073939889739718,0.19963514432680105,0.22309882656992927,0.14128240669521053,0.8903724714666887
0.2211149771332516,0.1476418756878902,0.5817215184455548,0.7755349800578142,0.2725656590699123,0.30028882905630117,0.22830095353617313,0.8606570310277085
0.2644643045247122,0.1578660471623744,0.6609493619787588,0.8351097275940129,0.37889093201981805,0.4123595645957719,0.3196905047298644,0.9132863068310156
0.2451551537328317,0.11290257667706968,0.6250470648518026,0.8146506629985197,0.32277396931597485,0.37374134716743707,0.29024440428544446,1.006430380537588
0.2026409730502907,0.11404779154908144,0.5590610326170105,0.7460888174928415,0.26711085211507646,0.28275483207708085,0.17331320625193042,0.9336363136270861
0.1833512039159327,0.1390727802420083,0.5310845427588292,0.7014654684044241,0.20048043616353461,0.2555938260809305,0.1506741815890842,0.9197852260394619
0.2921645587692282,0.1303947481794056,0.671127080655454,0.8549250191330687,0.3678901339159284,0.45211816540678135,0.38635953047786326,0.9974143483497335
0.2790962242738683,0.16517583016299825,0.6636829712247866,0.8406294195351993,0.3636410467222669,0.4441746074559807,0.35598063313410033,0.935249315805005
0.24917464814332135,0.1298558607538418,0.5986548232073151,0.8018072830556828,0.3143992260869883,0.3641940005493687,0.27002478765834226,0.9857752840807739
0.1957712263511835,0.12697821263408618,0.5266589262452519,0.7212205207212763,0.2533932126740853,0.28910389619830934,0.15172997480376255,0.9062993246644032
0.1787204531179466,0.1264749937498323,0.5320746036175982,0.7066034775657586,0.22311307530523808,0.2709196987925223,0.16397538335963252,0.8659741648121918
0.26685870015269175,0.14005421224055703,0.6434463449634196,0.843449442260456,0.3568157481012948,0.43526354298010766,0.3707438005235321,0.9918616830766851
0.2653778395173999,0.10687229755391874,0.6227716900354763,0.828141698924752,0.3405968352825549,0.41110664359949833,0.31389979450940947,0.9325256657130736
0.2164396677815555,0.12761370506828276,0.562853513370983,0.75456864742859,0.26849943694999345,0.30995247092489453,0.20338814542146935,0.8823623851579518
0.16834000086494258,0.12381658895530759,0.5029525544733986,0.6665910793282721,0.18533111420343204,0.24222582003108942,0.11003063615244646,0.8358985764356313
0.14127512368040068,0.10241234240334399,0.4940160923238582,0.6567853581847584,0.17846557298945281,0.22182627427237078,0.12892890882074937,0.8621073205010802
0.2430578620370827,0.14502497445452478,0.5959817377261711,0.7716998160270376,0.32679570287163984,0.40825474653824767,0.31610776109977545,0.8783072831132074
0.21779407231126321,0.16908114022311993,0.5678782319682045,0.7330538304163212,0.29853266049237315,0.3762010909972929,0.2506705812144869,0.9347179068124903
0.1663760721158582,0.1278898699202697,0.49308212422860265,0.6608986181149946,0.23102547191478545,0.27289173521248083,0.1544749728002806,0.8755747589751108
0.12550945180886103,0.08881004469468318,0.4392777733988181,0.6005446010636131,0.1484445186989223,0.16655156707731283,0.04888841447716538,0.8368686157533332
0.19626002979447144,0.10513006297715197,0.527521448719464,0.6899254726447309,0.19444582793094692,0.22691356937817175,0.15718952590845017,0.8222178862192147
0.19058170662523138,0.12781271132323072,0.5151187677819449,0.6989076784797246,0.22029671857133795,0.2722437890420609,0.15244648426709548,0.8581019084136341
0.16576035613619072,0.10935397103894956,0.4752832937444432,0.6598622623104189,0.169080841918807,0.22673357212397227,0.12092738219510818,0.8410569965028816
0.10889008136797207,0.10147138465148084,0.4157619896088489,0.5610601001525645,0.12151449851864454,0.11377867402467207,0.032045113546078946,0.8653608734115193
0.10143942873365429,0.07576749441599748,0.4135843658914883,0.5688437941353705,0.1064167029987384,0.13535723725130908,0.03805137583089496,0.8965827474688238
0.19455209961010161,0.13125791400646042,0.5240645636252329,0.6572619549579727,0.20165905304316345,0.2736746622599028,0.16951880144250292,0.813898982753136
0.18241909372301918,0.1378190305298615,0.5018654192704974,0.6410842902442679,0.21538729126892595,0.2449509585573602,0.156694889517986,0.8987678480014107
0.1366458064646891,0.08757347319317171,0.4334767618272187,0.5557521207383268,0.1429369800394036,0.1869021886991385,0.06846883654556321,0.8861639168391917
0.07635327815640101,0.11525259326724327,0.3685577575465162,0.48206376035402027,0.1126215993454123,0.12988506581902812,0.06767531470440763,0.79548770366053
0.17909327717633267,0.10573714924779654,0.46705853328593394,0.6031729517224399,0.19618633274348912,0.2649021917062502,0.1796404049089333,0.9262421286529365
0.16531085818097196,0.11736197039145413,0.4394447263214616,0.5902238758387047,0.18390468311888483,0.24438883398409028,0.14088732092303569,0.8173254761955204
0.12567441709383098,0.10539947384691528,0.40510182894175184,0.5315047819417198,0.11249380297623826,0.1532632871609797,0.0571732886122282,0.8328265213147292
0.06916559235137272,0.11149873686385664,0.3638331532172683,0.4673476841047093,0.0539997833684078,0.06129039265910646,-0.02337410201064649,0.8224802864842997
0.13467315861064164,0.10265772673552756,0.44556963028093577,0.5646302444672993,0.1551234717208814,0.17743905658192669,0.12138250950314691,0.9315727281473845
0.1393839566083613,0.12271138602909731,0.4424770180124404,0.574851000657625,0.1714110665980664,0.24606878508947133,0.13353417094198458,0.8478469107717761
0.13112792538054913,0.13430838584999294,0.3776866484016228,0.5083616902034086,0.14610555501233796,0.1923892455224656,0.09699870073452904,0.8275554551045018
0.07124054606178541,0.06446214281271764,0.3043645995761539,0.40855999515040153,0.07088857121575098,0.08824224187492133,0.019793283192820976,0.7820386181189326
0.1361915999500971,0.09136588448453628,0.38287095230115586,0.5206442102263382,0.13635189732122024,0.16008524613398084,0.06652798833571275,0.8772724950244084
0.1333561161748505,0.1335780903342201,0.390416226740486,0.5141996941267495,0.15677309260796188,0.18015663788882116,0.12278489708003534,0.8013167101127259
0.11110013549793935,0.11816868689716917,0.351271149083463,0.47179336526244037,0.13901246635098988,0.15907381379268618,0.06579935357320973,0.7504901766391746
0.04080939463101091,0.08370614947627866,0.2716229523054147,0.4032982498254336,0.026224469291090347,0.05530176760609065,-0.030743651918072684,0.8194890813187641
0.1180324192708807,0.13749596658839264,0.3593879595484353,0.4966948829305553,0.10148379787442074,0.12704752974115108,0.0707127853217561,0.8407470236179649
0.10934242767945171,0.11526781739650743,0.3512177387983445,0.49177978076881346,0.11817031097293942,0.14943302343802495,0.04691177422479528,0.7784901100303282
0.08508728904326417,0.09037472709283467,0.3330647514437117,0.47196097446552726,0.09476188887444625,0.1098214949290218,0.011364825717439936,0.8517640732081015
0.054609989599081754,0.07043887387194936,0.28200175640663283,0.425936438290699,0.021247075231316775,0.016922025753662112,-0.0786854063574153,0.72496634978346
0.14450940488170247,0.10641436321897027,0.40936722735728137,0.5503999393278344,0.12347593696728451,0.1471286575234324,0.062297023358484,0.8971013849314482
0.13333340240370728,0.09995724705677997,0.37783134992506184,0.5276405102150644,0.13723476683240501,0.11505539280573901,0.04103900737669558,0.7974513281389057
0.0914014061555449,0.09452216501028018,0.35602490764436256,0.4868938776431826,0.0826521169785526,0.07665467350550459,-0.01628012712773272,0.8419261325434486
0.09365781239932264,0.11183502531368275,0.3498786383376017,0.47882768872093895,0.04951059912462369,0.097996174985222,-0.04313315325708289,0.7488198029395183
0.18133369398113924,0.12589952784462746,0.44697198115703785,0.615384017140887,0.1845573966095111,0.21975112496342894,0.15110809593341573,0.9225066477862289
0.15437043625818275,0.11091897766333739,0.4461460951638976,0.5974727508693756,0.17815717378975726,0.1743968139670435,0.12043011470271853,0.8736986476266001
0.13145566828830613,0.12465213074944387,0.3954485106971755,0.5608228127432999,0.11171315131251125,0.1246105866392084,0.022403874195946694,0.8279509792886628
0.13511550818759066,0.09228735831461068,0.4131883226503435,0.5795383795326706,0.11690345748633807,0.11550350302102422,0.03040848680317182,0.7995184256353405
0.21338021394290013,0.13114023699534014,0.5342828184179542,0.7052974687828751,0.21774941015300595,0.2594341993058351,0.16658065600780925,0.8814255732045548
0.19949875810789863,0.11736077411181647,0.5118682788708249,0.6939370391947202,0.21298467046709388,0.2468190571785561,0.15020494795779066,0.9435692714942052
0.1794241622969445,0.1463211089263829,0.44907488608748025,0.6314646284890294,0.2106107481581019,0.18343028496545563,0.0855628772949941,0.8767945682004
0.1645633047472682,0.12833480638215464,0.40443381672419343,0.5841993752521268,0.17691923910545848,0.19690455268925275,0.13028197327501553,0.9431910835234465
0.24387057186379174,0.11440617244574265,0.5343794906305644,0.6878434537791445,0.2856634673517904,0.35458829407827774,0.2554207577709121,0.8630727575133976
0.24681768889331862,0.1211501740849581,0.5130958916806091,0.6717228624324334,0.2766858332980211,0.30451526038924426,0.24993442729734205,0.9050110518169898
0.19478116317860109,0.12238378203276681,0.46215359748094176,0.6216387669503871,0.2241409349260761,0.26785080245543746,0.17063502849891438,0.8372550762210366
0.15130533794285828,0.09037306298775785,0.39026140491273403,0.5664276460487029,0.17961218376192248,0.1682375786943724,0.08653810838286646,0.8241230790728176
0.20248556780630322,0.10928188466076552,0.4862385833937701,0.6555795904254613,0.22991344541938746,0.2480139673565812,0.16537064719589617,0.859972671383306
0.2451294951805485,0.12823270505499912,0.5307076038375586,0.6998344405226518,0.26400659315608954,0.2708482723169098,0.20588625751862139,0.907705034598556
0.2045119311311261,0.12304643427017276,0.5056847994953322,0.6602523777415369,0.24409525865430115,0.2808718625042108,0.17261387169922143,0.8713423611093762
0.16164124255583723,0.11535810463294421,0.41967869519026046,0.592715015754023,0.1811933060287552,0.19465556225585967,0.10684982843523505,0.8741635471137024
0.15009552526523645,0.13399632200624026,0.41691173104483614,0.5859870256739204,0.1604452217181613,0.15863532341491515,0.05121810439688104,0.8805810279952386
0.22035467242110424,0.1253477525536894,0.5023538717484206,0.6894521383885446,0.2512449274619811,0.2945808118896773,0.23366077720025505,0.8455757433797111
0.1946885165571387,0.13154089186417306,0.5079321324142518,0.6689984526608614,0.22706424934227853,0.276236983883381,0.16684337025928325,0.8321072323469564
0.15235589034386562,0.0919659270903524,0.4335061817766749,0.6124611758588432,0.18778792882275833,0.20284369815254688,0.08818131891559677,0.9336507330751237
0.09312868010079663,0.11712874199089565,0.3624208922619715,0.5384825834674499,0.11672026995188364,0.09844597907075003,0.04511214416981252,0.8377914629110608
0.17779081055457524,0.129108127868875,0.47574146162016645,0.6521438998606851,0.17843140378141753,0.2123969667127185,0.10963720364938584,0.8463095566139736
0.17473069730942167,0.12657771288688113,0.4611849631895292,0.6479102416386757,0.20072273434943383,0.214593332329174,0.13307565989785064,0.8648455156380082
0.13480879746686292,0.11324450900032995,0.42840462041493776,0.604958445277073,0.18713311329354732,0.1999188880222209,0.1064044862438322,0.8202973715551967
0.08860747788707307,0.09787419331722896,0.3673842145098818,0.5223710441752265,0.10245087093968894,0.13416952763212184,0.05776237291677139,0.7414416679457294
0.16204023754273494,0.09550285979171999,0.432562954304252,0.6373039262681384,0.19243153230753746,0.23802193054288467,0.15975555117448212,0.8605209983595211
0.15371761086686536,0.09650243378149734,0.40556922620886243,0.5983657051748906,0.19078460646308276,0.20722251601012343,0.11085763262954351,0.9330326068420801
0.10761830892194515,0.08402766695086508,0.3884700873268193,0.5418136113850812,0.14300612633835397,0.14687739266865785,0.08488936639189462,0.8748577509570201
0.09599685125864105,0.0638621718587786,0.34981031795920847,0.5277502839627006,0.08976552138664015,0.13626880288598378,0.08413993438559739,0.9268741209843433
0.17191133053731794,0.0996758783322634,0.4560029150218122,0.6316805198939391,0.21549719725227903,0.2754481184505852,0.19466591522988033,0.9281176950132627
0.15198643326399397,0.08639532343867948,0.41142483748426606,0.5967394482143731,0.18851809698169586,0.2497881756903417,0.19132161959570795,0.905279797825453
0.12299405464293822,0.09340094828308262,0.3517119642611427,0.5261131280147835,0.14116147112746694,0.1857436234385314,0.09976688338807546,0.9530814922358329
0.12182507969003772,0.09537944943646398,0.3929441254190137,0.5576902849058443,0.14299885308868016,0.1839442893044487,0.13246306162227015,0.8347277063969396
0.17510266133121194,0.10563910788107861,0.44796783886829306,0.6338553535674951,0.2521544915721195,0.30851314190784473,0.27398801437665554,0.8924499782785524
0.16672187165313113,0.07737661841610602,0.45049222852009224,0.5965546770445357,0.2209553303138929,0.2844498018455028,0.19834486881160085,0.8583618796747228
0.11591374191514524,0.08010618873749112,0.3734796971062718,0.5391303620166017,0.14613460673774534,0.21398910819753242,0.13462133958286773,0.9116002486967547
0.15700962771187477,0.08217512279597428,0.427937602054685,0.568630765309798,0.2086421259085718,0.25013141488194984,0.16097108363975773,0.947455770123242
0.22346834330255289,0.10234584620347971,0.4945016531829217,0.6767495009111912,0.2892858917118567,0.4127408997316184,0.3294862644318458,0.9524312717275079
0.20356668721085555,0.0929498514261996,0.4816097034070656,0.6371423905133964,0.25299722865319085,0.3210471775360484,0.2401903992849372,0.8992783724200504
0.15124388278615453,0.08539210265362382,0.40696170743368887,0.5492814244961202,0.20755549343962043,0.25080995575266785,0.15648874591936476,0.889509721064303
0.1053202771454022,0.10141986766053185,0.36360831747446276,0.47701900129305114,0.13346027782768358,0.16552459545331819,0.10647138779749957,0.9034995246917645
0.2208904553045869,0.10137439972770748,0.5052416315713414,0.6539375191066356,0.27745502709049175,0.3666931359235126,0.31077570092209617,0.992916717476066
0.23178030931352095,0.0968699335214577,0.5053510579078436,0.6387590416622334,0.3026661925767015,0.378195007234484,0.29088524317946907,0.9207035687227729
0.193306300801181,0.11050085007941723,0.4611822324655058,0.5708811179278981,0.23735452419551548,0.32479521904074826,0.25413076972415705,0.9635492739929465
0.13435591310710385,0.09605034977367749,0.36871084681789734,0.48861763432309857,0.16039565260107908,0.210491645342947,0.13089245876176153,0.9147807554710516
0.12230863001804732,0.08785448382155281,0.34414487903272173,0.4837827208196193,0.1658519324329863,0.21217291355455065,0.12484269257497266,0.7610597109583865
0.22325277371555957,0.12120598497256996,0.4772089851771626,0.6007784380075635,0.28255155390412007,0.38490245436426657,0.30425095039023214,0.9436030399518651
0.20048390565228175,0.089116354774087,0.4428229833099354,0.5811104511013296,0.26056874585079504,0.33515461401288216,0.2505970054242189,0.9464215057880982
0.1463150857643153,0.10093156500917039,0.37348603883867865,0.5015489531822042,0.19527221797061728,0.27552169803049115,0.16070637532751716,0.9316494782662115
0.10005589231352388,0.0787249330116456,0.2880809693974336,0.41202724387763223,0.13339733431134781,0.16780736540913604,0.0878840305293192,0.8978346630210382
0.11691267070891775,0.0469635291786811,0.31945246866669236,0.4271257805042495,0.1592083545724539,0.1928991315256006,0.11532527152513608,0.8847616519164863
0.1760926598804468,0.07889016284455516,0.40098220230889126,0.5265125668049863,0.22657605682215898,0.2942244834179462,0.22348904713842765,0.9557104012964934
0.14418096000992853,0.08604074207481563,0.3469819489053556,0.49233395364606564,0.17002075696668276,0.2682274084994968,0.21741779225481073,0.9521979880626381
0.09203515947007053,0.07014611480048444,0.2900746572713643,0.4012465557963819,0.13939339917325622,0.1564196183495778,0.08593407774909395,0.9173683463980671
0.028803714859416685,0.051614994247440316,0.19441785881522156,0.3215219324397759,0.056366898859536274,0.10409762513597418,0.007073953167327174,0.923323532591388
0.09102367884456929,0.07346243445680009,0.28780262372469173,0.39778095079394116,0.12376944869513978,0.1639889655770502,0.10261226936488202,0.9913427914386039
0.12022011728482211,0.06638520492551173,0.3077721162999865,0.4227587382720092,0.16855693559196308,0.24484381761458926,0.14775169238851102,0.9387889714515909
0.08563997932916578,0.06670021238068202,0.2665864385833189,0.38068106857944356,0.12481242779462781,0.21322534686055633,0.12647570157930627,0.8917453078387791
0.032455691363906844,0.04494662602389907,0.1891374471486525,0.3014533613190363,0.06609014785155892,0.11865423437598582,0.013700755596517539,0.8835530568901653
0.02387744793773451,0.052682308425209046,0.1927922614248543,0.29480976340726583,0.0588747811029488,0.10288571702386784,0.032712992386364576,0.8348277740704477
0.10279983670551839,0.05516447596820834,0.2768996999996879,0.3975266368746654,0.15806377879980396,0.20720112001034965,0.1299015793518138,0.8791914637081311
0.06996497763500735,0.07799162003094604,0.24374366477568737,0.3639950543117507,0.12544341319423588,0.17031950471508867,0.09094198479709698,0.8897682479627671
0.020052221192938716,0.06396650957620734,0.17777141261926172,0.27604266151299056,0.055568054814077894,0.08898442877877075,0.019272165228886362,0.8808960797938699
-0.0161761164743454,0.046782048692960126,0.11996068711278948,0.23404651138982263,0.018335013119278903,0.039731633272855754,-0.03909175184646618,0.7492963731312576
0.07947536738397652,0.05147480611010816,0.27445119600288875,0.37634325848271877,0.14819963863640961,0.1995492114613348,0.1069335072999098,0.850369418447992
0.07693265938337238,0.05865988661454932,0.2507861453354736,0.35431673011847276,0.1494254809430489,0.17416468218623082,0.12248593912974418,0.7980125937536467
0.03473476777109909,0.04966432954283778,0.20345480849293351,0.3069944285228178,0.11632114372835739,0.13842677591378183,0.05514394411026721,0.923565320306261
-0.019516535369335536,0.048862140332143394,0.12761281784607353,0.23969696958762493,0.026808101938581935,0.06721813060127765,-0.013834517577447553,0.8771678798553211
0.07574758507446487,0.05162865589286603,0.2422984041581798,0.3774474621613143,0.10684307379962871,0.17199690290494538,0.08477935168554498,0.8737346315123146
0.07186295241957624,0.04506623071089971,0.2484781596039815,0.35876044278077923,0.1601304074780827,0.20192456698289202,0.1200003329638272,0.9391152526767796
