0.0625673313408283,0.3136357224115467,0.1788295315671749,0.1851141672396146,0.16589410928041756,0.151006053448236,0.10836423600368437,1.6616062549374075
0.11250530195785217,0.24118330157350146,0.24042827731224348,0.31044463824308705,0.22790979498581682,0.2369892806995549,0.20749982736819728,1.6459152392239171
0.09697081232743816,0.25448191983850665,0.2577664109205839,0.30559364739161177,0.19257504092593236,0.19666648434711614,0.1770615236049384,1.510522038947234
0.11414172039479088,0.24556922627264144,0.2575337567926621,0.3049264496633038,0.19117889823968215,0.17644047412026354,0.10994461711670334,1.5206437636061134
0.12908355790879164,0.238173769803602,0.3255429065777759,0.38517652060869767,0.26478678592792926,0.2454765137634799,0.18540465311601906,1.3724119953787475
0.17648202456754808,0.21455692321634817,0.3822849295760313,0.47357426863491436,0.2703239104217922,0.34683176273229227,0.2894343589393145,1.4776557637960608
0.1580762448596427,0.25650410582298483,0.35736275144900864,0.5031007415164844,0.28918424779231783,0.3359547195062771,0.2705886608171814,1.3699359211166153
0.12929549406698088,0.24015839820302926,0.33805127080059927,0.46587827959241435,0.2063546776120479,0.2593637144941972,0.22023175466274386,1.3855377493846328
0.17250591878945626,0.24128168625728383,0.4177486992116355,0.5285177215295347,0.25645829125341496,0.33616720532654576,0.3026264298521921,1.4986061518321683
0.17940906563440986,0.23699254364500721,0.4135093765184967,0.5696203172756619,0.2908509494943647,0.39645465777131433,0.3352642203657706,1.4889151986880305
0.1359541015018715,0.23659008586964644,0.39979006819138574,0.5434426959317838,0.2912970045242195,0.34626984485209095,0.2709545120204927,1.438723341049803
0.09187285368954727,0.2257569939865217,0.3549533702967366,0.47504680627824436,0.23320322382172937,0.2836268969537301,0.2201541480461853,1.394771917612614
0.1643856223892703,0.2297662305744032,0.4056268467474172,0.541671546482137,0.29142978516971124,0.3766132557568551,0.3087849042364751,1.4070970137807894
0.13049092308514446,0.21900035602885767,0.34640290810744967,0.443902372106255,0.2443431092263324,0.35870765802400395,0.304154878021802,1.2739410737075247
0.09210506713918103,0.24618210021622491,0.2637902849334651,0.3481120290448435,0.21177933671362806,0.28353715307997246,0.2590275233314876,1.4581942550749407
0.053846149354423,0.23988594492567164,0.19838650516868372,0.24458754893074283,0.1751847122138126,0.24054743327066413,0.20327663427528447,1.2337454926529663
0.09057862398968997,0.2168112510572155,0.2380531652962326,0.3342167551647556,0.26342869987563866,0.3363656963278129,0.35327215096173364,1.2589241986362922
0.07333453007538443,0.21724856071787246,0.16646727584793777,0.23268306575064404,0.21338308704378056,0.2645265761405829,0.29156858744033426,1.3247708946581722
0.01177750114554057,0.22483320632813777,0.09194879274832879,0.11323707900223946,0.18637923034933193,0.22146266191962793,0.209536061019634,1.3508133753275922
0.04024211018247933,0.21483432394653634,0.10486656314577775,0.08212646933524297,0.17693171947966016,0.2261010602164664,0.21797533488505438,1.3046651184938918
0.055941021854146816,0.25476545860512995,0.10214466622132565,0.1185619092761447,0.18870560757530117,0.26162602613896124,0.23363631648116043,1.316985890535745
3.1617859891975976E-5,0.2578063929238867,0.0652344058556296,0.049678633154322846,0.14598837464058684,0.17731648677905074,0.1518196979113926,1.23229205438312
-0.042114767357140676,0.2656520444835766,0.007346221833498623,-0.023877716008429733,0.0771354551218947,0.11582746035746996,0.05839003098603917,1.2448481181487847
0.015223888682128994,0.2811872304765238,0.0928597373859473,0.07776189334511537,0.1498482470147936,0.16837000984542452,0.15372374442689915,1.173700108914332
0.007016941266189225,0.21820161471620847,0.05161480771534485,0.05150361157701146,0.12242587026921037,0.13968950118645207,0.2019077862215419,1.245591713656007
-0.045878167186717445,0.2651361089850273,-0.014658113863415836,-0.036757444367152704,0.06415624108310636,0.06616179532824717,0.03318997028399825,1.1444628118063265
-0.12133147229521875,0.2855695511128635,-0.06692735643204653,-0.13953413481483615,-0.04555919159267028,-0.05896034390044719,-0.16086041646953586,1.1917317211403573
-0.0446384810952043,0.2667831580822344,0.008609925592250147,0.012448475243724416,0.012690257289302731,0.009398073037637532,-0.02766770410412519,1.1593205268063356
-0.00831549930899594,0.23352618669907085,0.009502829470792474,-0.010562209439644425,0.06648365358826813,0.0658807236717527,-6.594042204435026E-4,1.1097287517372503
-0.07913551337864601,0.26227221646976995,-0.04585317228657537,-0.04185274208759984,0.046472308080080814,0.044848230579097106,-0.01753981398887585,1.2292778119144072
-0.12236704043346874,0.2700833986892139,-0.08650521150833057,-0.14259943012104373,-0.019160039826570684,-0.05547875190855115,-0.09358789469291562,1.165420013936487
-0.05066183312086067,0.24406862598159706,-0.006899999853830412,-0.06306519253367114,0.031138606337964378,7.779469626890793E-4,-0.028939537210572557,1.1983472751740087
-0.05809605090490852,0.2762932012563006,-0.008370195293124123,-0.0636837342209075,0.027880645679948746,4.413016247167908E-4,-0.01818244194955936,1.2291733351589196
-0.0839805066890359,0.25407268787322784,-0.06227358068248714,-0.12965750442833598,-0.006722143268903947,-0.04139147789594273,-0.07208114512133665,1.174557108245704
-0.14805261129806738,0.24249148093219022,-0.1535899127999875,-0.2410648841335994,-0.038970730880841624,-0.10404298243332799,-0.1762907959919557,1.1630445756736683
-0.093928975096636,0.2534470541634041,-0.07110805036745614,-0.11584985830654156,-0.05327412379658013,-0.1407026499185884,-0.1493734292929464,1.0346980092692801
-0.06927487438163743,0.2579427923492047,-0.04743731228964754,-0.10565568816527209,-0.0034453872704058317,-0.07426280348247975,-0.13449557205627505,1.0535123055867899
-0.12233220660419825,0.26707739912736495,-0.0931959216023511,-0.15194199842257214,-0.06894304113005745,-0.16190272939375977,-0.19912127851936579,1.1133824225118463
-0.20707921252631278,0.284868762251855,-0.17340822329188985,-0.2769105044843806,-0.15609443284161248,-0.25286543645403864,-0.2963874138895966,1.1951513715130613
-0.1117326055412115,0.24352224256438162,-0.07580989810310801,-0.1283172237558714,-0.07575503887821063,-0.18449312389934555,-0.23960688735190622,1.137010477352127
-0.10942767929238371,0.24628868984342045,-0.0824397976201844,-0.15594350078999594,-0.08045946068333679,-0.14272560298550963,-0.21701677312107584,1.1985537878063905
-0.15384680690648242,0.2579000395153551,-0.13758462074947492,-0.19802195694129715,-0.11248126366672336,-0.218447681886071,-0.26085360504213406,1.2171709200950727
-0.20463237825541347,0.264303054032286,-0.171497685207975,-0.2494286032738958,-0.18936163918818893,-0.31166479372156025,-0.32054540350924154,1.2053271279360653
-0.09293234517041435,0.25863647523664973,-0.03462786252150426,-0.10838712662835927,-0.12239651730495674,-0.19186089704791762,-0.23858828060821258,1.1017851906109248
-0.13590389185921936,0.2403567778674962,-0.104252358223298,-0.14851573005086582,-0.14717504313997384,-0.2239101576371212,-0.285293695905279,1.1114869951498092
-0.19327139131957125,0.24819388992676633,-0.14661930871142415,-0.17871756838033076,-0.15557234348975305,-0.2999732801747625,-0.33457708093753485,1.276275967798062
-0.14902558904843483,0.2407371052657493,-0.07418340482541325,-0.13774984420082412,-0.11800390712069853,-0.2556661345574849,-0.32393136571917835,1.159777229524685
-0.09982572044578202,0.25301512133605314,-0.0466523662065265,-0.06237541587931319,-0.12372697753840493,-0.19415265848154192,-0.2720299934480649,1.1903352290214706
-0.10276768479392308,0.2618677388639616,-0.07344216827418057,-0.08478846199920474,-0.128497851507179,-0.23143868621332986,-0.3061794797753164,1.215926990036128
-0.14443626706822893,0.27782029974902067,-0.08541539179485011,-0.1154847123721635,-0.16318430557789523,-0.2646262200411065,-0.3167111880414606,1.2820878152856616
-0.031859424431305204,0.2563017793199306,0.05057287331454559,0.04868515492314286,-0.048346993219937594,-0.13462987288660538,-0.18967106724435365,1.1628052711000316
-0.05519371999916122,0.26154927789745414,0.03060738373425377,0.010876771371164403,-0.06582917832710825,-0.15293065753315463,-0.22718358697477437,1.244603334927734
-0.10083838875306173,0.25924449137817945,-0.0030374820436719625,-0.02154729990257984,-0.0837742985862988,-0.18567552314424246,-0.258874114405123,1.2139175228308259
-0.024279594604991354,0.24265069989390733,0.07881403456991498,0.09005539867637968,-0.04092186617688109,-0.14482393589708936,-0.18625755550959996,1.2305066472609685
0.036375648949809096,0.2243105490711274,0.15239196584737807,0.13472103718698564,0.020514491786669753,-0.05166984784399493,-0.1162288483059422,1.1689488781467483
-0.010093705816368476,0.2586519560542324,0.1403922359796499,0.12919698367797458,-0.009061193427130817,-0.08327675494558341,-0.13937933524173,1.1833739989635728
-0.041539940939759296,0.2732105511210813,0.09923169498196854,0.07556957341169844,-0.07589752593535888,-0.14447823004474378,-0.20821349043628598,1.1644666352555957
0.0561667088795182,0.2330100867262804,0.24128778991585298,0.2471882849355683,0.028434230410761107,-0.005336135453846073,-0.06347546243350782,1.2016931384014924
0.0521479805963483,0.22113541515459428,0.2775262731769667,0.2632986248246705,0.07444873454672549,0.02364165419625724,-0.030496621030538632,1.2234848223392731
0.024550419874202426,0.2621164930702328,0.21268178812275942,0.2426833924622231,0.026101627815114152,-0.03431245010912533,-0.10202308119090418,1.274585602135741
0.006548176002534232,0.2280285165941996,0.21114212004593555,0.20057855506498082,0.015195918421422781,-0.09151677564334464,-0.0863781856524774,1.2691642607233826
0.12862136034993046,0.23854882781165837,0.33449965417114075,0.3760013505878658,0.08416661653014451,0.023464052197748456,-0.03662784451364835,1.1543805801918556
0.11857192875858832,0.23885569247233054,0.32688033996607074,0.35255835464987706,0.0821576635806646,0.009021758657922468,-0.024526885750892576,1.243695780696575
0.06018761998519781,0.21985589010821066,0.27112509956824704,0.3207828074900126,0.05212436656045911,-0.022182883675495226,-0.08235929652437386,1.2051322407157965
0.03201532651707268,0.24142585739063271,0.23529514398124965,0.28326850825758876,-0.01932876256649926,-0.11722618038810681,-0.15243171404027636,1.193607382269438
0.13039999647768746,0.2392528808717019,0.383974543249959,0.4249693247999572,0.09271538772148724,0.04731398543007858,-0.02090011297244834,1.2125456037758748
0.10785693584164134,0.26413174386182037,0.365757382328521,0.41150541394352547,0.03820346742951311,0.004966756072085663,-0.08724046376045337,1.162341873367003
0.0898439122371922,0.25495236697291923,0.3385700098355631,0.35303692990500113,0.020358245321818874,-0.08091080649511202,-0.14052972692303278,1.2254939264620022
0.019759317770720985,0.22881681902874315,0.23093362732295464,0.3192764852367296,-0.04705346812789541,-0.11809830462255763,-0.2324292679229967,1.1272115045894289
0.13715547998716016,0.23491298495882593,0.4007669164788981,0.4467569394031591,0.05279431520615053,7.54795804647015E-4,-0.10432526765100794,1.111156663405893
0.09264171294883565,0.24099533241167606,0.35429068558590154,0.41679262784205134,0.014343378131933919,-0.07293207728553423,-0.12480823927059502,1.276895344871297
0.06649390552603547,0.2633568149875377,0.30790019043490047,0.3857474013575332,-0.05067382348274225,-0.1120529975331118,-0.22220281697285169,1.2031263859854786
-0.0024674698863213352,0.24081838727830393,0.2553968347775608,0.3404675411811112,-0.11096221725212542,-0.20231820877434822,-0.28498393847503845,1.227241078572086
0.12474248215004238,0.24309177317542272,0.37707681057890735,0.4872764029926764,0.0021721744519409736,-0.11838767866164276,-0.14047800158418094,1.110138404938177
0.06256337671983167,0.2312193144910364,0.32997915902782377,0.42850392139120475,-0.04374531979237891,-0.13207014377858337,-0.2098277325920292,1.1911013212325423
0.018330488988436717,0.20233392297715003,0.2897609649596603,0.37875060071870525,-0.08785149264191532,-0.17263992485684584,-0.28238591818861164,1.1814425968375089
0.02635998664393406,0.19308369382032903,0.31455258099623246,0.38434056365315494,-0.0728903780907382,-0.1985963859951491,-0.2625807372906907,1.2283112481483747
0.060225847695979676,0.19049670175778083,0.3890998179031498,0.4661751211317841,-0.045772670335676315,-0.12695215193042006,-0.17533392324698224,1.1921169765826942
0.06733287033924813,0.18956837851809108,0.3467252396953092,0.4451162016328657,-0.05615955602492444,-0.12646611787907214,-0.23506955924075895,1.2143054789625873
-0.01726608532528814,0.20929672782301417,0.25846073717052626,0.36649226619306513,-0.10689147239011973,-0.20924593570963376,-0.2967390220158647,1.2539189398340942
0.10904045273797276,0.18112625368089597,0.4080275114600807,0.4865646404333251,-0.032972563657211865,-0.11033785705994986,-0.169187761639477,1.2196313682249265
0.09355340357676636,0.19850941659523572,0.40418234686531845,0.526402829055336,-0.023813414608279744,-0.09030946338052548,-0.19296668599512776,1.2025761927250698
0.06291169380570656,0.20081546293724534,0.3589673988764778,0.45190774811836504,-0.017262413403322702,-0.11110400508462284,-0.19421126825076024,1.2023886170855373
0.03578473333372,0.1678909136653747,0.34770097210791373,0.4432709967708984,-0.05733353289306506,-0.13669646907826682,-0.17176105154172247,1.2204517025990893
0.1260321407031609,0.17224737349912014,0.47419421982197235,0.5775909684422946,0.07413690021704623,-0.020436932454855034,-0.03711932629234602,1.280690405490996
0.1301697279335963,0.19495761729995942,0.44348528025483447,0.5586163511229196,0.06335435787135776,-0.012929163770743926,-0.081162457606632,1.2988689020588529
0.0840500442491427,0.1917276506931501,0.3689340992128326,0.48785622579391313,0.03513951172139536,-0.05397675713765347,-0.17195278982112647,1.3025727254380026
0.10538926818835159,0.1949241300698598,0.4187763852153671,0.5082704924572512,0.037675207045442305,-0.0423097288791313,-0.14852586171029142,1.34262015205567
0.15810442620421275,0.20320832145439072,0.49404392371619127,0.6342911004946113,0.11855092481102666,0.08634161810464815,0.005981464289012701,1.401883395143577
0.16458368245183672,0.21232120825841302,0.4712561705425077,0.6139071103098511,0.12655831335286355,0.061111190640774665,-0.002302619191912222,1.4666841663357435
0.11879576992316872,0.2127652777577043,0.4253165638208908,0.5593488886760584,0.12157525409942267,0.03921439639364559,-0.05960563814307844,1.442758800644419
0.15502554193252316,0.15402680944523447,0.48848545980103475,0.623725703038346,0.13265417877319668,0.0649308555911874,-0.03603184335980262,1.3217198279331621
0.17234509881162954,0.18869925974106755,0.5168547648433687,0.660495068350039,0.18023988345713038,0.13357975973233924,0.034008953303503134,1.2982039041693343
0.08948074939973474,0.238522788615489,0.46333580667153007,0.5709350229474948,0.1722747066804983,0.12878997664339642,0.053931450551519704,1.2217075965019686
0.05666080945687853,0.249783046971087,0.36720844099199523,0.46938704852403657,0.10517549327213001,0.05695951148425241,-0.02583708010594148,1.2395088521963586
0.14213100238270276,0.24809802398269812,0.46250950807155383,0.5929730222760787,0.17259237478395018,0.14167881680270014,0.076200623136739,1.2185978851546282
0.14289864914311046,0.28504300216543155,0.44536204805315205,0.5975481020257515,0.2008505071087503,0.152148991465232,0.0911529836462847,1.149180605032489
0.12164082535682032,0.2491476778746754,0.43656780028714287,0.5784157367479289,0.1345231124806334,0.13782570656392523,0.006291418085354116,1.1834122491762973
0.06766875826127278,0.24669232791851767,0.39961980429042554,0.5126421973590228,0.11831974247265711,0.03212327071389354,-0.11687362370741983,1.1239101753098428
0.17164172638364067,0.2681647957360593,0.5040136592374552,0.6278151163039057,0.17870606536208028,0.1554812510094784,0.06339349963249216,1.2646507880189375
0.16531717839280868,0.2609578531348549,0.4713684225665585,0.6073273181707797,0.1911228875910758,0.1831346565028601,0.06725734564448596,1.187849254546018
0.12137458722975562,0.2684584192885749,0.4213366351251716,0.570718090780571,0.11451744583261628,0.11632565632320192,-0.022540735861043895,1.274682713321913
0.09139230454717029,0.23773828762111435,0.3950451563699209,0.5061907084938204,0.09168078242826541,0.017588392066834376,-0.07915338388809283,1.2657441189567995
0.1350501304903251,0.27492245561571066,0.5008774891475384,0.6283485729051893,0.17600128634195858,0.15412478027926532,0.06034950860355101,1.1648188343972417
0.11121287538519542,0.29339636529571167,0.4559571006449652,0.57028155001869,0.15133329914368843,0.11246688893367468,0.017774054855264298,1.1041961906885853
0.07566529881215063,0.2606378274639882,0.40480693188549693,0.5047522961477175,0.08005916200066805,0.054096309508970104,-0.05753909016571413,1.1110467031563978
0.09214044109042549,0.3013140631739907,0.43344026599740626,0.5529468555039206,0.11239665239246624,0.09809870997150927,0.01938474207277496,1.2623638738700964
0.1040064760313062,0.2618178898658714,0.45253819875253076,0.577424883485755,0.15813093823370256,0.14438820726025267,0.09392470925992559,1.2308140172987756
0.08907661464179946,0.2838091549168327,0.4374092039675084,0.5435721252659763,0.1258210448281285,0.13066524221756867,0.02858837589430848,1.1715927415367322
0.032603980052717724,0.28324794978548196,0.37298916515676633,0.4900500188346509,0.12094547086271852,0.05964355558918764,-0.039357442978857855,1.3088095300018405
0.13363730312362043,0.3011719135624928,0.4725743740870798,0.5619803879485616,0.1733216721630362,0.18426734377108772,0.13761204331117335,1.1811496142170301
0.10087252203268703,0.29271168442278706,0.45095917023417836,0.542140390136099,0.15781904306873348,0.17325786944611984,0.13043170919061262,1.2407401483729104
0.06694251007335891,0.2955250038017697,0.4076076617979328,0.5102888372361957,0.10620767179745458,0.12184636167247764,0.07199855133798187,1.199762546287373
0.0596834753728125,0.3284989851023312,0.4191381877385124,0.5043153063630662,0.11101029139479186,0.16043313122892608,0.05724593120543051,1.1970555133568657
0.12140394019149962,0.27818679334623414,0.4702007400371877,0.6033798983251519,0.16795810383644716,0.24794834746498776,0.19158363599600864,1.3706236851027458
0.09010816907732067,0.262129088293158,0.44295151608594296,0.570937832363642,0.15205850839017948,0.2381448410134992,0.17356739912848357,1.3525864000839483
0.03637717029498676,0.2743985551603703,0.38972311775986507,0.48156781316701736,0.1205461712217965,0.15026883754767784,0.09145652135724495,1.3135700897226656
0.059859563568054025,0.2745598783682217,0.41588831512483565,0.5259748080937435,0.15289868491233768,0.21959384682725555,0.17414996132809396,1.3258853588499178
0.08999490877851486,0.2505965139134814,0.42774074688673164,0.5669806356342947,0.2300365988363762,0.31817442262853324,0.2853303669156812,1.2941892779341426
0.08164049861656224,0.2685988823341268,0.3997815426642667,0.5354212154692751,0.22896643437456338,0.28683980390852654,0.20355868472293848,1.3600618506208348
0.0649617373514011,0.2552240685313633,0.3232829347021665,0.4497332504608295,0.16037311900420195,0.19473560061560777,0.18807132709209015,1.3273217752585074
0.027949318628515935,0.2500630549091294,0.3160477732386578,0.42166062312140595,0.11691484672874557,0.13756149530879358,0.08298701515798601,1.3042959548344892
0.10679979466196458,0.23439662763263602,0.3955387476729336,0.5400114878425596,0.18220828081476315,0.27955021498741467,0.26185202879127145,1.330283807130968
0.10295310955078246,0.24026871265149502,0.3888243121742424,0.4924959747930363,0.16184092959835025,0.23836335221546548,0.20306781936804683,1.3490967191336174
0.04673760172494286,0.247937514961136,0.33290975475120194,0.45856805393352995,0.09595502544054255,0.15239834691106915,0.12726547370563013,1.4115782946316249
0.008861512852893456,0.24390311224313047,0.2641083328529127,0.391727405699386,0.05990800802299974,0.10582220036077022,0.0392312465248816,1.2698770854278156
0.04955540687559211,0.2453594315642141,0.33861405134978295,0.4393680267429755,0.06266878530990114,0.08315830821462314,0.07448918080178966,1.5049004537418493
0.09359134060476045,0.23689783868054182,0.37400191043748443,0.5155141029267022,0.14804359992407212,0.18738736066475373,0.18618549387758376,1.4261935227054918
0.07107016001576254,0.24778734710144168,0.3361338834951398,0.46411938148773657,0.1087710406142878,0.15486352658165778,0.09569212120368879,1.3755510345365833
0.0310443347027772,0.23871271824664436,0.3228664749137354,0.40483859738801636,0.05246279399371794,0.054601296622006815,0.020473865163027846,1.3904549694427901
0.010757240502909018,0.22634997601220364,0.2538879266428941,0.3400930489651227,0.02696997467488582,-0.023401858747777806,-0.06135267901964834,1.356435899540771
0.05145036330764929,0.25944246277461314,0.34809962728596056,0.4579689731794263,0.055351290141241606,0.0719401078639604,0.08209016767627954,1.2737721065468566
0.05620477994942398,0.23436248423711992,0.3530167397936178,0.4414108964616737,0.07331388544281739,0.09351434589577351,0.07078070360223006,1.2436585141202068
0.036371272446129456,0.24135308150772264,0.32405616060151676,0.4120803613273924,0.03381697858490277,0.03477625076037338,-0.013150879786558076,1.3450899923580177
0.007692050415067057,0.26279219741585813,0.24643222300837453,0.32463743175384546,-0.004671201077263064,-0.015594268290733215,-0.10422923229474076,1.4200381466308842
0.06638029741777939,0.23197817765506823,0.36502554497594636,0.41664853730751333,0.04147468812115783,0.04254514373516253,-0.03844454877047514,1.3340594499857799
0.05688863878078816,0.25016754731912755,0.332032391473874,0.4497083838095288,0.05708105311805379,0.03128309259725991,-0.005808723965944492,1.3039545058468924
0.04609171085952075,0.26324415405892587,0.327625390778477,0.4131926861449789,0.04284890569890354,0.010645268488461767,-0.07685002462687904,1.344995027019559
0.015483359131177462,0.23427769357751793,0.27063713782860516,0.33997296540950395,-0.038509682370447204,-0.0762220353541686,-0.15152570384278122,1.2062970456908289
0.08508896492913987,0.24299937771588145,0.3642336263856104,0.4359084590932582,0.03270861626500288,-0.002432555976037875,-0.018152455479143542,1.162200685572774
0.07694097676348241,0.2779517137950439,0.3670403319320033,0.46948738550332514,0.06425410394352915,0.06392227263820911,0.005776413001625395,1.249990151385566
0.06073353268092256,0.25091620933262343,0.3148835277646175,0.44149029796446754,0.0035533519084134,0.03619478618608712,-0.036660327010151365,1.2651402481668552
0.020320666174873717,0.26620537348030304,0.3016473371740169,0.35335458037440154,-0.017824965550588913,-0.059009905119519986,-0.1314400697808594,1.2310961230105328
0.07545511603854532,0.21377590725990533,0.37151240279843584,0.45912458021691455,0.002021651035559393,-0.0036514522214410117,-0.0719275195521455,1.1107808213361896
0.10230551646044875,0.2259509142826476,0.42386094043401373,0.4857451438702342,0.06915884807748958,0.08905087353873176,0.012052363334686225,1.30284270158499
0.06421482622494604,0.252814757026485,0.35022244288683485,0.447681148796697,0.0843528462543129,-0.00125671560811095,-0.010637567816065962,1.2319449259629722
0.036414056053786135,0.22818025373744508,0.3048982808843902,0.37605210530909117,0.013926984745658353,-0.01681355267546809,-0.10660623371826633,1.276053545959897
0.04426626161267455,0.2553324972494014,0.31265312702578574,0.3856929485562163,-0.0061043407713862,-0.005356755941389179,-0.06300518768961745,1.2899188316618388
0.10136244487717135,0.2547771389147859,0.37425767514203584,0.45702964563831944,0.07610014692606407,0.09137302749174116,0.042162771474110745,1.2472986518905682
0.08111225042826568,0.2437849174405405,0.3321106084368206,0.4068039473652147,0.04065278290447403,0.007505428423605797,-0.0052962070601502275,1.2678292055531042
0.03859040933226065,0.24482743154606545,0.2808794726096439,0.34799348137249364,0.001911196751439206,-0.01053258645214437,-0.10842433766078774,1.2810750643976907
0.03147507960024987,0.2447200446558964,0.2835956385732089,0.3370570557580496,-0.03226445424765647,-0.05935082371270796,-0.11485943571813902,1.3188380242688573
0.08050932407432311,0.24341112244438412,0.357123620417613,0.4424053421290346,0.02920229749785719,0.06231565404460522,0.014563089992407378,1.2904448972280207
0.05814016162442597,0.2505241624860884,0.31795507949174634,0.4000071019817503,0.014515303641327738,0.004446087066833081,-0.030132228706195054,1.3210899357900845
0.007304826561730396,0.27513206456586153,0.28259203093689905,0.3445800255353937,0.007227113343035753,-0.028589199294244465,-0.12215125555086456,1.2201968619644865
0.020392176262077687,0.25201167960183257,0.2744133393375544,0.3364756842823209,0.01576567076149445,-0.051536632060304614,-0.12078902244295206,1.4835926880702954
0.09144315478491594,0.2648276672917878,0.3701872317773955,0.4218949707676664,0.06329043627238075,0.03647551816019838,-0.025499479439336656,1.19646779749077
0.05109036455815096,0.25372964996000064,0.33303866725450837,0.38607903034356245,0.010339936748746075,-0.0015522025618774078,-0.04723825072292995,1.3376394913777696
-0.003878524854051227,0.23544940307738482,0.25040054228284075,0.33402854497547146,-3.926138442789558E-4,-0.07010956291194476,-0.10050115120453355,1.335434638538902
0.030253161639986127,0.24050813915725827,0.3235227462738872,0.37041852481310217,0.005211354140823707,2.6090468712255645E-4,-0.11530811916048121,1.339712132631513
0.0818686605453505,0.2130705285765122,0.357620901794946,0.4299783420245917,0.04328930711159303,0.07102563839143129,0.025168157220405798,1.3102371094601597
0.0586764848943899,0.25614441165154095,0.3327285484713658,0.38329526053473556,0.04995635981414727,0.0300208431940285,-0.05131691424557425,1.356513758184732
0.016299683763631577,0.23279457165222966,0.28880228739341635,0.3250303326315088,0.007575539610983157,-0.0445258342699461,-0.12020551539182678,1.2855483633548301
0.03810881201023465,0.2657302857846731,0.2914559861296411,0.37204645444973033,0.015455440817344823,-0.04216696653304798,-0.08719962576298883,1.329599873760267
0.10015950378426025,0.22042371432525973,0.3669071510504388,0.45681764842810874,0.08734113666780348,0.08798940318381718,-0.004811826080060081,1.2800906179945855
0.07654042847155901,0.24550902259028298,0.36523252059271866,0.40941526146919727,0.04556217987633857,0.05478323461379335,-0.03654199270425752,1.2805800376659766
0.008272750138356431,0.233268188896711,0.298688601561875,0.34390028089615077,0.0018783002085206244,-0.0035095949347557403,-0.11794957588690626,1.3184136166874265
0.016635421852092876,0.23392534095868897,0.24443557886231176,0.31126654280961397,-0.028504030910346777,-0.08324227356917085,-0.16708151369976174,1.1743390885963343
0.08378508452625406,0.23522902571632656,0.3691562807437313,0.4261594814491672,0.10833339738102368,0.07213851759446399,0.026793734580797934,1.337523691161805
0.06511375444631334,0.2484395932715926,0.34152095954644146,0.406384922380685,0.07456469599976336,0.05608738206935684,7.243813377499932E-4,1.2659264055886115
0.042468300928077685,0.2178336689314314,0.2968468829983335,0.3552043489468038,0.04048606408617802,-0.008157775544917775,-0.10713712882343679,1.2940209328484231
-1.7097663732058572E-4,0.23045900786724816,0.23907697356821303,0.2842166005467191,-0.05152763297584032,-0.08078143443329827,-0.1814046219728225,1.300316406893406
0.04378256266858197,0.23144482546868816,0.28760571688789827,0.34514277870080207,-0.016156593872184644,-0.04667039861386129,-0.14673530308313842,1.2294862358039644
0.07079073165074265,0.21213987897501746,0.31436895963271916,0.3853728923902676,0.03589256859911406,0.02398394306784461,-0.045881755436731,1.2761578327167986
0.05093190205883671,0.26008139327028124,0.31596346971241684,0.3875565361573137,0.016828698100334088,-0.009526320829820792,-0.11150068528634477,1.2779686311667515
-0.006124490741108692,0.23076997348949424,0.24924700169095565,0.3001994110937137,-0.02823438037705399,-0.0762879917866626,-0.17270265009858238,1.193701724920252
0.012178545520695225,0.2247107221375081,0.25313894661199465,0.273003623749721,-0.03327649924098521,-0.11880505387255133,-0.20621802813831397,1.3031594415225782
0.072356059411345,0.2547318662274073,0.31219688776634935,0.3832129121767332,0.01911638681208045,-0.042306751412727446,-0.052115066756025535,1.2083494094835707
0.041541014080914346,0.24444210831955596,0.284211744340055,0.3430947039966663,0.010786979983970955,-0.018586547560673454,-0.07239672703580532,1.18236264701415
0.003785955254519605,0.2545052158234316,0.26069449412844786,0.2988838804120007,-0.045870965156773864,-0.08170516906174362,-0.14003346002923814,1.3140260647132695
-0.007389454146889021,0.24613064687212513,0.2316610275527824,0.2669692584120679,-0.06514358378215862,-0.11975495830214064,-0.22026248200709642,1.2551108930633352
0.056356169905357065,0.24013454040769713,0.2922496201317505,0.38726609447725696,0.04529392492206328,-0.014560475705907317,-0.032084062206067195,1.2222220531905261
0.04011405044472294,0.23017320587724696,0.3008335776693133,0.3376121901483569,-0.013967871172089402,-0.03096880820783705,-0.12643428902247578,1.3123332634764031
-0.009833055692485241,0.27306328165482613,0.26885749486932053,0.29456539876790494,-0.03043585546294375,-0.11026034481038514,-0.19878095068035836,1.1271193179574677
-9.005268847248666E-4,0.23309453611451003,0.2405856260424303,0.3076745820902506,-0.03034679815135443,-0.09089723751073148,-0.18759546217808018,1.2286641314798754
0.07611885168554655,0.2131161114332274,0.34556341134605634,0.40068650392303207,0.04436003711937995,0.038022875117787513,-0.054899166617786474,1.2428957806110406
0.039649611157502464,0.24280536772437805,0.34720846407318384,0.39509680573598094,-0.005529641038339972,0.00813731810160752,-0.08917448229083738,1.2068199330862333
0.011295363299339806,0.2780557608290715,0.27080903969978787,0.3684031151417046,-0.006249360692020129,-0.037413770385203264,-0.17143787723743353,1.2493595596167555
0.013961387973097058,0.24941996619987694,0.27595472778708935,0.3468633039772263,-0.060509391409380456,-0.07894821354497894,-0.1789517697868525,1.2654623242766811
0.10528904218651021,0.21258364072581884,0.3746439775491814,0.4652705369076839,0.03759819490867254,0.052617270521570746,2.2407622464018932E-4,1.2901452809012282
0.08280632212512368,0.21871412073455718,0.3921410201045469,0.44804171473681864,0.047715993071186485,0.03907962664224424,-0.06427608389255954,1.222317267029757
0.06114468564301939,0.2702380393204534,0.3400026099156057,0.390970479490247,0.026506518372468944,-0.011052193951257944,-0.14602410369790547,1.2998005683676461
0.026016778000472633,0.2566523818880841,0.27623297940611485,0.37639597559646315,-0.03640229012241706,-0.08948480742069707,-0.14902065015438987,1.2420906925701494
0.09536932440344766,0.22883823615807972,0.4125088464639348,0.4948093248333837,0.09247984295661034,0.06513159510276231,0.005650915025835505,1.1718631928940855
0.08748320825252622,0.24061470139886626,0.39982054076055773,0.47559758657559265,0.054510922344990304,0.05900050537188059,0.007912482464012605,1.2002280809797885
0.06004664896875579,0.21743747859105134,0.3868572410497292,0.4509739699817491,0.02052048473075106,0.026980832272649285,-0.07665484919281426,1.250573965752319
0.02215454907602289,0.24345174483683646,0.31770056080669995,0.38624135839132895,-0.03557490748359612,-0.07781913552194514,-0.1412128394383724,1.1536838209010536
0.10302482853248669,0.23776519546140742,0.394583274416529,0.515965766345675,0.03915086236157259,0.0313885502051654,-0.055138733692367305,1.1922428078162288
0.07389052524946979,0.26395281829876244,0.42626830916442443,0.4828644812968486,0.06541341814439897,0.06862942330477163,-0.01270435348848204,1.298976807875004
0.07174919660533445,0.25781810479178635,0.3825286130458856,0.4412018152651903,0.01940232904963039,0.017802078124585202,-0.07678873906649306,1.274343941511175
0.006475294690978793,0.26365037967217275,0.3095734365599768,0.38687889388721663,-0.007372628593822943,-0.0383375535904411,-0.11794051234182695,1.1513812708411337
0.09586384911585255,0.2607623422073924,0.3798093243080477,0.4541721566103961,0.041746040191692084,0.039723726352353904,0.0015285453723664054,1.195615121876086
0.08735861770387951,0.26385206817602536,0.38518082610019866,0.45268945277446704,0.02514930801364608,0.07789213185930659,-0.01437648033412757,1.2334713582602272
0.05675758035436166,0.22444497228792554,0.34653983153745416,0.3971976105597937,0.021046538427927582,0.039967528866207525,-0.053716742346705044,1.2987839064937399
0.024509613245943685,0.25877087395047205,0.2878704916090203,0.3659895040011272,0.009407067182738246,-0.026866594069968216,-0.08937814611721732,1.3356323235038334
0.08558089615419406,0.24768044362680333,0.3576766974591708,0.4683426730426142,0.06003758703543154,0.10840771423059942,0.06148718903638278,1.1987871733904092
0.07380362562341984,0.2453005355924935,0.3344648576853818,0.4288565491999327,0.07210500051613858,0.1045896274189913,0.03148563621486487,1.1626370358836071
0.032163518464953245,0.2803085196873584,0.31233937341792223,0.39444075250082794,0.008029521877578305,0.03614374350024329,-0.05349684487584095,1.3142787360269714
0.028079266834390666,0.22775992214309973,0.32268320495199476,0.3881470593701113,0.007279486923712296,0.0073987423502479156,-0.06383568188152867,1.2575916019929099
0.11063746749163525,0.25528896773339665,0.3783293008560851,0.47780106654625154,0.12798739928256797,0.14772786810922042,0.09360092211512593,1.1837988650485844
0.07227423996197765,0.2853101622213694,0.34269569867115657,0.44180088414209706,0.07849724466185079,0.14541959362166884,0.0626972999283962,1.2236203386301756
0.03392339750311698,0.26060467185793595,0.2806633794596934,0.38862070159664025,0.089676208936816,0.06828872790385121,0.021050972832919138,1.208014904265023
0.058964596290341224,0.2432364548366133,0.34534723067747825,0.4109324833688998,0.05872094187492247,0.12048677238769165,0.07806004048130094,1.1351991970324538
0.10746689689783992,0.2667128374583051,0.3599274809676777,0.4850597454476244,0.14701037058296879,0.21028585797166585,0.10201394055859027,1.2132464835088905
0.07526729385777009,0.24962680944406998,0.3402098085902291,0.4209603876616849,0.12556494902686674,0.14736591260675783,0.08073981882813495,1.2694541784282511
0.03504779360362087,0.2765481281763318,0.2809469360934095,0.39411450012659177,0.0767395365838812,0.11213057681184618,-0.006569936930103106,1.1169367304977782
0.08862981985739257,0.2781352666276158,0.3760236033176832,0.46281700883346893,0.11293832284514699,0.1443530201936561,0.1341258216206885,1.2867249297210075
0.10450360970349164,0.2510209733459886,0.3855043600312943,0.4748387361456834,0.1900512072173381,0.22001898085337232,0.12974066628719935,1.2446778426771838
0.07194245052962768,0.2745387508405698,0.36097214281833007,0.4565280716335445,0.12433982550060936,0.19693792164374868,0.1149691328898589,1.2197297329023211
0.032167528642527414,0.26116521980629664,0.3042805976112357,0.3869338284158076,0.09868493160268217,0.10310369554894287,0.012043303285744739,1.191427527006424
0.07641240765989217,0.26935614345639086,0.3590403388072045,0.4584177212759175,0.15269816664049402,0.20725072840731917,0.11686694767208493,1.135612059947536
0.08969271671696204,0.25706231315866257,0.35961416883776165,0.48762227937330765,0.17683362180478726,0.278963080391131,0.17624055107786857,1.271209406322564
0.06621482929567025,0.28959661646209695,0.3619558869759654,0.4368675055434589,0.17401454417184645,0.18867149442155745,0.08995263537478532,1.2071819239840382
0.02058260549951272,0.264375256328406,0.2992595084927436,0.37083030217963914,0.10705166240790204,0.12055318136267787,0.020704550559501902,1.1966926109787324
0.06134489376397628,0.2807179701868808,0.32283389016764275,0.3873806378360787,0.12078810220236748,0.1394673361848962,0.03483639928500519,1.2322587590331568
0.08651654702197291,0.26083120566802115,0.3637514989808798,0.4494489427526011,0.1862576099518936,0.23839253202856164,0.17247530664506855,1.2830131983389257
0.06605807520478398,0.27117218632143536,0.3379335297538589,0.3904093321167344,0.15559398287285336,0.1584918064114038,0.08422754835098835,1.267702868388661
0.02716241181022591,0.2669025873164462,0.25140613732517897,0.36179030591222766,0.0800901012443007,0.11995135718046343,0.016185205855163167,1.1575727406003529
0.03782580918719283,0.25640553713611625,0.30739652061717865,0.37240589733576707,0.10328974872261686,0.12272888981208185,0.020422456050381333,1.158336655489295
0.07597143507218831,0.240517487220926,0.35434385607165797,0.41592785934261123,0.17313753972860824,0.19252937752777727,0.14435435316715073,1.3059545576292155
0.057189081675680334,0.2914703819654568,0.29006856002275316,0.38136726573429874,0.13525995012358508,0.1445968756600381,0.08109111153764749,1.3651946676235134
0.03067766186460627,0.2864200099669266,0.28720675335804574,0.32449511965676825,0.08513858011923174,0.08813359558688366,-0.004524417323919858,1.2129578231527331
0.018154645759820134,0.2904829592227434,0.29764128759264785,0.36114134453873503,0.10771055687748537,0.10085783600493937,0.010512148184024064,1.171334875812848
0.06899496631335839,0.2453418085967465,0.29706065996050135,0.3968201363184124,0.17387308188768943,0.1712038903161388,0.05428791369255097,1.1855855045041994
0.04839260461403046,0.2791656969428179,0.29801878252645114,0.3828695958332226,0.11223705120037737,0.10615033570988959,0.016106510239518524,1.21844044473237
0.0014066472308578916,0.28576506391723466,0.24719254747737882,0.3044180723801082,0.08129244033905123,0.047205204885579805,-0.054521259427631856,1.2037214702224823
0.016293777255249216,0.2799024316663048,0.2934278153760391,0.3426721684831403,0.08320456317150755,0.08795623771621623,0.006925034706587442,1.202898984881887
0.06906815491735098,0.2759219849976384,0.3405200381754913,0.40460481735984255,0.09262469970704228,0.14740024674269456,0.06259192608596029,1.3282681347478171
0.03787385801554616,0.27361814573196896,0.31000569362064223,0.3696821968032793,0.1278919435474927,0.14112987482511563,0.011848211776056964,1.1628859714972983
0.024103722647909127,0.2732512802353058,0.24516224568563796,0.3086921709367202,0.07283205498605043,0.05825821534569491,-0.03672933122297606,1.3425390218006017
0.05108933190603949,0.2779927172525244,0.27183791316294914,0.37903629292850693,0.1262179312200212,0.1084576374964194,0.057200744129092616,1.232229770738417
0.07637825888642526,0.2823965574579226,0.3181277766476457,0.4050909197154269,0.14172461254115373,0.17024720168492632,0.11640091705654793,1.2271281744154234
0.05132811437621849,0.2982398617649644,0.3009347324702968,0.3747926664963348,0.14006510016086987,0.12556730039368647,0.027435620215201115,1.144139965510839
0.014686533704994606,0.24901589931029422,0.2793769555551483,0.313984425813315,0.0479144558208591,0.07171072732829993,-0.026255763065799752,1.2647250662152956
0.06676835206130129,0.269322983868389,0.3188349097105814,0.4005402764044477,0.10126472783431749,0.09785450858927866,0.030776027335840204,1.1492191298113235
0.07698459542050291,0.2775225756178019,0.3573814292078694,0.4353463595501715,0.10691513056380353,0.19213369473928646,0.10636247583566692,1.1327533175875857
0.1023217600127478,0.2843801174141105,0.3650673940935122,0.42779254471215494,0.12147039352799144,0.16981637229339872,0.0670109669371226,1.1819211819870081
0.029269285632131423,0.2822994882165289,0.2823138556408847,0.3568969716867372,0.11220617499026594,0.101976643208417,0.005069799286344658,1.1325689517025994
0.09017071637777879,0.24954390191057285,0.32047780194269443,0.40883928380810314,0.12605298415086738,0.1618127393157127,0.046298429338213376,1.1107155337345231
0.08918328972448429,0.2856382466932244,0.3631804246186044,0.44414670600237166,0.15611527296592212,0.1736730795923249,0.09523685775788389,1.0476536218645423
0.0919648927603517,0.3124267415803172,0.3487603285992013,0.4020388465432556,0.11345583632468677,0.1651763828416174,0.07378996326977597,1.0547651010096357
0.03143020972214135,0.2963684098009112,0.2764579755166026,0.35859810520538166,0.08333204505136264,0.06554655739213093,-0.02293031470502564,1.1473051562223446
0.06629475114838974,0.26466020737845636,0.326794394782442,0.4196661960637709,0.12974902422906093,0.13600472033104397,0.04231023002086601,1.1837207749110463
0.09387430223096406,0.2722955029224517,0.3473587810603207,0.43803881582956355,0.12280761259677951,0.13228562569961858,0.0588071603859742,1.0839409641043765
0.058555874650152925,0.2937934551387152,0.3288119676998428,0.4245674628240362,0.09621917795325999,0.15801472369328962,0.04854077253733777,1.1516423632383013
0.06075176866524059,0.27562538797254205,0.3058462630292964,0.3850437683930783,0.048152033218945185,0.08345379887234113,-0.005479609355255797,1.0994689934085784
0.12365056143186198,0.29330464709227927,0.3853219048495062,0.4609348472177218,0.14812263517306756,0.2085989598792604,0.14488418729468816,1.1362598774221289
0.09126151129506313,0.2910604239322873,0.36927443724395875,0.46790577434360225,0.15543582279977425,0.18545901593209793,0.11546999035546782,1.1253203646021601
0.08412607956833161,0.26830823143325616,0.33984788595007587,0.4272950651327585,0.11641431262526322,0.14927817359957676,0.039032560745185046,1.089351847281043
0.054531271689871395,0.3017662477728009,0.31764918553496124,0.394704918871258,0.08861373169869974,0.10486941094277166,0.006014047884408216,1.1485659012687757
0.14493937739844945,0.28712591819305133,0.40794158071172687,0.5030073129757193,0.16797870335258086,0.2307408466403952,0.17924648040499297,1.1781718745897534
0.116695615046737,0.2742798484842667,0.3793368103940554,0.47211735306626973,0.19501010124586096,0.20999353397314383,0.14972869691953117,1.127211730395665
0.10387808308946826,0.24219613039150614,0.3597320493903718,0.43567556417467246,0.10532395544923559,0.14490148246410575,0.08692343313986398,1.1522586156645291
0.08293532646020056,0.24873924436935846,0.34708646236045654,0.3948244100128773,0.12115307552555331,0.13356352836269275,0.03133414544474343,1.2371895205464647
0.175773952777587,0.2740326332106699,0.41321035466983463,0.5212430261081709,0.2064537464705248,0.2460187635546916,0.19985308428539475,1.1381881769637725
0.1476553954410686,0.30051100452298374,0.41326772651712557,0.512564504231546,0.19382335930250655,0.2489029643138664,0.17779948151734246,1.1838179760255092
0.1043401689714442,0.2881941950138866,0.36255534585267063,0.4353641337926958,0.15913755098898533,0.1702221929452219,0.09556888359442602,1.2121057002169873
0.10376053888168559,0.2544075359212481,0.3290174201071995,0.40425534890589604,0.06529255893638707,0.11289944807793528,0.023860184987975302,1.2264797557527867
0.14814662141841048,0.2676562957334003,0.43636546128201936,0.5140713116113353,0.20489115869317465,0.2568475224305317,0.1893329200942715,1.24938506962904
0.17741273226517276,0.27126404768964946,0.444540917705913,0.5349916376516505,0.19840275469957183,0.25369725518638775,0.1628449057078444,1.190229461648251
0.1459524282999704,0.2680747488753493,0.41734189989593934,0.500837054076232,0.15921756370899928,0.21444605328879035,0.14403742816308115,1.2339968215159574
0.11570125219751921,0.3018577541345063,0.3905049531887799,0.44468854561507254,0.11637877479392668,0.11370293945331388,0.03222853708086109,1.231880687942764
0.11351217251872235,0.25568807386666553,0.3971954518623221,0.4610620915668546,0.10204973024599706,0.13804558899210248,0.10635067360914255,1.0924853557840226
0.17029125917854981,0.266275106825583,0.4452767152975366,0.5536066869853826,0.20862133761894638,0.24528932168465897,0.17789220944449546,1.2324573812909336
0.1786886087164487,0.2677648980763332,0.4448136402820136,0.534066534628357,0.17376285939139266,0.22345220581001016,0.15481317050558163,1.1502409717892124
0.11091480533612709,0.28720839160474215,0.3897492601119862,0.477012266231139,0.1433296468006509,0.16032114969701283,0.07098786640498582,1.2250013209745383
0.0952548936043175,0.28159745611179093,0.33876115973143983,0.4522043347932754,0.10061793684620857,0.06793993669396535,0.03951909509452774,1.1935287894217388
0.1747194153359899,0.26399334505435246,0.4578778668732959,0.5914786115974832,0.16724343653030319,0.254244608109025,0.18217174263582397,1.2692700834165318
0.16347101140021353,0.2886292988931429,0.4487821729234739,0.5599555785454702,0.1609595731265786,0.2120510526794465,0.1446743947254105,1.2158303720147319
0.11411323931390568,0.2966022935007135,0.4087193325986538,0.49634443483099566,0.1451046912630965,0.15024088204601643,0.05607848466836052,1.1466010055855527
0.09046917856263516,0.28636163101949824,0.3642929634001973,0.45719091434831627,0.07447244052498454,0.06913534483363412,-0.0011217689598311763,1.2025150684883588
0.14964896120734283,0.2942883304554113,0.4464456089269833,0.5574107861805402,0.13572422017270536,0.1887124538111932,0.09877233825120024,1.1919913914423783
0.1683568989600928,0.2829016008106994,0.4951744628058934,0.5953070296371958,0.17527969643607066,0.24381390955580523,0.12619986139108538,1.1437381267212245
0.15026903234453387,0.2560266177936916,0.4576611966879732,0.5693429106588731,0.15516636302903852,0.2018926659609778,0.12307459632243427,1.2414119237375867
0.10719976931524608,0.27906445216589626,0.4157968277429264,0.49066346874745786,0.09413905907349662,0.11093433918270897,0.022791255946975127,1.1566707817464077
0.12342480020630976,0.26438905871671103,0.4327157436003218,0.5092623922175736,0.09623765725329488,0.11391295334923565,0.01574127884550325,1.1919839893122322
0.19416345506166124,0.23676228105782193,0.511873034390144,0.6302379493895132,0.21068028653485463,0.2553248088434377,0.18588227543717536,1.224863465713519
0.17667018515291646,0.266061863997802,0.48951264016675416,0.615553667614709,0.17129201240739517,0.2228574684148478,0.15036797327297724,1.2133134602495719
0.13332140639829218,0.29082659654448895,0.42618046427193546,0.535875214673818,0.12281905005248403,0.1569824600120593,0.09252922175754251,1.180684196004806
0.07716011732028241,0.2814201437806169,0.3730185963834681,0.47627510400257245,0.0890742928984526,0.06447968679586968,0.0224828705889883,1.1133133750864097
0.14601662886483194,0.26214481927950906,0.48671807016498225,0.5870723616226823,0.15469109135137657,0.2045063895468127,0.13723039045907276,1.1794328541709782
0.1675396799565851,0.25483845387157533,0.506448825911215,0.6183508764504707,0.16341911779378593,0.24153170518364797,0.15376508869137648,1.1893124474691912
0.1362772868368191,0.24373324813704877,0.4646785131813334,0.5727902159933476,0.14736336715907233,0.18329945009109033,0.12306411776927352,1.247079215303332
0.09152366692035778,0.2542760043808725,0.3845102720963407,0.5013092880384985,0.0794838925979172,0.11196734798101189,0.020173583819863044,1.1374898599328032
0.11124598429407995,0.24465361816850736,0.42507239105076017,0.5239518701097551,0.10263515613065399,0.10035410349194207,0.016835700688073718,1.1389215352488071
0.15454794661923135,0.2447063226688635,0.5146026028928485,0.589045893568293,0.12845621427936807,0.16672542800917892,0.12465370803938282,1.0700599427586164
0.14082799023262962,0.2682705681337376,0.45770865733004157,0.5938793697418541,0.13168427355378684,0.17944519768619185,0.14436094167839153,1.089534415911753
0.08514130510051648,0.24206338014827827,0.3998999789500196,0.4885869465658439,0.06599636809781433,0.1059892910069335,0.02297657017257649,1.153612055973323
0.12295705596524759,0.2690314606654497,0.4381680035793305,0.5320516783378744,0.09451178459048505,0.13699130435754525,0.07570145915956182,1.0605980730420919
0.166605050307267,0.25096446435428277,0.4664192341066061,0.5899168874256502,0.1676186151651603,0.24098193510209853,0.18367661258272602,1.101929914344255
0.12718039711900783,0.2642068400586715,0.424837616800523,0.535389208537231,0.12834466573743586,0.2074502138963914,0.13023291159338798,1.0933700903088175
0.09172125572331609,0.2552497540227474,0.3766949814107351,0.4763607855588214,0.12774837427040175,0.11932620906872514,0.07234957190269473,1.114873807118973
0.11209429169551993,0.243601827175177,0.38720168979487035,0.509109653589162,0.11789914759432667,0.168798952522361,0.10841156398350757,1.1774553837006534
0.1641744400801024,0.28639454088028404,0.4486213863317471,0.5664490531331888,0.2007642799965796,0.26955768558130727,0.24506241289030978,1.1452209957562134
0.1380790134830209,0.25973211934168294,0.42794045650076734,0.5198681253242132,0.21644071122492797,0.26086562983341915,0.1857002593495452,1.0831204546728361
0.09676657505720446,0.23939929325767176,0.3702843309433367,0.4365994227200229,0.10953324913963827,0.2083961857149421,0.11542458564277748,1.1556817919153812
0.09919732276936657,0.25538048802874636,0.35149816824171226,0.42052694400341833,0.1361568496844296,0.17636527013796932,0.11323450478237156,1.145652514196059
0.15219592079820193,0.22627905589458747,0.453156986363593,0.5449364807940159,0.21951085839151985,0.34350152846543097,0.23261197628188243,1.254210395382597
0.13448480381356911,0.21301455852935502,0.4047007224004307,0.5217479179195511,0.23851083872989104,0.2593637097158324,0.2382693595984252,1.0846924825133655
0.09513866592236622,0.25910688455698694,0.35691020300110593,0.4407817301732755,0.1612999768105086,0.20220591657201123,0.1380948560660311,1.0910596730367341
0.0448476906595415,0.30344485619597017,0.3210118061709385,0.40393545582487556,0.10848617686136974,0.12183258896373897,0.07759573953587606,1.2338364175678933
0.14958442190866186,0.2735828720739512,0.42087347212654513,0.5205793289133324,0.23421068273173423,0.3033266430712,0.22553733831597444,1.1396095228256826
0.13539489121686935,0.2827877745782489,0.40473960504766054,0.49123968580619115,0.20118236062704303,0.2946946022310298,0.25351057997452453,1.2132525410137283
0.08748613523091253,0.2626740654379428,0.34825248132743397,0.46340171759471066,0.16693352499071798,0.206494091581775,0.1562635641061429,1.1665310622962737
0.04720804062350911,0.25870553394986046,0.3014566665747465,0.3792095646117121,0.11771422906254286,0.14386243863701761,0.09033292508116356,1.0950134012471597
0.10867376564991568,0.23857057485023242,0.3698865266195952,0.47695041659594395,0.14177431198079085,0.2312639441480864,0.1609434295474688,1.1276578587004273
0.12408134373464193,0.2463687977211314,0.3812198924661401,0.4741508765688269,0.2480755821418974,0.30957346289471743,0.22121662200971948,1.013241530385262
0.10254650150691728,0.2705637115423625,0.3463835154495615,0.46592106372281744,0.17320171360633382,0.21891145271423781,0.16309389433647856,1.1262694674942022
0.03805812986567479,0.2634114791704206,0.2867251353167627,0.37677455698706347,0.12076286938513747,0.18423633330445457,0.10667399058776368,1.0209990530899378
0.07340450519491938,0.26793856155935797,0.3178240828813034,0.40708153055394536,0.1275298270985163,0.22153345983887696,0.14050227623269657,1.0997428902432973
0.1048850623780483,0.23976650271594238,0.38763814186786044,0.4705703011142708,0.26247115420393935,0.3400491049866397,0.2886288975317967,1.0578819541643008
0.094934921973518,0.28496448060271173,0.3450558846307255,0.43777691636052607,0.22722637107967184,0.31518555227284745,0.21329974807033303,1.133306168209815
0.04159447056360584,0.2749330255545622,0.28826081778583057,0.38310753199647946,0.1907565919712933,0.2087272544093052,0.15626447182640923,1.3343684906239452
0.04752984706451671,0.2714920081589109,0.2720162716848103,0.3669948896596265,0.10323110918499262,0.17297438135938872,0.07849921150909271,1.1488712528937413
0.10931603674531895,0.2803213825613175,0.3520156396953691,0.46543797920872904,0.2583631173277009,0.33108643871860505,0.27389098823716107,1.1662819957211705
0.08672436255968737,0.28907128791648606,0.34565301761206463,0.4534363966771946,0.24378226249350926,0.31936141892356595,0.2481744451042399,1.0217061967450407
0.07923958872180246,0.27797267969845973,0.3165871365355251,0.40723947514954345,0.16235028870565874,0.24239668101562653,0.13310067218628896,1.1552708236665188
0.01914685726727444,0.27070143455694096,0.2638717783388249,0.35079431057416766,0.09483078196870198,0.15047830391341602,0.05399617907143157,1.1060582957400988
0.09774542586540934,0.29130852798660123,0.3680762576243017,0.5011624884657433,0.18796059437680104,0.29285462339882384,0.17396123098780467,1.0797514295156014
0.10147934368120654,0.2641548637057979,0.3460829931969725,0.4677614196854006,0.22458396191082675,0.31560255354895705,0.2130772601456431,1.1143001703723365
0.08313018127690998,0.2599000973139942,0.3334894527878169,0.43622963693275435,0.18460540797888142,0.22919900963213452,0.21022852681338852,1.203761691623292
0.021110388290026188,0.2907721159907671,0.25922985769803875,0.3692943016321024,0.12890597967495548,0.15165703228325988,0.062344697278516735,1.039870270815252
0.06898379868389809,0.24732353497973106,0.3273556331375232,0.43687720181525747,0.1555973339875931,0.2650305461448909,0.21272746216347171,1.034589138156163
0.09160688171242272,0.23534493938940393,0.3465668281660286,0.4674926368266875,0.2455074384779108,0.27219096486348343,0.2155756078561243,1.184430211411244
0.09317715583542135,0.2369851366915256,0.30038844295804307,0.4206858904637675,0.18783016472990868,0.24912995290961115,0.20340423769644256,1.1522837104893817
0.014457155353121393,0.20719699629102767,0.24834371387683254,0.3575823871842506,0.09449137383992708,0.1614172463015051,0.09471091338032658,1.0626803507160123
0.069185985194249,0.23751857450896635,0.31847027768921216,0.44952508532682295,0.18453551139660468,0.2368947904596973,0.20247005858570732,1.1996437330039682
0.1031621601924311,0.24260599184259088,0.3523642811938649,0.457653882833318,0.21251244168539335,0.2938897577370824,0.2410529461951356,1.1597376582580787
0.07638570003177561,0.25128066722296355,0.3583415674373733,0.4315858213827561,0.19727650962857865,0.2639448682999539,0.1917470088851797,1.1444579750983461
0.034290072235558064,0.2813304816555782,0.28027252752669235,0.38979659661874666,0.11038992724512325,0.17012491120623163,0.1082773064717287,1.146652825711823
0.08693992324938567,0.25884527697716225,0.37457736739232345,0.46554073122773126,0.22444309943761354,0.23429278453443697,0.1905896006062981,1.0490530874452961
0.13440967284796407,0.2559165517196254,0.38525969105244723,0.5102161198076189,0.25908260097558133,0.36753945537339455,0.2713627152594299,1.1547682163643551
0.09500509374135893,0.24169729591088357,0.3750833463036669,0.4801230160064306,0.24236914280210312,0.30516292895843317,0.26580604166790256,1.045847426054616
0.04600655699419113,0.2416936964669875,0.29001491478575087,0.4028237711391578,0.20940766286455717,0.20594494855243947,0.19251905094724475,1.1442841626104379
0.11274393012507018,0.2157810638434012,0.3616252070211674,0.4266830170280524,0.19145688909155262,0.26740892206104333,0.18509626541388735,1.020762441498467
0.13211331469708515,0.20661081957458563,0.39436586238847926,0.5414310218700293,0.271305013651961,0.36283955037560617,0.3286293507078879,1.0377796384388243
0.11714516463675849,0.22800300405469096,0.39509277392230036,0.5198141066236651,0.2435194331789067,0.31497091373286495,0.25618172932013705,1.1556252429796656
0.07515288423380115,0.2433019868110807,0.31259056121123974,0.4384706939575796,0.1868606721459517,0.2115732772105265,0.181799343597345,1.1574881456153303
0.061206361829819485,0.22060176707386886,0.3140804623657735,0.4355417035749635,0.15894320884593915,0.2038811775434473,0.14099861809483455,1.138122290347973
0.14232689812100663,0.23061851107642353,0.38084923042929447,0.5346309256831943,0.2698287038997777,0.33566915969906724,0.2617429373247104,1.169165800262502
0.13487424620035407,0.21770332515188504,0.3851617966572893,0.5146223173074598,0.23782791531754488,0.3236161023043757,0.27192664432918684,1.1691770482635817
0.09315278574617214,0.2287259990892588,0.32817824122333655,0.44410420512962534,0.19005332282966683,0.2554588604741937,0.19624465585865689,1.2625079682878984
0.08877737230411485,0.2560717693178371,0.3006271401543321,0.4177621089731848,0.13105066695175743,0.20719575095509032,0.13965148607388075,1.1709674525667892
0.15734538094518885,0.20514666623480773,0.41745597355222697,0.5118383601972445,0.2353953062275969,0.3551801784749587,0.3056106432844064,1.0854598779800129
0.1403877265402276,0.20818285950218357,0.3529495936773639,0.5101939347969269,0.21616430093241482,0.33441704889942436,0.25636313016723555,1.1474362905114242
0.08635353842196092,0.24383990700990982,0.33220717815627004,0.43945553965966133,0.22022817043784618,0.2842644212639077,0.2319963487520939,1.163030363433371
0.08967915168852704,0.23675269606133945,0.3006062272701483,0.40331498042334557,0.2016086028758258,0.2273483406054827,0.20834615789952948,1.1907155239530545
0.14711468151619203,0.2546346699343722,0.3977707737099037,0.5054895988595567,0.29422865833091316,0.41479169890384154,0.35400824278616905,1.269111333808738
0.16594226843200646,0.29696562091076806,0.4011104024750376,0.5005463051577154,0.29625292289924204,0.3921882006728876,0.38610266590970127,1.4991451673522103
0.13260390953456178,0.2821717998179216,0.3668392245626039,0.47422705109863267,0.27381950765837854,0.35034222731203973,0.3465014308715593,1.7781786177046137
0.13697932627331139,0.32049785746068743,0.3574083658364861,0.48009129536233935,0.2689046501103362,0.36543332024298636,0.34015372123073817,1.7479968677691151
0.22019324692594144,0.31151204170453967,0.45298945432186055,0.5900947196464165,0.390387372525834,0.5173018634055974,0.5175736334880928,1.737594452465484
0.21069212548538904,0.3028418153287577,0.4597475894304005,0.5776159710971734,0.38425065730208346,0.5143174720636753,0.48616729451654206,1.7860730129577036
0.20374250945130107,0.34735427653630324,0.4440007894369744,0.5466566941598321,0.3414640556749385,0.4615194453770699,0.41887929480543,1.8506385750037664
0.2392667353911995,0.3017335147078453,0.47409042157406,0.6162781474094092,0.37957426627609614,0.5156572504813386,0.5084993010765863,1.862354985811653
0.2601211515543733,0.29741758294002396,0.5492216776959339,0.6847484632438819,0.42577067789705725,0.6061686641873492,0.5939540457725587,1.8709382349680204
0.25012879203282307,0.3265861077572826,0.5192497444873527,0.6601850467472612,0.4617676503752764,0.5711173721986446,0.5924172111664123,1.8714922611275042
0.2596999065833193,0.32306467583899784,0.5103488107605921,0.6182635505230992,0.38027480713576,0.5207504294172284,0.4635310793693822,1.9161519728225715
0.2964977878018775,0.31604945421040603,0.596313715646791,0.7118522506525,0.48223225447657975,0.6555576311665726,0.6039165043702961,1.9702398080397232
0.32508202024545513,0.2971191631708286,0.6353865799013744,0.7643441822170448,0.5170786666154755,0.6769399283576427,0.6959873755697542,2.0276635101440976
0.3230609188069403,0.2927414128560492,0.6146375757623073,0.7236422335855255,0.532812954559592,0.6443856562583375,0.650561076316825,2.039565608571988
0.2646765575836256,0.31441389460284386,0.5570516485088178,0.6911679868854737,0.47807371138206917,0.6145405372669847,0.5944768198126241,2.048399164448057
0.3029733999849219,0.32633192165120606,0.5695992874168138,0.7221673108899926,0.4715695539943829,0.6133939214721332,0.5778681392716785,2.067981777885514
0.3396795408169411,0.27576057707439267,0.6760199933732365,0.8071470484832148,0.5439503778038784,0.750974700626926,0.7382622179585631,1.9249117057996281
0.36133871654047367,0.3177821688712041,0.6525421208126645,0.8003389039313082,0.5488804242638585,0.7609801199698375,0.7539549384876157,1.9620705800497231
0.340201813434452,0.29184587595649114,0.6286404193458116,0.7491313177299089,0.4955251175489877,0.6790849355845393,0.640622956484019,1.9453294938469528
0.29384990702620745,0.30584716108527654,0.5812818983596827,0.6891018384662785,0.4473021200286556,0.5865168249485737,0.5569857680633477,2.072911662661735
0.3367322094559602,0.2990297565067491,0.6444802405552987,0.7569924875663138,0.49896142102453017,0.6731327975346886,0.6391046514576885,1.8169738054536198
0.3558362238888057,0.3045091909216365,0.6770463451774771,0.825138846865035,0.5922786470931698,0.7686361227142652,0.770921513790565,1.8818039141285725
0.3589004125367616,0.3260129669567672,0.67210435136952,0.794128596364829,0.5607407369615253,0.733853303148841,0.7072044580532741,1.8790137483761669
0.3048983852335202,0.3159004938694374,0.617331945453357,0.7039615810813143,0.5078155589247405,0.6280463089991084,0.6321544104872404,2.0177664689967014
0.2878464492756675,0.3227406990580515,0.5507006364399312,0.6251295752892061,0.4691937962260776,0.567778066695204,0.5753370347692617,1.9421199188927925
0.3326634985630367,0.3318343616703892,0.6233586825177145,0.7426254771097834,0.49243222771829454,0.6676738207714292,0.6348862485459162,1.9719199876095268
0.3279790049260901,0.33333304220311005,0.6630100996294703,0.760399007037426,0.5386061291173523,0.7038150155281995,0.7275808731681492,2.077379805451248
0.32372935301944017,0.3202249366416162,0.5911828353295269,0.735109479294074,0.528770348920741,0.6800251577055568,0.639952016335656,2.005350009494521
0.276565687563869,0.33696536344882455,0.5558093376073415,0.6436543353204154,0.44365948918032705,0.5614165194265941,0.5288593001065931,1.938418153210301
0.25891294894446654,0.32360979596737327,0.5022039468171774,0.5990405123323149,0.37546786315173575,0.4977528474219463,0.4736661763958487,1.9560692393944221
0.3057928319478172,0.34404345579100054,0.6020045761536599,0.6883151808739166,0.46906568799961557,0.6210299455509534,0.6137222015827384,1.9544184460462473
0.2876477959002916,0.34305528969541627,0.5683919732437274,0.6857928333399734,0.4626470860583199,0.5977651639575784,0.5490173973208137,1.928990505110355
0.24947947853324767,0.35579140139028675,0.536893266029257,0.6462632962976251,0.37383958739649087,0.5302270096070274,0.5197650319616021,1.9350771118521182
0.21342029880051613,0.3348888943927931,0.46709570619136226,0.5612490111097816,0.3452640179135099,0.4693012188793159,0.3758203868202729,1.9291455315691286
0.24566475234046758,0.34766972190344075,0.5190996609150914,0.610516022919505,0.35553842889939263,0.47683589807264853,0.43826299646074357,1.9756720812861541
0.2672345398518414,0.30768487587637405,0.5435929625357316,0.6455346299137489,0.39496637134667073,0.5106270281499539,0.48302238323316293,1.8995393981975441
0.2254773095827796,0.34458178194435635,0.5220819015016093,0.6255583239605328,0.34925911809495813,0.4380087137062029,0.42049276626245297,1.9612695086921141
0.1944874952312239,0.34754474699252674,0.4706065538395004,0.5660214592550751,0.32494355508477374,0.40535698072431203,0.36713517830054376,1.8873940629342871
0.21565145870225444,0.3390441781737498,0.4564910174819048,0.5896289496660403,0.33013932839724935,0.39724355163278147,0.3715711516498844,1.888061240143528
0.24226127407117223,0.3361315282768049,0.5357172309168854,0.6448424525544744,0.4066758594811948,0.48131185275682103,0.49130146853270434,1.8682267247045794
0.22531377803940092,0.3624834874150585,0.5077149602055804,0.5813504914064923,0.3461697443072156,0.44839061332894653,0.38847585795453404,1.9279822979149168
0.1779099136239109,0.3361886851735854,0.4280117448770922,0.546597320974143,0.31640799030607253,0.34065473159895404,0.3281597803840702,1.903881742589617
0.18842923122011743,0.3218053919281816,0.4815695086128157,0.5757265593044995,0.28734490243040706,0.3245844325591093,0.3069447736218063,1.9644817050180325
0.23448736959368915,0.330004386228817,0.5027995240936934,0.6222850055175949,0.36949886600660237,0.45232107664683785,0.42740476591998927,1.9681636884975484
0.2291631585578981,0.3577629877749637,0.48684783912989704,0.6124785695502676,0.31504985461745644,0.41328528132761944,0.36282072283406647,1.9592286104828138
0.1775747867166585,0.35024235716472846,0.4565283412182891,0.5243890730061533,0.3006056913354097,0.34376548129340884,0.28798917331069585,1.9455837765350246
0.18803935688695697,0.34853996128411807,0.47081947115255157,0.5571120510186547,0.27727824059250333,0.35256461396599076,0.29655448073618407,1.963689953244165
0.24180198767423972,0.27176126248435517,0.5329774068582106,0.6254456122003453,0.35644956412622514,0.40661755251735143,0.4495268015630774,1.9483127553053607
0.22092666518759638,0.3422173289540508,0.5296589351162267,0.6067553819635705,0.3389119744244727,0.4394586492938422,0.3864100627023379,1.8608977087777734
0.1898682508499639,0.3220464287298226,0.46018965074907126,0.5643267814745666,0.291771863356303,0.33975818111978684,0.3419683337467381,1.879423345808977
0.1774601335283408,0.33181192385518854,0.4522899437555691,0.5422418760402202,0.2963116576282903,0.31705148126638316,0.2796176722610309,1.987472191989386
0.26274853601702153,0.346168722887291,0.5247400213456219,0.6352390904546918,0.3662224080968091,0.44410681971468546,0.4167395851420924,1.9244969244638135
0.23957442554378391,0.31063507687977476,0.5112833324725634,0.6244844556666922,0.3626678545785367,0.4132820532548367,0.3754227324807736,1.907767047302053
0.23060714510084615,0.34427954166089436,0.46977408086278255,0.5822032271342035,0.3215764415530521,0.37021811379011066,0.3209956173398302,1.8199035018324867
0.18933877105205263,0.3145561726382504,0.4169335851994782,0.5203058088626238,0.26534260778549124,0.3083322421223169,0.2396846489316426,1.8381272167051386
0.23746305023882402,0.34645162345886454,0.5207029503585142,0.6024933175524103,0.3736663487837244,0.41363731709944035,0.37473336655924516,1.8904744555639956
0.23729010295561123,0.3299650585817175,0.48676596794840715,0.6200673540687176,0.35703571116517313,0.4224057377585044,0.4061168469680579,1.7893142239569262
0.21850547417955452,0.35223099563688554,0.4543669763863542,0.5877914241169215,0.3386437196166261,0.3726738298940617,0.3408807327480998,1.898490717808921
0.18727524406584645,0.3236456602904092,0.4101525404925674,0.5151867188710325,0.2813621466542819,0.29980750553919283,0.25304868858690266,1.938172028699071
0.21383992945991248,0.3139385637226819,0.5022197847352361,0.573074831848852,0.3380134993250532,0.40649796658773835,0.40655132106056563,1.9140455951119364
0.22401840596593012,0.3341453212258311,0.4791092149963293,0.6027386787850766,0.3490259953324641,0.4043898027036201,0.36960008296557395,1.937738004899008
0.22466252988694896,0.30749535182673904,0.477440964400432,0.5638465295459032,0.3475058122923349,0.37571947592412386,0.33878134500419677,1.8646106187620346
0.18246653351356862,0.32084450920064,0.4013151615407173,0.5148862180790155,0.27138328825396096,0.2964992998535673,0.2677016606834987,1.9187459184634543
0.24145065248976363,0.32438684674961665,0.48954220869678994,0.5886370647500412,0.34805947671259857,0.37062993928562554,0.33835662453194887,1.935954190081983
0.22869250092943766,0.3524873859732423,0.48608838780388897,0.5984352723598841,0.3614707280427575,0.43987412157293354,0.3749651148792067,1.9586551610703513
0.21572338235648744,0.3466749317540656,0.4673086093261227,0.5964571531128967,0.34835907915102726,0.3759913582757561,0.34527633377061656,1.853246807122958
0.17673370845790215,0.3486236772508699,0.44739735172699335,0.5610199492913767,0.2863135608990375,0.33902082728411825,0.2797273219828948,1.9411210802141359
0.24961627146135285,0.3579741933808324,0.5383295776285739,0.6853854421562782,0.38825126428954193,0.45101641983803414,0.44310557877778367,1.8801927521019695
0.2547795327910931,0.328473147059727,0.5592086242261095,0.6881630453482626,0.3695469440153231,0.42516078954288516,0.39892864477482537,1.9364443545007206
0.22905000378841378,0.31054502993553784,0.5435251608199859,0.6580835568692129,0.3428212706190552,0.37319390590512985,0.3746779774744247,1.8657339099014092
0.22155797879574812,0.350897366632458,0.49517960560702606,0.6332405826001484,0.3014366901063178,0.35403414964508484,0.3051131673114016,1.882362865544283
0.2780831003895167,0.32532244795276827,0.6253319753266049,0.7427692532729351,0.41247976197131947,0.5060791777565968,0.49868184754689754,1.8825316089150006
0.2732431542975917,0.3122068563566971,0.6107209435484565,0.745194644859576,0.39451862870695764,0.4704091195998541,0.4294628244238565,1.8524358004427222
0.2504346618452314,0.3168175820036121,0.5822377133402342,0.7348223282853759,0.3702305628096711,0.40400572718091327,0.33975374254744856,1.716407229291584
0.24213706104065452,0.30335804325056515,0.5863831083586366,0.7409976103472353,0.33242106570830887,0.39507567083734846,0.2874261807388416,1.5884809461106268
0.3128968029591146,0.31138184783119155,0.6590827961905348,0.853033010421229,0.4328428926949009,0.5140460078032529,0.47638231786738217,1.8034059110240117
0.3056184752939063,0.30019483315649076,0.6692717824300335,0.8490491887770528,0.40099393162616387,0.4842175913279925,0.4594477783574474,1.5762929050449104
0.28092519722278436,0.2790607069479266,0.6401933990212652,0.7900609678149118,0.3768006835001904,0.461929390355347,0.357888556915456,1.619796359555563
0.23967840426845435,0.29115716195733926,0.5948202657272259,0.7463515722433899,0.3147534856749849,0.3596808221509971,0.2888647803591009,1.4852997104676233
0.33652058601525714,0.23051249823522596,0.7141619413789722,0.8453061618018937,0.3950066864120488,0.49143715373497326,0.4273691077377164,1.523307677950229
0.319021727676193,0.26302011504212186,0.7097819973369041,0.869473300584655,0.4691913692433972,0.5197285349566331,0.44101406436840046,1.643358313382262
0.30367810045239296,0.28234888792991586,0.6750467806606018,0.8104528191256133,0.39375055517225804,0.5107326337017616,0.3790971668763938,1.5677412473588723
0.2758175703426385,0.2737201880389065,0.6272687183823787,0.7574840888649146,0.33069797313187965,0.38588206223017574,0.287694742080622,1.5006595859517364
0.2616429652586793,0.24969226289003832,0.6498100722773509,0.7793652408084026,0.35398213411323476,0.37581900005892194,0.3042286570104083,1.4941688564399678
0.3354821151713706,0.29452884539773033,0.7162369847343607,0.8440164003791084,0.4207050651746911,0.5226434468083732,0.4209796449620058,1.5678766657668641
0.2924392690434149,0.2703354437575233,0.7072411137411035,0.8363950840468989,0.4183694697976054,0.47334206571229076,0.3904479579705677,1.418433268321428
0.27465590051535893,0.2542365427223452,0.6552748464395858,0.7720855450068667,0.3705173542102098,0.4061350365582778,0.30730855364567333,1.6583122129959544
0.23100451857248272,0.2749078106065103,0.5973597348929651,0.7228419717835832,0.2922856533064404,0.3141993981815868,0.22928746687781884,1.512610801214726
0.3219923634481008,0.26680723605160805,0.6910749750104426,0.8303280852587789,0.4170200833975738,0.4577705335831026,0.366136834902161,1.5060713754756243
0.2895980034902969,0.29167821805197613,0.6969203523530043,0.8066661223571464,0.40584093465109444,0.4315956186908798,0.350396904550316,1.399164043640849
0.2774999028816935,0.27897648101128536,0.6555401784321001,0.7728034306709807,0.34499161468633655,0.38552882608252736,0.3156105427780631,1.5032561884072082
0.22542947089520057,0.2738358313969706,0.5929434068550922,0.7140127723633786,0.30328705836145925,0.32098988147802504,0.2099536168563797,1.3998622678271797
0.2599394655801395,0.27524442218169926,0.6356458672777123,0.7231079011115722,0.302130819216138,0.3568520444955175,0.23810870639522616,1.452382003516255
0.3033737492331748,0.26020045727812996,0.6932083191225549,0.7819879218910187,0.3460043106794269,0.4144984993396484,0.3179614301432972,1.4291275128131948
0.2778201283216024,0.2803532117725163,0.6602132293938673,0.753808800731335,0.3512477963614143,0.40671422840220867,0.2969962253238055,1.420515951387469
0.22729111376333722,0.26956908195268536,0.5863529438330856,0.6835129463119056,0.2941680299081853,0.28214096373021386,0.18189911058048588,1.4192691296894169
0.22383313799527463,0.2421403718830156,0.570013799828954,0.7039976483887189,0.28279716760308016,0.272985419194383,0.17863161937773922,1.403569814253868
0.3093549974659551,0.24419937764167504,0.6824706794887738,0.7881856933405744,0.3537214295333676,0.43141857212377327,0.30044435902575234,1.3136927619316927
0.28553880776928026,0.25459755926661587,0.6632222571297064,0.7756329211585921,0.3237171948988545,0.41564476492217567,0.3213854083930973,1.3431357985129675
0.24537821702554638,0.29512010569986713,0.6069371114149231,0.7096949737837358,0.28177385523241283,0.31053052971165096,0.2365113313218763,1.364125316355171
0.20461982788332875,0.2801317383225963,0.5641351713245785,0.6816452718479209,0.25123623996800515,0.2790320874971966,0.11366888268295793,1.34585815836258
0.3181672363711705,0.2620490120726704,0.6995321811141094,0.8004377011057372,0.34980772826754447,0.41009203737865296,0.33886300510499046,1.4129515670109305
0.310995512224808,0.28618383797199154,0.6872055096380826,0.7782696516126142,0.33741845444000107,0.4027820061366155,0.30821342631882853,1.3878493574373203
0.2670465560378822,0.27021594102465996,0.6343904642249133,0.7447039698042369,0.34241001915499625,0.37218700133144983,0.24932449063829532,1.4345858805810852
0.21032877222493188,0.2715150402754883,0.5677411281083891,0.6724909923013062,0.2610167335207827,0.2501633083861865,0.16143191006273525,1.334558054301238
0.2721608535447168,0.2737605897233929,0.6470637382015682,0.7646262828928925,0.342631306785691,0.33622905411447845,0.2773710963152553,1.3557612612670122
0.2864374125305317,0.2526189692972956,0.6933363211752103,0.817619386019909,0.3860832744948287,0.41551674014011475,0.35662975684637466,1.398596045995984
0.2947572277086156,0.2440258685452766,0.6748331991781487,0.7659749307867532,0.3205744484147231,0.3928473529223882,0.2701837610650539,1.433106208474218
0.23508383798145585,0.25160167354793067,0.6232357694125641,0.7209504423628196,0.2965783099708567,0.31211138157710494,0.244932026314258,1.3147802900351784
0.22591427558459223,0.2682550932344688,0.5921214008245531,0.7149538756545736,0.2713811569394427,0.3132293396738505,0.1933817652523117,1.336610814224972
0.3102895501726048,0.2584759182739731,0.6879908209199874,0.83632271665112,0.38820755054505157,0.39991789499896707,0.3561589466491365,1.3816963514755838
0.2716283399379475,0.24951468352367417,0.6908462131347924,0.7957010929135166,0.3491242400859268,0.38915674273180184,0.31527118561181633,1.38978982294691
0.24941751203033616,0.2479383074453761,0.6472510778394739,0.7451673027048452,0.30654370789903024,0.3305989610172043,0.28296816238241507,1.3143831880285597
0.20597067219563622,0.2921684090526107,0.5794224008802877,0.7013002527846763,0.241418473600774,0.24417828213332413,0.2221368743532847,1.3655299966787837
0.29566519314666473,0.2642545121925217,0.6859573809047382,0.820950469503205,0.328700480501751,0.39039214114391935,0.3320148120781111,1.339606749997873
0.2889682631551183,0.2835747971801231,0.6784024982541759,0.7993077597654339,0.3359773725493206,0.3793244446059298,0.3380888006062105,1.3593416737882356
0.2538188757293228,0.25817411043902705,0.6336863723654775,0.7551937122248726,0.2987372625795492,0.3333436889718818,0.22494027532477948,1.351107078060169
0.21930201560235782,0.27993138501246145,0.5796943281491898,0.7093146412593437,0.2322330714335298,0.2736627881841768,0.18295878614324754,1.3232468753578084
0.303064448742079,0.2898864417310664,0.7014382844023844,0.8207834413165179,0.33130950409287074,0.4240423222945347,0.36908081389631,1.3690161286191085
0.29252933185236546,0.2509896007255512,0.7020734791854804,0.8200969011057755,0.3439786053563218,0.42188955166664865,0.34701025278751707,1.3923171495958038
0.2556078659207899,0.2480606045801716,0.6700696233234031,0.7932354386660327,0.32194334902890226,0.355553191209779,0.2531253774847059,1.398088321605584
0.23324685932791553,0.2571172391645785,0.6174286359901039,0.7443633498061308,0.2583901482243203,0.29545873652248855,0.20248518015679798,1.2864450551606985
0.3078922597089619,0.2385389363167569,0.710118921178674,0.8785977113033885,0.4046237761508807,0.45616385462305997,0.4012196789772536,1.2864605330791514
0.30351667186337944,0.2503829461612075,0.7193994091951328,0.8807674573802493,0.36454745742257344,0.44106728297706077,0.3530440717397734,1.2766453121932535
0.2807722168710509,0.29940202155890777,0.6633716513789648,0.8291475660221723,0.3428488690894366,0.38268123482677646,0.34252807642215766,1.3044120638491163
0.2400785525494726,0.27240725978336755,0.6491933832909365,0.7730958622859809,0.28872254056175956,0.34253105821885055,0.2549038707664078,1.4817879501252111
0.33556273067578213,0.2745338162155675,0.7547089766104907,0.9149562383893696,0.38079151427120456,0.4409289912778854,0.3981726090632107,1.4040834329446457
0.3413666286870257,0.25314059970227415,0.763632441940264,0.9056364632135556,0.42303283827627897,0.4826549319866122,0.40685265067514625,1.3921718378926105
0.3050791559650318,0.25965317844970726,0.7567777787783891,0.8895793276231106,0.37463563339250044,0.4268619376021096,0.3451372050575077,1.366268203283581
0.26516008217583853,0.26010074435555375,0.6855506392166962,0.8164745787758538,0.3189273856022924,0.3545307962939078,0.2794209417902028,1.4002223737817276
0.30924603008003526,0.2855023650376303,0.736173023228485,0.8953862225530647,0.3513916425673042,0.46180223529330366,0.33358202792795705,1.356431255222581
0.3165345613561346,0.31532495106565933,0.7743807942123734,0.9679855389290786,0.42985914985509194,0.5120456953761643,0.4206871343659119,1.3131729610358942
0.3121615052740495,0.31768621701345084,0.7543065234956299,0.9095251974837386,0.35948400142376313,0.46593666766915187,0.34463244386978226,1.4681513774956838
0.2670254217458674,0.31601430223771887,0.7128225524564552,0.8432384129174209,0.3065670455034234,0.41489618908670733,0.3153384736678863,1.4436449136651244
0.27223013295585285,0.30386572405918033,0.7025331870073086,0.8461918394902829,0.31691265447233563,0.39709756710865524,0.2830136268873094,1.3088543640719532
0.3300024337557334,0.30021239523393006,0.7872531766131117,0.9494060434602112,0.39571869233314216,0.4844207515187322,0.42555961987092733,1.3501847830698808
0.29880837857637155,0.3209836075403142,0.7489277770803966,0.9044490374176528,0.3802160847743947,0.45057772552842573,0.39783398556981014,1.3709936401552434
0.28086743009033005,0.3023278077305112,0.6915055244343684,0.8272920032593052,0.32454498134862286,0.40579478561958016,0.3120976263101327,1.3937715451658355
0.2710314511057692,0.32171256474838156,0.6931769150578869,0.8344642511719399,0.2965948774522022,0.3678565862531171,0.28751279002716723,1.3112243089543472
0.31374585333846483,0.3153558495165659,0.7584523600071928,0.9373032967882835,0.39327339042414017,0.4873526620417428,0.4205537440083431,1.3727408560079366
0.31049650601992124,0.29939631318856996,0.7452846315487441,0.9048112895558186,0.3738965676918697,0.4932593626643157,0.40066213743825985,1.460408599791362
0.28489819304249514,0.27620321860451663,0.6878232359421131,0.8507264293852298,0.3535783846835655,0.42805462126284727,0.3408688131348316,1.294516128889058
0.249764355420335,0.32649297985680725,0.668905874544035,0.7866413770783665,0.3158257174456062,0.3887606938463591,0.31431331755691805,1.2697872735180573
0.3193417154903731,0.3073123095074491,0.7379857974693644,0.9411393434383061,0.42069681232252004,0.5387231122080031,0.5087257638000288,1.3115064863145365
0.3207398350177869,0.30385213791727556,0.769446177348661,0.9166115456637807,0.39887660671052466,0.5195224061292139,0.43237406795724664,1.3625811577083662
0.30048824295141824,0.319155112260236,0.6978249403655128,0.8688889009676943,0.37719253046653994,0.4750407675542576,0.3824319479772135,1.3196609081117996
0.23409951586755745,0.32048978234215164,0.6457957661941492,0.804525230243964,0.29385978969918336,0.3529529262520484,0.29645863159057945,1.36787527371322
0.33221750883393836,0.3156812549218353,0.7619586645707045,0.9133047219528176,0.4201092819949419,0.5407894865190969,0.4451621208680948,1.418405359088638
0.3178086935252451,0.31408605562560393,0.7782522154727345,0.946161004446014,0.4195535816804171,0.5482524453428365,0.45440500760184155,1.3227866285057603
0.28128427565298114,0.3359324931562598,0.711803534589977,0.8881302142910117,0.38577201852662807,0.48212796977520567,0.4108478270875919,1.3352932341402528
0.2406613938859044,0.3021302567781918,0.6725596684542743,0.7917372601336132,0.30054327223489835,0.38798603470558807,0.305680719647668,1.364651038077647
0.2651412218370954,0.3313791280953373,0.7029471092402005,0.8419015446176759,0.3061022582808225,0.4211740013783094,0.3281671735806666,1.3730406244069204
0.32619236794488643,0.3009696502213813,0.7351621936413836,0.9086231910057577,0.3832555272353955,0.5202606297347436,0.4388661925248491,1.3525708771166227
0.27477134449027457,0.2783235309223557,0.7129236575922239,0.8739354496388541,0.37265732044827005,0.4724112148940314,0.414051647214441,1.4057146149254585
0.24400096809045912,0.28083182725196876,0.6824569560756198,0.8113167479708977,0.32644512236061757,0.422796703294898,0.38032585433877636,1.358751230512098
0.2132489360655797,0.30182999120860793,0.6327234536243773,0.7734387559831181,0.26609256891665456,0.35327310598351624,0.29798934965701496,1.3945909773676466
0.30085193293477663,0.3121867682759571,0.7106608604928919,0.8636163276960171,0.3838202717982196,0.49598524975494224,0.42988974202359076,1.3999160016182872
0.2925789112067957,0.28931612453716726,0.7030799352806547,0.8349819019363354,0.3737254054050435,0.5129099706038824,0.4114580944384285,1.3980682088878553
0.2538357035972787,0.32448278849004725,0.6615207924529759,0.8034113582140053,0.3160512655044824,0.43621162792805745,0.3527214067660227,1.362154225736538
0.21023944126124627,0.3289347180980683,0.5997999854356423,0.7304948022556119,0.25195479793904957,0.3391390400721045,0.24479263626775966,1.3315516090350936
0.25765872800229733,0.3275606593882707,0.6880142161586295,0.8282799012748682,0.3433689945783925,0.4526594647667183,0.3626509035182069,1.4521303203885454
0.2967749143540667,0.3243636272168467,0.7316153809991418,0.8533503948104523,0.3993826268364306,0.5199083209277144,0.46101740745178243,1.317500787259055
0.27021924418841986,0.3271469280980941,0.6676696917869387,0.82644084285881,0.37740734244298896,0.5043778697360525,0.368421063768867,1.2838126765187226
0.21631101674170866,0.31640125662796104,0.6334695557265817,0.7469293266567869,0.3102688728166316,0.3956492771253998,0.33118767900921303,1.3939454428277092
0.20603930052241737,0.326704860512802,0.6118627766820419,0.760877132972557,0.28357090365357795,0.3738364106792903,0.28339021120655417,1.2650060861637065
0.29759330018356367,0.33197258471280927,0.7230010767496422,0.8546003102200658,0.40355905759299737,0.5164134561343345,0.47121086662928263,1.207587317159761
0.27628799009184085,0.32430901221311814,0.7041307083373983,0.8394859880818273,0.35651730412067273,0.4967234682617565,0.4497429167566212,1.336029100422415
0.23505936825952914,0.28117332048504684,0.6327595364158236,0.7660910600561335,0.3375448764190247,0.4353046516016125,0.3914995445352579,1.39562358955206
0.18995438485615468,0.3384734297170852,0.5572956321518792,0.696290494171785,0.2437688246853232,0.341480940422671,0.2881357521064201,1.4076950776489783
0.23466366285963633,0.3019163476534589,0.6337161317737029,0.8224177110868469,0.3706173568186006,0.486973472875351,0.3973021956619671,1.411503735868061
0.2502515860814751,0.3210640075921366,0.6546602528907585,0.8157586722172937,0.4028480456423647,0.5114071772681791,0.4733177843237829,1.4046179730012227
0.23856656435133072,0.3459093479459194,0.6373955564927445,0.7864382465082947,0.3644185341708594,0.4668298033581038,0.4058080723295281,1.363939598046653
0.19282970050702683,0.3271117784091187,0.5814813386070461,0.7056761551181998,0.28809594156084994,0.3713713050574948,0.2896547121711763,1.369852413370126
0.20904234803214697,0.3129620437894797,0.5745132548756321,0.7153547953365601,0.2859986614011335,0.3518121266556344,0.30111867513633245,1.4116054649643937
0.25908441966014767,0.3409023399483684,0.634258172496891,0.7984774985365222,0.3861454936651491,0.4752596949167089,0.4436398757420514,1.3617781918649468
0.2180080640405676,0.3370124513061067,0.6356271530812083,0.7982586684699396,0.3561035346275336,0.4686063480877085,0.3901237870533461,1.3240971475069279
0.20748779404284368,0.33479836423396764,0.580007494536234,0.7036329514241471,0.31228924151909415,0.38616113736074537,0.338692362529138,1.4800654508418754
0.1815324091795636,0.28896456307481316,0.5553028675941957,0.6988257863885129,0.29860507681016235,0.36426758723364955,0.3223952657116332,1.4067970816010873
0.23673701756665783,0.34805985578417536,0.6542845838571962,0.7989828519523355,0.37759793907445854,0.48175675489201975,0.44688467462765047,1.337147826699311
0.249837477239803,0.3496187846785631,0.6426885693150367,0.7914649428363886,0.34819791366017266,0.4574839473385574,0.4024570269111247,1.272795504732377
0.21013744589969666,0.31792319919937967,0.5969854419642503,0.7341571705280057,0.3080453446462604,0.3975463013679648,0.322108692358172,1.4014938589883144
0.1858457614606069,0.2955662613946322,0.5574527544198771,0.6980105085267184,0.2523594356129097,0.32696941871375484,0.27632042246240995,1.35814615782131
0.2868689722419036,0.29280122245751783,0.6913225026108354,0.8281406304041669,0.40280666302628804,0.5587110850250586,0.48191906985244937,1.2986819686650246
0.2454308295775877,0.29838081164815566,0.6789236869414971,0.8267496285296208,0.3604211514832788,0.5412305790156635,0.45256476180569966,1.345651403129483
0.22962478716642673,0.3306826205344698,0.6323341086124775,0.7737890013446423,0.3526410305644485,0.4501318994480336,0.4092878226025669,1.4083098764388529
0.17189141751274414,0.2790879419931797,0.5458468982351613,0.7360335034297436,0.3212385350070676,0.3664143880928832,0.33219998075466195,1.2399889168892482
0.2713669697049282,0.27273161570344895,0.6629498474377051,0.8492321016333563,0.38185487981256255,0.4888612114146632,0.42862236803393305,1.3483071625711087
0.27846614929139685,0.30841740850488636,0.6906741901991839,0.8594565569825927,0.4102194082926057,0.5532159446076318,0.5006858219372231,1.2919652585971126
0.2740948156415937,0.3091834379727008,0.6890542982781638,0.8384170870709787,0.3737404715100521,0.48968647707149154,0.4533189250427037,1.287985581658444
0.21787705235828883,0.3230691815566638,0.6177247966583413,0.7808687575321851,0.3372916288557773,0.4130971252262325,0.3497928837940185,1.3241800762840454
0.22960229883213373,0.3055098120964538,0.6243499553593355,0.7830162201234758,0.31539664251376665,0.3966300704355998,0.37803098089920045,1.2125404158106705
0.2999546620598966,0.296045130265696,0.7103658033177858,0.8796445193124164,0.4295992445097558,0.5499557106446235,0.5354521954898922,1.1843241373371507
0.2719586195096912,0.28876759569010924,0.6709785412443661,0.8389442663080244,0.428481910310905,0.5684437803743709,0.500804552019463,1.4163929970113733
0.2304623566419715,0.29042619924212065,0.6340438601286174,0.7685401812216506,0.3708226269234014,0.4592588853586062,0.42818113667780183,1.3305121764233225
0.19055541771112092,0.29554254670577557,0.5560764921786311,0.6942481055921389,0.34176993584709,0.4149841727374977,0.33586482427804726,1.2231810834689918
0.262574726236189,0.253840809897668,0.648418170459436,0.8115370882949222,0.3871997782442934,0.5236271949972731,0.45518623018305104,1.3019834387715707
0.25317128154293594,0.23763481492620125,0.5992900500647756,0.7671094913989325,0.3610819720746372,0.4577429054273604,0.3992737421398704,1.2869693467669718
0.20890332585977836,0.24855531833584735,0.5609043460631785,0.7311340264606676,0.3040839463568388,0.40506975707855497,0.3107172488524152,1.321798321248345
0.16963287073863212,0.2700508308430979,0.5441112279883329,0.6728188849978702,0.24183043111391653,0.3244313267962704,0.2644981571628806,1.2670131070345618
0.25919978332514354,0.27865119707721037,0.6444514548387902,0.8102009324406878,0.3539000295306307,0.4707211298996552,0.4315612529647623,1.2618404054851924
0.24001321722986574,0.2541893754423728,0.604975036720646,0.7784067058811199,0.33486598634114134,0.4309172634825975,0.3668368264965384,1.1937770109310422
0.19437017934290277,0.2387096557154447,0.5891702116817387,0.7477702334052648,0.2854312899993449,0.3986212548169812,0.3233650436474354,1.2806766892999046
0.1812452750103406,0.2396206445006483,0.5394236825667359,0.7140770880339786,0.24116658278963737,0.3285974692426199,0.27444840503953133,1.2570004873752967
0.26304120730938896,0.25241322059576254,0.6619077560587228,0.8550510808894557,0.33149296315823634,0.5002292904264405,0.4517007595802662,1.2133353055212366
0.26137197326247874,0.2502825770856309,0.6699018880432887,0.821860769966266,0.35817522165052335,0.4706943916575833,0.4297107789860847,1.2280211621543067
0.2221452681350946,0.22449090370331795,0.6238036180389571,0.7916470818474096,0.29573540699238676,0.39053621299069313,0.32525374552109887,1.134524917458337
0.2108406677487691,0.2447365808250053,0.5874885269672498,0.7532227474334265,0.2686480437977679,0.38017773240002006,0.27562478045653993,1.234934220395672
0.29690150356516887,0.2569291116225051,0.7368445683671139,0.8888267591244235,0.37688418751173713,0.5124180226090178,0.44387784654200463,1.308835975830787
0.27143739882692725,0.23515225227127184,0.6959465351114997,0.8539008596299188,0.36180540534871103,0.4722316834423161,0.4316457780254596,1.310565935477048
0.23883106305594162,0.27662168427505096,0.653107261713059,0.8039224924436644,0.3192623512540399,0.4036013955578978,0.33168432241432066,1.2501112565965815
0.19648618403464607,0.2534431071187475,0.6044797933176014,0.7424405890942988,0.24434281375152647,0.319403110516777,0.26465978994642564,1.2653574246633903
0.3122216055350093,0.23905378711264966,0.7008809857428545,0.8790976854637541,0.3632509482762645,0.4601564345894456,0.4216159427140098,1.2999809243334028
0.2849925893995532,0.25081186785684884,0.7424516784732547,0.9061577977304736,0.3717575384801814,0.4951840235954462,0.43023785084975485,1.2483833757821952
0.25462120969736374,0.24011851200256498,0.6680652450670984,0.830900315841725,0.3215203365495498,0.44568121408075456,0.35747553990444714,1.2025768156349372
0.20306523991254444,0.23075651017727714,0.6098678265280797,0.7416139690893158,0.25797340966654764,0.3048869771312097,0.24759678626931328,1.2446866316993301
0.21664410147443947,0.2634896735905799,0.6442135924291802,0.778689771754623,0.27764949200988837,0.3787980956967686,0.31346669868429794,1.177746078349103
0.29266972743836583,0.2607477664968336,0.7069029174361893,0.87138766926136,0.3388873276635573,0.46683713364236284,0.38525038605032674,1.1973493799223471
0.24167603089238893,0.23538810484829625,0.6545331312499535,0.8357092197304958,0.2769484759152131,0.425373327824041,0.32250604629595175,1.21148266172268
0.17897127395330112,0.2362536350896429,0.6114746058084927,0.740571183665361,0.24851482625000773,0.3067165601596258,0.22820705884629292,1.1653991655189881
0.15547317971664543,0.22058068067382305,0.5867941558108168,0.7164984225380233,0.20702796363026235,0.2650031645051291,0.17401111362947697,1.3274190768476957
0.2705187173611319,0.25954596524036905,0.689742492422784,0.8136507598518374,0.3169446421715352,0.417436720515556,0.3251098344994971,1.257063115010154
0.2169933077263158,0.27347801741260047,0.6337285561219507,0.7854749842826162,0.2676403996471356,0.3791911457057455,0.3025433502606755,1.2838051182962846
0.17854143493328326,0.24128058237407043,0.5795254496905025,0.7094426351501157,0.2311998820676459,0.3020751850661716,0.19842068943132848,1.2782035136778633
0.16324506989194287,0.2588097591312758,0.549835858827772,0.6693286052392343,0.1873545019496923,0.20828362031614203,0.15914925816424466,1.2532788868407656
0.2411859657880808,0.2429290121470658,0.6470536861400901,0.7831860851349873,0.28463051238568765,0.4021428376095164,0.33517051041054025,1.2002042082545026
0.20177535811150973,0.2650889167845574,0.6320669994375717,0.744333400294747,0.2464274103113052,0.3476638002763589,0.2674036421430466,1.283971759042428
0.1907010654920487,0.22376887292033168,0.5629090044783444,0.696459407216592,0.22826298602845752,0.2827900091598987,0.22019502512175015,1.143589321165886
0.18891031498319788,0.2535000861411287,0.5867087856976134,0.7079563098438189,0.19132303072668086,0.2667826282038405,0.21794791307949596,1.2036569155764425
0.24724692668130133,0.21515221276190657,0.6606504596075813,0.7921510180047411,0.305432444089997,0.4373191393907371,0.3769220402260887,1.250306012363784
0.22547539328136834,0.2052995097049269,0.6042960954251505,0.7814855685373344,0.27935056533006764,0.3518976095754496,0.2870385942689803,1.1789601207611133
0.20608198118320473,0.23943580342271173,0.588454789864056,0.6895109344966425,0.22566535678806102,0.3067641324086018,0.20649174165729875,1.151451243733952
0.2196264804685477,0.2472370955884256,0.6146528222913549,0.7542820239937751,0.24951233918550086,0.3433959181095059,0.2575977718482599,1.2159042832214306
0.28498623502261916,0.23624574939098833,0.6751373535204905,0.8384030394795027,0.3457069745894974,0.4271263672724272,0.4425975202285177,1.1836674991241598
0.27603098091342565,0.2507436261606104,0.6626885205734857,0.8143879435478111,0.3101193812007576,0.3984690215984673,0.3250713794669747,1.2467386807989833
0.21628906906619993,0.254898184526618,0.6282437317588774,0.7521228468712778,0.2953322452335514,0.33200330184076043,0.26757198919133346,1.1980766635786306
0.2413363095552629,0.26289621885083436,0.6439848523926476,0.7737645953757458,0.2587526833255801,0.3674261765170073,0.2605427729017426,1.1601758254408403
0.32114729379841284,0.22830381121384766,0.7291438352417436,0.8916896754969957,0.36980407472985244,0.4989518822560316,0.4321334802930094,1.313650220041571
0.31610515981094056,0.24375061824457706,0.7114826507610211,0.852600309162135,0.3705047361544263,0.45692242337290695,0.3877862823646094,1.2602393983840217
0.24559317135341996,0.25737279412755754,0.6545764928321923,0.798784206683675,0.27698580058025973,0.37526866828037736,0.31280353802600674,1.211150705858002
0.2495080632591963,0.2688116667746725,0.6072012852981851,0.745203815074745,0.227783218683468,0.30846196167884005,0.2307123158234478,1.2351930115571834
0.3337070736497914,0.24830805292682864,0.7218842233072149,0.882071919983288,0.3697297264382355,0.4776434983989047,0.45255782110960924,1.329621480603647
0.3244632220961874,0.25929579287059884,0.7324748005867079,0.8932389879098086,0.37034196002489356,0.4953917410656996,0.4287503454922799,1.2067813398193068
0.30058562317983745,0.23373112018536765,0.6847838646388182,0.8442724471170178,0.35280575917727947,0.4365112321654015,0.3342946614993841,1.2523018122337881
0.24970597965209526,0.24072062710343475,0.6217345799889317,0.7615718511730762,0.2853706594486917,0.35581727047158407,0.29474118037656344,1.2708053141475453
0.2530398831524701,0.23748612695145704,0.6548126635028755,0.7903693474881804,0.27672545243432595,0.34431532158405437,0.28676024654843574,1.2102951236475175
0.3258527531350869,0.27645633325291175,0.7406007722564086,0.888414871068946,0.3946963960947024,0.4919983944867295,0.4267047327018646,1.2491453396231866
0.3211341343364287,0.2545350220165838,0.7212801957789298,0.8727641929391371,0.3646203561382438,0.46404171276470113,0.37910779124778904,1.2945433281968812
0.23422516782265487,0.25868860233504715,0.6563323881685136,0.8013515917389039,0.2878372571465558,0.34599992014423325,0.30394136220063944,1.310332939646324
0.20442435856801836,0.2571750424657373,0.5857546520523484,0.7197136916749548,0.1978829603589489,0.25460183328748015,0.19019331271795575,1.2182425835745414
0.22342253926313138,0.2300798472441586,0.63083924454742,0.7835292846452563,0.287527691641141,0.3505342084438603,0.2590759359714986,1.338880826667634
0.3033639815949219,0.2561502550966381,0.7105953475226726,0.8458408331710929,0.3445817640463483,0.4162268033695059,0.32174648702702396,1.273618299175121
0.2663648846284394,0.22861418455395116,0.6811504386506568,0.8075494922541195,0.29918646255526554,0.3837379224092418,0.27969348993409626,1.2773454422415778
0.2368304346996981,0.25484013690273977,0.6121430309281689,0.7402122124144735,0.23669354249166727,0.3238110753021688,0.23003251969570435,1.2587774111220023
0.21881455880891854,0.27658525219297664,0.5879928249736786,0.7463306155449447,0.22152346079169302,0.28005879326879485,0.19876378636077938,1.2576696340234184
0.2873716037377465,0.2670690329496415,0.6788809529218943,0.8281734009899571,0.3784273882897621,0.44639175861148517,0.3453640844546342,1.2283421455225358
0.26115453794598287,0.24593773890216025,0.6470367983357331,0.7744356375088257,0.313655908828813,0.3835681676294752,0.32948240520603356,1.2180570903537462
0.22657320935968783,0.24732661048354865,0.5949972981900685,0.7243350015100061,0.2639499037346074,0.311959989845276,0.22290265272561008,1.238629621128669
0.183637424362472,0.2611790385676931,0.5505295746660973,0.6711057205315897,0.20504370013896453,0.26216920880626937,0.20195690833712143,1.197827208016685
0.264209248559919,0.233421091340707,0.673573397289775,0.8199436365633245,0.32056049978158924,0.4529305270652574,0.3731816173729048,1.2553878553747388
0.27104492718579354,0.2600145485523807,0.6840606621520675,0.82490886093363,0.3495323182236322,0.43253164604538963,0.3332266691961002,1.119720013088908
0.23522383634364383,0.23790279747510393,0.6163629370172863,0.7583396812653799,0.2980682830313483,0.3560822292005897,0.29121313234744306,1.2787943537943949
0.17179039702352825,0.27318477603190977,0.557638383995639,0.6838611152986196,0.22188170063940937,0.26612827497674785,0.1899062495164955,1.2243040526269098
0.2719994872480361,0.2535256326614683,0.6887449299327961,0.8288617986584509,0.3350837947602593,0.4197360641047333,0.3428618459369767,1.2496058845711995
0.2758516107644265,0.24006390470554395,0.6813513438595877,0.8541960359305403,0.31353211853371926,0.4397565985899662,0.3711729432988,1.2461914857097065
0.2507369929929645,0.24507540759354682,0.6592718904716148,0.8157102573015439,0.3201080684726832,0.39043626790484626,0.30493922629157,1.3309703150512247
0.2100552844891968,0.2570357976673688,0.6080647298570804,0.7340391292724037,0.24691453452019965,0.29079051746867046,0.17013283542364846,1.182268456317978
0.24259063479015966,0.2776696977887399,0.6463001476797824,0.7926949343046987,0.28474954142256703,0.3821207809486278,0.28058349079466666,1.1335187088384118
0.27315200034977244,0.26009929389511977,0.7218148664968194,0.8675908315806612,0.37219009039033724,0.4527467767626345,0.3719722265239977,1.2721422857616038
0.2522583274777443,0.27394838154111945,0.6760780878670204,0.8089892123912233,0.3496191025014879,0.3985412684101064,0.3456043479300187,1.1668941332727294
0.21699176364483586,0.2667472618166444,0.6202505472692155,0.7484665937727704,0.2840690401535843,0.3071311022429455,0.25508973378960037,1.2768839392747324
0.20621982929287486,0.27716136239766925,0.6245838882068151,0.7421441092612293,0.23485850015324808,0.3231013450173344,0.235928201208207,1.168848922179142
0.28018732426244497,0.23502299409654137,0.6947642050737977,0.8517793724652797,0.34826818192537834,0.4359832815435527,0.39304107098157115,1.1853077436000423
0.24626351648840059,0.2325725500292691,0.6938858660131529,0.8291895779187494,0.32562086132212714,0.4258574616037489,0.3257024368285096,1.1756874340026207
0.18193102987737178,0.2591808491484642,0.6254367231793002,0.7597840329295903,0.23432857704321958,0.353431704621823,0.253839310370161,1.271205103693907
0.16030218306227717,0.28763567260349926,0.5504475217519696,0.7175803311210357,0.23178398427496283,0.2569920881852675,0.23014492907972783,1.1355438915455371
0.26264716523140386,0.2654910697042158,0.6518760228087574,0.8084722507077935,0.34055635962609176,0.4129181103884467,0.3568262396944535,1.2075452356115948
0.20042483729686505,0.2991456636888334,0.6533305597249612,0.7808947305385022,0.32316609197226936,0.3824773144347962,0.28935814294803863,1.1719144678352087
0.16852233094958777,0.27258584989293055,0.5944065446666152,0.7333761428186846,0.24419515583079401,0.29598977364012014,0.23248892745509128,1.2395014390275667
0.1600682195505543,0.26252142248868526,0.5698580408929214,0.6897524346767471,0.22208197643028774,0.2768617252081901,0.20984957379144625,1.1789235717945517
0.2457797097598792,0.2556904247181264,0.66753710049811,0.8018205203005095,0.35742872547380433,0.426321593840601,0.3241417328109412,1.160247759362855
0.20974511511970517,0.2447605094625457,0.627507733231001,0.7848861143015258,0.2816263734808586,0.39714848782678813,0.32589861260645414,1.2178227217590658
0.19082957002344172,0.2731884208749268,0.568487733926564,0.7284952733896216,0.2888960082295944,0.3653385710251333,0.2425110973726589,1.1675144261600652
0.20386759689594477,0.26513844612383564,0.6295646495594678,0.7812141746458019,0.28314045573100793,0.31878929509713355,0.2593128864471898,1.1522683811985246
0.255157520158016,0.2751453437314778,0.668658080318452,0.8403919480615714,0.3641388122512804,0.4607621399403269,0.3775293502747086,1.1760254158453682
0.23002483380365984,0.25424721413974644,0.6732939815426177,0.83117287123617,0.3396504463339888,0.41739403726349156,0.35607561797372994,1.3261946875961481
0.1939293038606582,0.26962839332482397,0.6100882987584285,0.7434107386768481,0.31479459713967994,0.3485550840949572,0.2354763110732211,1.2181660890697024
0.26043788646082805,0.2517356246880394,0.6879191509755375,0.8719337885782583,0.34630388707235404,0.41753054581583604,0.335042848438013,1.1597062695849771
0.299932235038957,0.26443216873667125,0.7277677018185235,0.9275632641248451,0.42383601131570414,0.5162531544155383,0.4501807826330451,1.275504638938784
0.29244107014854986,0.2459091539996439,0.71061836022007,0.8711449134067215,0.3765605583237613,0.4898844481366425,0.36640049840347283,1.2296007526256116
0.2264916810305294,0.31122115080854185,0.6733647976047519,0.82350660385074,0.3322663929416841,0.4159864643770777,0.33230799173912046,1.2251320989171177
0.30253694599264963,0.2791798102613059,0.7180550494978035,0.8786835055594714,0.3952504617921258,0.4730106002005144,0.40479317362368994,1.156085356342602
0.33725869250412044,0.2698824161968849,0.8001502032266593,0.940946169447998,0.49808194178464826,0.5697485110267106,0.4918072782645412,1.1936859354966045
0.31342396751994084,0.21990019643780281,0.7673970754659334,0.9160652638130865,0.44775575284852726,0.5460872102099273,0.4851671366361834,1.3243431875578324
0.2770758928520016,0.2352950181600232,0.7020947222254523,0.86251058115524,0.3893998036461974,0.45061914233614553,0.35557008430073145,1.2595241424061456
0.25571686898300716,0.27218445147197146,0.6781752815971298,0.8174512904746167,0.30913955482077726,0.4218031251059266,0.3281544987702754,1.240990847300116
0.3604361838704043,0.2413752218933852,0.8130464142933305,0.9701364513433058,0.48070355750237215,0.6084005055309769,0.5527847852324815,1.2847390773492504
0.3525800081666099,0.27713541810689535,0.8151814894214547,0.9563209124291392,0.47886340094101937,0.6232546346664022,0.544872703649538,1.214842010850582
0.3288478834228128,0.24922455706597788,0.7486295244519848,0.925765426583129,0.43181386110310016,0.5413404398560526,0.4644909449462798,1.3057879741614586
0.2810557234158022,0.26397861888347574,0.678986909853623,0.8461290817106176,0.37931295828291556,0.47872804583432715,0.3389899603200719,1.2227304949318722
0.2636142199149873,0.26101587566062323,0.6885020448400768,0.8352480650116572,0.3403882054237264,0.45028708148170116,0.3537136500161449,1.1655834414685782
0.3423580333713874,0.25103132016446467,0.7902055892133233,0.9678231198313915,0.47384253274318966,0.6068726922761891,0.5553197507601302,1.288394350111897
0.35032551834586423,0.22445775006454335,0.7691538613408554,0.9503947630267008,0.47063701056011115,0.5947279854147042,0.5252723939236121,1.2429598811381393
0.30223225441974916,0.2588931134237689,0.7167138539634106,0.8800901152828018,0.4011887639406756,0.48387234271524476,0.4038248879791638,1.2006719217096655
0.2559356071633165,0.274937702899459,0.6645985500278194,0.7970765882358487,0.30456001675028554,0.4342848499873473,0.3090001391104217,1.1557491315768245
0.21879043252408267,0.2475049262399146,0.6513547311312802,0.7716991812649446,0.3030873431477634,0.3981525154492178,0.31889923670987963,1.1816587525788569
0.3277635497932175,0.27061954158586243,0.7448564714406257,0.8916499051353147,0.45655764389463654,0.5880754285082974,0.5115750949029944,1.186369064121809
0.3048853281903839,0.3096499362745471,0.724625074512678,0.8529600698977177,0.43086247377446113,0.5634047686379395,0.4552671352460715,1.2583709478269842
0.25433766857674633,0.2704776220990623,0.6509810307612574,0.7811175167206087,0.36638286897735783,0.4728063294138277,0.37624157178752077,1.2122430725207451
0.2237186582721601,0.2447067992045912,0.6029579449152117,0.7267385794586747,0.29442660777281016,0.3621253747603137,0.24233987473364813,1.1883222989925606
0.28183134959057105,0.2372618506023275,0.6803934633228733,0.796056693566131,0.33033710078816964,0.4146995589729692,0.3617237355937199,1.1533582077775335
0.28208596608891273,0.26657737478241034,0.660629624086585,0.8122266975228731,0.3631012263504472,0.47550488590073364,0.3677560941784631,1.2022909559037152
0.25878044631766284,0.2522876970292042,0.617227811305996,0.7695223866252171,0.3169950901974519,0.4406570598893828,0.34508748587038496,1.198587126417759
0.20074827460857195,0.26053679720183975,0.5686722395156381,0.6657160993793082,0.2790191746161184,0.32361643476053376,0.2544231625068898,1.2382882323440783
0.18801202821314028,0.22036770505996345,0.5589220830671874,0.664129802362202,0.25717041801370905,0.3388609336642585,0.26077972051421305,1.2804295640696122
0.279004889179951,0.2673940672354632,0.6618279530610224,0.7525381644954064,0.3508934792197524,0.47498900428424595,0.374544937680681,1.148831409421945
0.27302848887391884,0.2862443363972737,0.645253078604787,0.7367933896765161,0.3665883776861691,0.4466767325719362,0.36665809266941946,1.262306781406903
0.23615623691951512,0.22781928030957654,0.5764658029035945,0.6418023723106225,0.28237863566149646,0.3768122935416674,0.2566414608609274,1.2583892839747326
0.1731532271893544,0.28641670944528214,0.5097207165020998,0.5825306821612062,0.2544852684862039,0.32173009157622956,0.2596324337179803,1.1511776572139651
0.2652963250467283,0.24136760129755402,0.6074836198241249,0.6923267151332076,0.3421140576794824,0.4579550023454774,0.3845696012750759,1.29416424622608
0.2561914746914254,0.26367169373056276,0.5796619817307619,0.6885219259136127,0.33710060156902943,0.45142605028773625,0.35267631595514515,1.1653132638978239
0.21741962311960827,0.27107480087878477,0.5448330899935416,0.6288716295731667,0.2661979375833474,0.3664311205957152,0.27053539413429556,1.2200207132835739
0.1656972481277155,0.27893316315019384,0.5176772731057752,0.5633669553535068,0.19503953732606963,0.2738403296897806,0.20403124639181117,1.2139776074739237
0.2238264297998069,0.2490234682826246,0.5804206056165002,0.6471568449326801,0.30409521310952364,0.3683965968416693,0.3155924065297528,1.3092615555767222
0.22206321682132857,0.26190221123663177,0.5886097774413166,0.6626841554792704,0.3206227550853594,0.4465261548968263,0.35251239173001436,1.1965174817019895
0.22791084931024713,0.29581485231361054,0.5245559582291226,0.6012648041644214,0.29706168761032037,0.38213915111298646,0.30627474208284455,1.1950455263763182
0.16502885945892945,0.22167197730985824,0.45682391261135447,0.50591212714706,0.22785347206668155,0.2865240458705033,0.2348422781187007,1.1589192734604865
0.23491058273540874,0.24173070101549152,0.5339114905046864,0.6253605594796537,0.28815863164758787,0.35662942146889204,0.2639306109751262,1.2448660519917922
0.2246517080882751,0.2899277304840309,0.5434927073448168,0.6132409400079455,0.3194186949838187,0.3870858357608267,0.35001070169233656,1.1721349508660226
0.20526578748186036,0.28140300744584035,0.5057658352327155,0.5601921436389211,0.30358988809295384,0.36121085948367354,0.28156227219203195,1.120214881677705
0.1327230438667968,0.25789319472328726,0.42865318283476633,0.5050520750562391,0.18484296206988343,0.27070826950403054,0.20035920433758944,1.2213722326576444
0.20887667067946944,0.2970281866213117,0.5076781550178509,0.5953273216819986,0.24084213322888523,0.32826464351474643,0.3033807359297788,1.2212103221330184
0.2002134847342074,0.27498368589223104,0.5014695942740112,0.5866392908806494,0.2814587791028612,0.3632842053606358,0.2645439218410689,1.1475449857923614
0.1739595056324092,0.2529232059694366,0.48415843902881833,0.5824638875661273,0.2562006195383261,0.33426812750331747,0.23161829075417154,1.2482591461523456
0.14638489994706758,0.237526044424874,0.4331741650628016,0.5267456266369133,0.18326393748923497,0.24173116816553744,0.1587944606424599,1.1129908910014774
0.22743391382031283,0.25781327026796585,0.5546879557363541,0.6465375044272381,0.2752409447479319,0.36213025997006226,0.2984596915564717,1.297550671508359
0.21989884972511628,0.25747254200745706,0.5215668017991811,0.6264700153778032,0.31398167762720575,0.3410974131512459,0.2856268880191811,1.1827379473344095
0.1773422978297123,0.2638149047119564,0.5101517613378758,0.5878768542835484,0.2424090817771028,0.30814631390592345,0.23357544426509225,1.2450304741081557
0.17907753599882117,0.2715172091202084,0.4994944194707017,0.5794474947559237,0.2117066225490964,0.32678845564294395,0.18483480389039048,1.1297334328799788
0.2646612421856936,0.26272594338595945,0.5839351370905315,0.7159354915393323,0.34559915931204394,0.44199845683732014,0.4018746372289274,1.3086340148683546
0.23079486175118358,0.25899595046013724,0.596228557432376,0.7002443544502808,0.34635087058793207,0.4018651860746274,0.37948150702931255,1.27328452576959
0.21511475854252493,0.2798869414685751,0.5446690983234561,0.6664767315992993,0.27829015448394795,0.36060758444877977,0.28023005607794965,1.223030827635415
0.22767832868123472,0.23917484816695975,0.5626228579480118,0.6953245529887414,0.29094259592105903,0.34875417649738577,0.29307982748346545,1.1899261382789257
0.2951583211658793,0.26194712037736173,0.682326590851204,0.8094848399734089,0.378057744064495,0.501157888878827,0.4342152072956934,1.2681491088542287
0.27768218584564014,0.24595217620077683,0.6613396104414142,0.8059948087594656,0.3733037078181869,0.47884869146025366,0.41762502401694934,1.3333365304962257
0.2610680176627891,0.2965551217663322,0.6029518334057874,0.7499758170195013,0.37309433774558953,0.4049616993344827,0.3332245792353165,1.256814115879624
0.24822033369560287,0.28759351057794236,0.5551458517457424,0.6978061361288923,0.327265927405771,0.41734347936546484,0.3790656570607618,1.336055229437565
0.3217840763170398,0.235611850673238,0.6841973872437301,0.8176100361904268,0.42673187148596003,0.571715058816906,0.4918863470347623,1.1977460031670117
0.33167409438540574,0.25499631292750213,0.671979752507428,0.7998025765389607,0.42579600468046397,0.5187852843405706,0.5003651322973529,1.2439434043860669
0.27242462112919114,0.2642991299916506,0.6298725063699417,0.7538718756424965,0.36557990380281147,0.5019888141755744,0.41546611639738296,1.187806179708788
0.2283320856983896,0.23798274234138062,0.5603898562463362,0.7040520673475833,0.3365280670643926,0.4054687260964233,0.35360506217649346,1.1933176305361062
0.2762548428582697,0.24341115033745536,0.6488457170210391,0.7898265019080176,0.3856088190659745,0.4717067350122883,0.4269648539622898,1.223855666461145
0.3280947509380934,0.2597662452693865,0.6977507963397442,0.841485540816424,0.4064130494223928,0.5037135190862883,0.4899051473259724,1.2587916681165956
0.2798843465998856,0.25694150309691466,0.684911362820018,0.7998978090355867,0.3881323515293942,0.5085475513596369,0.4293917274596486,1.2289635091147555
0.24673665725516714,0.2683301268546877,0.5882810673626038,0.7433825245689993,0.3370329853466972,0.4239363081025451,0.35908765049853514,1.2467938916034662
0.23765915163189302,0.3026372208094977,0.5901824344057134,0.729219128977805,0.2967074956454691,0.3706921027297775,0.2789431397011238,1.2598137425178377
0.30934302866834346,0.2605203200780969,0.6711281221511399,0.8300974977856408,0.3956301433033419,0.518847545062063,0.4738030597794006,1.1821334818105458
0.2735187463330897,0.28275194778353807,0.6814160629857557,0.806057882868708,0.3723039343824756,0.5142761954607282,0.42468649296779176,1.18626109569295
0.243368350352271,0.250751455987,0.6076657793668017,0.7614848225791423,0.33835891791568184,0.4423051740707035,0.3477216535931069,1.3253844892750495
0.18268453963892373,0.29399667391273593,0.5365720903884852,0.6747281981222912,0.27289705241952417,0.31642738229010303,0.31950738062157674,1.2281941724558478
0.2655178114748546,0.2840511869290338,0.6426029455358809,0.7952208904606063,0.3280816920628321,0.4537470613738222,0.37831701634100656,1.2181349917436648
0.26137334680048785,0.28156685994569086,0.6314805055008663,0.7887727712387789,0.36257906235511,0.44447404389433665,0.3848741209083801,1.2324217416804955
0.22177741458165923,0.2752488342866152,0.6074775348344887,0.7535867000511417,0.34524331792601337,0.41756004219098236,0.3393442338775272,1.1781860107522661
0.17994691382816297,0.27446839329630246,0.5440250416385446,0.6616914871157359,0.24348515919583227,0.34289838569201886,0.2784126880431853,1.0856005064406695
0.24801817834075626,0.24168058748069354,0.5959652857269703,0.7754583167263177,0.3427929815556294,0.4376250477575938,0.3863883179426142,1.2158481567762733
0.25131814483386367,0.2561237233379507,0.5719013625301537,0.7412976360854792,0.34741134401208146,0.4284665127602013,0.34814849423396305,1.321855009428929
0.19536710938513555,0.2475356844509131,0.5673588547510352,0.6809766099146257,0.2926687375482295,0.35390922791922874,0.3273505692286821,1.2532310670066351
0.1918283571400002,0.22459090065939405,0.5244741298274296,0.6732842463959803,0.22605419465904808,0.33694746152276844,0.3143515402821829,1.3128865339514497
0.2630661801320227,0.24267229691874073,0.6228072542944897,0.7769370478996944,0.35781873826500654,0.4718221772743804,0.408972815282026,1.2915881381671235
0.2423873878713001,0.23756455732097723,0.5804806226429229,0.7473809555813936,0.32847498028760136,0.44418184822174356,0.4104015763525453,1.273184393893425
0.22305224623582293,0.26282982297139884,0.5307662443282709,0.6880106857490312,0.289174018428913,0.3822792162560403,0.32242380776088886,1.3364546263392718
0.21038592216141255,0.2528635993785642,0.5684055072674807,0.710135662538974,0.27999970920400197,0.3698222276452711,0.33608010932301524,1.180198683065299
0.2676453362321326,0.2441318568010993,0.6149566610223642,0.78380248943489,0.39171406089049887,0.5059126665519629,0.5005724847305822,1.231412603406643
0.2569489290094747,0.219673936109513,0.6304780495012144,0.7509795213273095,0.3666359523472301,0.48033727647774266,0.4272752272776177,1.2049882841041086
0.21103389337149484,0.24128032239103325,0.5538197483680554,0.6918745944110156,0.294006199126853,0.4067700125382227,0.35981896518946244,1.2783441535416995
0.24621294744839756,0.22587116737477084,0.6000877050312029,0.7169447061302255,0.34315829050804736,0.43038458985509026,0.3624467768097255,1.291095625330678
0.3143877949527266,0.22513337485876775,0.6601439308874119,0.8284266502311896,0.4210699691857148,0.6261435775134742,0.5441049845767153,1.28811477608903
0.2926418182796039,0.23378649368992302,0.6578098053417897,0.7964562713189093,0.38626601846834974,0.5083167421134783,0.4547461548675002,1.2360341982381113
0.23828037803548158,0.23412584551337146,0.5913879210035234,0.7068921141699317,0.3410704926924881,0.4391051502712062,0.3699022941255444,1.242126698847547
0.1931851281377838,0.26505295498685183,0.5471233332567209,0.6305053363422747,0.27254043987595855,0.34197971774429153,0.3133259294861255,1.2626958020973886
0.30561495580825193,0.22969846570291474,0.6765807666124333,0.8098957555112007,0.4002526730772644,0.5433494697030105,0.5230893418016215,1.322496932838756
0.31986600118125513,0.22242463326437095,0.6788806011086322,0.7897478533259553,0.4346016292456699,0.5599408570977625,0.4928575217262992,1.2384748944996296
0.2772002208545821,0.2559636708612712,0.6416499530170101,0.7291679727997523,0.35693424136271634,0.5088756310090338,0.4753309888315386,1.3028929327159824
0.22393078158080512,0.256572515345021,0.5549225010482794,0.6568957380756237,0.2833313144177516,0.3755941250796278,0.3214932844055036,1.2555968812799305
0.21162927044861207,0.24166384674889702,0.5288383105336579,0.6410782847209386,0.3014379722172433,0.3772104753419726,0.31269733747194384,1.0652933850559714
0.30661723372693633,0.2606417815876061,0.660312156420248,0.7506869420884826,0.4153067526940337,0.5584401231250753,0.49846608234248313,1.251256302078594
0.29247557533277896,0.23382257280765564,0.6322887370180709,0.7498362608835716,0.38639269939646265,0.5084557838797361,0.4474124490676447,1.265903135761047
0.2389275320095296,0.26339857786777093,0.5643608620595271,0.6741262450832456,0.3229839769054827,0.4551647286551155,0.35472962573826594,1.2762450299463213
0.19721979827575062,0.2573837250717348,0.4818767390618244,0.5842945036309046,0.2692460304337766,0.34309699836068586,0.2803551842092374,1.2459342288405983
0.2134816214065816,0.21068420664174245,0.51510940411116,0.593223889444418,0.30046398969032007,0.3549650541690498,0.30158195987196507,1.220348269902261
0.27163774787179296,0.22646432355485802,0.5955638554426965,0.6946733863292873,0.36147596527746473,0.4569558411673151,0.40828465478009696,1.2951603695856975
0.24447423337841062,0.2513996484816587,0.5421669750321522,0.6658981397958723,0.30292427044483,0.444126331373798,0.41482768166366224,1.3027444559125465
0.194511360724523,0.2435172772327232,0.49434974022574313,0.5789997985611672,0.28846743872554853,0.3278996304535566,0.274385919663903,1.2814144094257476
0.13478342186085207,0.24029655040570236,0.3952206269888496,0.4976404121659201,0.20115718313804706,0.27565221738723034,0.20524418899198502,1.3096020533982722
0.19283978878793898,0.24861157323160815,0.4845438180126851,0.5760531208043227,0.2576051165652597,0.3350295041190821,0.28647561231047236,1.372218840277876
0.227340963728819,0.23598979713097662,0.5074697591544867,0.6023936008763288,0.30625737808649794,0.4114097805959588,0.32525780089404605,1.2885502998985627
0.1862293324415965,0.24251418504385502,0.46816552669788825,0.5703863899483583,0.25404719628058564,0.3920964629846824,0.31684205208129185,1.2455069813461574
0.1439840702984335,0.23518036487967975,0.3963643788006768,0.4876580812345802,0.20750476628170095,0.27777830622521,0.18670162091586798,1.2588030683132927
0.12881827559832662,0.24970420577577862,0.3947987345303652,0.47578316609998567,0.20540777680713435,0.2810087383288491,0.20887166380048985,1.2020185792522091
0.20750275765510268,0.23404346082516794,0.48036651144043735,0.5703769483657536,0.30445391470833455,0.3655856972896901,0.31291715881741816,1.228094501034501
0.1787629795362096,0.2707887517796441,0.448693175309576,0.5453612894923173,0.25975833976538465,0.3305516876758314,0.27638489933359645,1.2451061938533698
0.1291290555739977,0.2717493298728819,0.38423108728929367,0.455394916416665,0.18630081579007418,0.2580868831972217,0.2190260561969788,1.264236527960697
0.09645184522540283,0.26109339098214485,0.3295012420900315,0.4194624244126107,0.16639003332129618,0.20849258187586223,0.1546465558584279,1.1132731943661596
0.17602520506193428,0.23367195614583686,0.47376682582822666,0.5440916324989418,0.2866040804209594,0.3720701649763906,0.2929223285847288,1.197919326764044
0.18449632786412934,0.24698950992231242,0.4503806922761662,0.5331532805882846,0.2924757545816134,0.34688505144244625,0.32460131581834356,1.1354934502144336
0.14403834210383534,0.24390993749235204,0.41156403493168126,0.47860033481870123,0.2644061176154731,0.3193431063149696,0.2647980103547286,1.3050081132912539
0.09567056758651628,0.2619530745643067,0.3369683578913171,0.4200542899465117,0.17225522908209073,0.2427074215026748,0.18979777913176824,1.2618769500023863
0.1802499639065869,0.2358661570999767,0.44247894899149787,0.5523982657366843,0.2525511986643457,0.34474253156485324,0.26887049284615083,1.222746450638138
0.1784306730434515,0.22215677086630262,0.44760348724620835,0.5446745661107102,0.3093419324577058,0.376562985781203,0.316102051571533,1.3097712999840465
0.14539080391457668,0.21938148840767926,0.4180639764015923,0.5060127046856449,0.2755046729454104,0.3197081725614821,0.28475142733510506,1.128868113916919
0.08596179540093382,0.24741941388343008,0.3566390984617943,0.42329006280685516,0.19814631945435,0.26866567926733054,0.20525241944259717,1.2644899852661033
0.11729992796128846,0.24638877480702545,0.40859986156246136,0.48335112861391766,0.19966510019045003,0.30462356468537233,0.24949873365989303,1.234744255729043
0.1678601243753778,0.2529592345748241,0.4495424828909135,0.5229509534974036,0.30726161542509106,0.36227803811017295,0.30920657291948056,1.2545161993310552
0.14882337715974064,0.22022520168520254,0.41630003572541674,0.5156866387413391,0.2767695166587112,0.3393104580942733,0.3031241982715298,1.2336013698548873
0.10381649118335254,0.25020203211609415,0.36803911399441736,0.40974371089136763,0.21793408847250165,0.2597016076640505,0.20806039598443385,1.216206391945062
