0.001919848247977201,-0.019550708775462233,-0.02852857754114662,-0.03377873196760625,-0.0219121554741485,-0.014760327890147302,-3.047287234471596E-4,-0.112065272120351
0.0023913421162887237,-0.02217794693974334,-0.028352823298054605,-0.03244355665192348,-0.029098252885693003,-0.01270707045297341,0.002513567426831315,-0.11240850993041353
0.0012064909166266391,-0.01617005990415738,-0.03113169523803872,-0.032070041949010974,-0.026591298431778765,-0.009504738679961974,0.004492882807675527,-0.11547664071546848
-0.0011378096887716457,-0.0198344270859615,-0.02888575864858186,-0.0344917031980803,-0.03534165677152697,-0.00703132128839755,0.002790261948586012,-0.10475410699827167
-0.0017835982230279305,-0.0162003680307847,-0.032557983419170024,-0.03375131128272488,-0.02448856576481442,-0.007996291383721836,0.004488593360419466,-0.10838514271480831
0.001558795234931163,-0.024627398541257332,-0.03142558367544884,-0.03470152190676677,-0.024680527570883737,-0.013004145887064793,0.003078013995330656,-0.11169261662084314
-0.0030527408012983297,-0.023250197515874777,-0.03243983734653421,-0.038128707439890844,-0.031208114861165294,-0.014814522940013935,-5.953315780678947E-4,-0.1198525699499961
-0.006696698256039787,-0.022248247091969583,-0.0353480064966486,-0.03492148297970707,-0.02829556904885659,-0.00965419225426568,-0.0011619145163578302,-0.11343506403784372
-0.006532114413750303,-0.027250866201528844,-0.03282978505328052,-0.04016495064472468,-0.025374018886096375,-0.012269810911638267,-0.0033765641611276814,-0.12092703072250777
-0.003548801196192821,-0.02241784049704893,-0.03412895420937204,-0.040086787349020256,-0.02990038830102333,-0.012412269180371737,-0.004977805762666542,-0.11684930312067687
-0.006267702029156344,-0.02557279852408491,-0.03511424518873908,-0.04007674772854426,-0.02621636957988634,-0.01042635825341818,-0.005163401640268404,-0.12211972336209577
-0.0037872429212640487,-0.028441798928042265,-0.03500676334417711,-0.03719947445460137,-0.02529904952237959,-0.015295553040719176,-0.003763320207677442,-0.12418867168489806
-0.002410158688412436,-0.028216455646228225,-0.03394874575655741,-0.03994940183185965,-0.03016699978404761,-0.013905379241724913,-0.0023002238180565788,-0.10605640976697972
-0.003754633122502857,-0.017663304271795997,-0.030798136220646886,-0.03599707409781458,-0.031165116074466658,-0.01789416978815494,-0.010917991331457363,-0.06243254876501023
-0.0012699791237510128,-0.014578226978770011,-0.02795428462558791,-0.0286203996915877,-0.035049732350768484,-0.01979692655957495,-0.01537288849696467,-0.025121896216814054
0.0035747655862848377,-0.02019892976318814,-0.010539873111553006,-0.005915869283296887,-0.031003363248797086,-0.021809541832780565,-0.026875535389126293,0.005576357035365116
0.01678597324121245,-0.04047977013151594,7.231570377781338E-4,0.005313805457367964,-0.03622240002747128,-0.03922320679779755,-0.047488643697758265,-0.02528750117918729
0.014444093768887807,-0.050922692428908636,0.002314708106664091,0.01564845647640159,-0.03628220438122515,-0.039424296767613415,-0.04942920104062503,-0.026957619486559666
0.020878723168911175,-0.06160568343103731,0.0021466096691638934,0.017194245206911856,-0.0384819906405136,-0.03849689308956107,-0.051050052591056154,-0.01023847189677654
0.01965437421844508,-0.08001574762577604,8.273742043471935E-4,0.009870337145631966,-0.032728699466925,-0.03706849374655353,-0.045936114860346315,-0.014837861916866856
0.023533249273405204,-0.09428557705376986,0.001852281460386964,0.017986634179418218,-0.0289196095111014,-0.03388681249119802,-0.04754837364357343,-0.007855505591123387
0.027638765215651964,-0.1294803612951657,-0.0067328962662505515,0.017562966951594497,-0.028728158372291115,-0.02958297127565384,-0.03823865616561861,-0.015761852894702298
0.024498130377378045,-0.14115335252403366,-0.013269928838469188,0.010127774179253238,-0.02293383559490786,-0.020067806967732197,-0.03080571956725001,-0.039135188367105424
0.023860160517680536,-0.14182737840577922,-0.014648130953172809,0.004236099528676564,-0.021687538736543898,-0.014215928528968377,-0.02262288875490791,-0.026444698620925012
0.025174944722648314,-0.14860898616631488,-0.01872555330295972,0.0016898914503061643,-0.017258520705315382,-0.015144610813643987,-0.01605056383917031,-0.02361589613813578
0.021776192774779598,-0.1444609279788206,-0.025153643472142252,0.0013210482715296779,-0.020453275464594838,-0.014859267391585586,-0.006658272509677707,-0.020646343632440115
0.02259025403916887,-0.1497634692323239,-0.022186804397469152,-6.957801756451107E-4,-0.022381972231551223,-0.00902743392719798,-0.010912922974051834,-0.015361564648705946
0.02447225376756897,-0.1505132319629883,-0.02277341668187491,0.002113644081928332,-0.02018533619465285,-0.007503169273651996,-0.009775634200943168,0.004236833249707809
0.023393958550733233,-0.15861008666128326,-0.025209234610836063,0.0037082019445637358,-0.020494033719311865,-0.003534492318107433,-0.003387680304319494,0.015255595677780946
0.023102840756650925,-0.1585352489719917,-0.019065989351195623,0.007160821507599289,-0.025658226328685595,-0.010505511716677003,-0.01558798315503638,0.01281462994380135
0.02306907415641718,-0.15513811320465384,-0.015886833997030524,0.010786628609474571,-0.021503811620776976,-0.013318665983547202,-0.01590114708258365,-0.004792961303810309
0.022634724573944765,-0.1483616349084498,-0.016548374972156332,0.00987409926714154,-0.01596060239736405,-0.009495041720681018,-0.01031726900342874,-0.0030275814563974373
0.021376277366408934,-0.14092747482645587,-0.01639277067680682,0.00608292084572268,-0.01851908344534255,-0.006183178542468888,-0.013775582319280437,0.008341063487073998
0.02409420257707893,-0.14774138959363672,-0.013314863509334607,0.01111181038148977,-0.009609257799157186,1.6024770964089143E-4,-0.0032163783049127415,0.029562302499866983
0.01820062443925599,-0.19588583643107477,-0.013988591984966667,0.018525753346636187,-0.006577251696764147,-0.01296622340423124,-0.022044346389313508,0.04920439459836954
0.024339115872100508,-0.2413050984673838,-0.02446628938495928,0.020644407420982402,-0.0023121919893822032,-0.01375957695614924,-0.024488702434625618,0.01568770277415449
0.02577898112113383,-0.2574722911164493,-0.019164728357350173,0.023056384088160506,-6.283464730466586E-4,-0.00416525059909096,-0.01629245033834074,-0.0028728915721931815
0.031102930834466382,-0.25165095357520245,-0.016113476820159792,0.024099969453885383,0.006736865865746748,0.0031107117703256036,-0.012298305255118965,-0.006851692430270375
0.03210984842199807,-0.2562819317305024,-0.01622589166257247,0.030355655768522248,0.010392883925634028,0.005960510161434983,-4.7800752027316544E-4,-0.025734757469569332
0.029208784955979585,-0.26208576721438104,-0.019887911561557566,0.021780830083954202,0.009875767015541418,0.015558416111476544,0.011463505856080618,-0.03790241458000519
0.030670914014363334,-0.26631794153193095,-0.026513538939017027,0.018785881290540703,0.011512138606344037,0.022453339750675205,0.02456591816048665,-0.04286898876585291
0.031998343366681635,-0.26184338457119266,-0.023899768324721935,0.01876301957165362,0.016742578187117767,0.023123861941020712,0.02082317236563507,-0.01989934146270338
0.034401153156300525,-0.2631986607876197,-0.02135885948951332,0.019507988528246707,0.020791111203862823,0.028425135633758435,0.028986009635202127,-0.022371043053224047
0.03393302062819329,-0.25391700668231887,-0.01918886190407186,0.023041088207804285,0.021635827608459925,0.03382293626135362,0.03331624386597226,-0.04183633630230832
0.03890862683153215,-0.2413954032649212,-0.01676696865779199,0.025202644793733006,0.026556246218297934,0.035598714558473354,0.04177398510105126,-0.06622712865674579
0.035223223583951344,-0.2287001757502868,-0.019478199328344416,0.017991707299709107,0.027650410982008114,0.035862774275398274,0.03849227914372951,-0.05512686831352584
0.02839581652823563,-0.22501624283052676,-0.022788360349370262,0.016434028664724362,0.040888958475316865,0.03069079243218544,0.032866088624458854,-0.04127483560905718
0.029476755922344503,-0.22801851408222143,-0.014113434519556612,0.02512175075454878,0.03419716719984536,0.028764510289179538,0.02810046819437958,-0.004482782171001218
0.03479423840660546,-0.21596606843802912,-0.0019160099996154705,0.044487358582742005,0.03405315303009337,0.02064743388122632,0.011579471102640734,0.015270852821970953
0.035808461169770954,-0.21197750948416402,-0.0013855908380744466,0.04499717272893605,0.03969817102936788,0.017584852575241724,0.01643379968538958,0.0466476183037876
0.03801367617421185,-0.21230265717954988,7.321542524779851E-4,0.05049870969313968,0.03771483831895643,0.013174772238871221,0.013517617404867076,0.08207073284887549
0.03764881988134317,-0.2124522177261129,0.0018894259812139165,0.052315806279417586,0.032321475014493506,0.014009975024781627,0.01329709704019209,0.10938041155193927
0.020588540284637954,-0.24982985553877532,-0.012698518822445706,0.041828379084030046,0.031057664510201168,0.014560548691183034,0.00879574407034605,0.10127177507283351
0.011356249492815607,-0.2993660891857985,-0.03282662545540504,0.035889156140509484,0.04162998032975833,0.022102242057928236,0.012958219550978643,0.07683456197760953
0.020023582820984476,-0.29252958515124716,-0.02457638997924893,0.04021719710385467,0.029689391345110585,0.029733651754281647,0.021656070482167434,0.04293463591284368
0.02140828289240846,-0.2907314289750693,-0.021705051690457784,0.04156803294612542,0.03924647999782309,0.03057779235603349,0.03179903012408442,0.015305017690576034
0.0223502641955044,-0.2898495436050845,-0.027842701689719078,0.03866177896679507,0.03714445127055269,0.041801921833790195,0.036950151774529816,0.003575185306913094
0.024074036959144035,-0.28663423307096814,-0.024018112933769865,0.04036942003062896,0.04163405190368682,0.0499295258542124,0.04543970591354378,0.004799905646028767
0.026504736364214476,-0.2832836418706474,-0.024147507261974028,0.04057702499060833,0.03912348867977802,0.04638455976534247,0.04295122636477114,0.009318448049297177
0.021133324225823216,-0.2905974748074605,-0.02263278563414102,0.04525133147150514,0.04294865187455255,0.04771209901868257,0.03881032352761831,0.04391184481718072
0.02908524826688654,-0.2795714581157727,-0.020555318539077973,0.046756685897521334,0.03752255392336338,0.04521472109830745,0.04486070501139846,0.08447848516639189
0.03106943474592331,-0.2588892995419978,-0.013024084947509874,0.0498986096458804,0.03788777215930894,0.04273567182953787,0.04182159733237196,0.11704224139455373
0.02837280829072335,-0.22856027635123158,-0.00926122024546377,0.05000862448641597,0.03492452009951483,0.023951025503820392,0.02079564986107736,0.12144001413019925
0.02291479430808031,-0.1860927503132986,-0.011563793500852555,0.033810674375625765,0.029227810663038905,0.01645470846370682,0.007545171425977949,0.1079292465490464
0.021125366551097795,-0.1528585145527422,-0.014728466714872915,0.02300902716708485,0.03108640993326045,0.020767121417755753,0.01954265693169787,0.09467306710878744
0.014914382902773372,-0.11611041836522312,-0.014104541428212663,0.018614340678080266,0.02913102865514644,0.030206759248035904,0.03408271952177952,0.08097106360306269
0.01353996989204361,-0.10634370296417617,-0.021037350360424065,0.005874524411005222,0.03947634616307666,0.04575861254963393,0.05149502921641511,0.07634589256481006
0.018042893451345212,-0.09464837709828738,-0.021605933356146783,0.002529178436329931,0.039052543258603134,0.04880815950547125,0.056908904190555595,0.04861730922168054
0.015365295745843995,-0.07749891153869776,-0.024794857867106612,1.3297391200040344E-4,0.041067918140533226,0.05917499121801758,0.0691395150571163,-0.03043921479017794
0.01601467288292522,-0.08058614002019998,-0.03167149137110514,-0.006905424439038656,0.044763362561861655,0.06461755276699034,0.07970140865483297,-0.09015151595347713
0.019709197782116456,-0.08939684313722246,-0.03351412273017973,-0.0074857629697336545,0.04715804174872722,0.06808334560032442,0.09392804755390931,-0.09601299735595374
0.01727757921592389,-0.09853392429561224,-0.035305397753425415,-0.008482348226521136,0.0493413604209124,0.069517412113592,0.09630192496341243,-0.06645896247673724
0.021188863386339542,-0.11198889153808185,-0.029918065143459193,-0.006735778033875005,0.047656472949510864,0.06623658109037167,0.08947022284482714,-0.024753090342297956
0.022624111891476527,-0.11249698062349844,-0.028498445622790497,0.002323736769670737,0.04933634534589829,0.06703358132798111,0.08641631634183672,0.009816717077010201
0.024242983852065286,-0.11113201670242086,-0.022611162968524355,0.008328203070324692,0.04387690064761836,0.07022745916023229,0.0842602436165766,0.05922098442965926
0.022241195836254748,-0.14756018037461477,-0.02212879937457594,0.006670601274799996,0.04053879097489896,0.06099163420079409,0.07631039886710958,0.09938486055295208
0.021959612704625323,-0.1919289932471307,-0.020073319756394203,0.023193237845216017,0.035137733224147476,0.04588991556296901,0.06531301796121876,0.1013194882995321
0.0207714076237352,-0.2343234120627365,-0.020592507343864502,0.02718811288677587,0.040082491801488394,0.04841175450442786,0.05434660510681788,0.10662817785306586
0.01842920555721678,-0.2609116798414026,-0.025772753039668538,0.030088737497166597,0.049439716011380884,0.05014066778753741,0.056571606992736716,0.04575650589576045
0.020376655334159752,-0.2783824386750596,-0.026461838877761372,0.03845747513684211,0.04247561390477006,0.05493129981196964,0.058670186326457326,-0.004592240636524244
0.02058959681817886,-0.2938753180913986,-0.024974142381340374,0.04114554516127938,0.051762027666155785,0.0577268602610374,0.05328032915098396,-0.02538378641667895
0.014953016344380095,-0.30033681384240324,-0.02649931630864321,0.03720051671526898,0.047133146396257146,0.060819983104380124,0.06241383035951763,-0.05487629347568891
0.02043105512917662,-0.3099216746961194,-0.030058298619269886,0.042772151692468556,0.04835578586126548,0.05881740423022143,0.06781556016206414,-0.11475345522405636
0.0309305596092312,-0.2875676713638363,-0.017590783805632903,0.0549864331665694,0.05179829964067786,0.0613589867333495,0.07054090183839393,-0.16978370787544692
0.036013830253174124,-0.2653905669115672,-0.004072175400804088,0.06614895095093284,0.049342683114528094,0.06458585583825772,0.07805134873684633,-0.23180763144539673
0.026654996855754252,-0.2643065010438917,0.01050154778758161,0.09143458586866482,0.05814764865419795,0.0680010704204361,0.08414490889391014,-0.2934719017434188
0.03434078107460808,-0.26114982298689227,0.021455558856474717,0.11201213415725553,0.06981373864660202,0.07354341296493405,0.09469142169287079,-0.363461604637583
0.03725187620075895,-0.25133287846665325,0.03832022542198591,0.13273768555599563,0.08094426421254138,0.07736294281014237,0.10652091161490843,-0.47604809791432395
0.04474972253302465,-0.24926522809455745,0.04261700795707633,0.1448727845371345,0.08109955452031359,0.0793300335655884,0.11378374838933299,-0.5184550626006051
0.04587581424877733,-0.24777246155576504,0.04061259375666249,0.1372682144597937,0.07824128767620066,0.07775526982016673,0.11410889882658821,-0.5628359142260047
0.04788716167187736,-0.2627162434370873,0.03459079392929648,0.13556378173704636,0.07474279044765031,0.0805055459221795,0.12855774803465778,-0.5819326861791039
0.048633955104579435,-0.2667255569457686,0.02428088438680976,0.1285752008260488,0.06683038721214693,0.0810297378307229,0.12442156257916258,-0.5715680965132821
0.047537007769365015,-0.2718055720499416,0.022341603567350495,0.12276315310828587,0.059379556722050635,0.07208384045169869,0.12590805157541773,-0.5508201991939033
0.04250543951159566,-0.27501963050683553,0.016832121872345347,0.11552638222304476,0.053501957032606344,0.0731268468642951,0.1266728335862346,-0.5056667536324846
0.04052959204212519,-0.275182292972822,0.01061140987106609,0.10985511098184216,0.05464121017274497,0.06873648119958893,0.1207877726947649,-0.3780366577074566
0.03902135483724717,-0.2610648848739704,0.008141308167391297,0.09042357541509566,0.04594219969769412,0.0528941329688047,0.10950125632393991,-0.2396085756711278
0.04578039591895701,-0.23679824731265048,0.0033170942237679625,0.07275211850040857,0.02354663275522272,0.022914356957254873,0.062056189605511944,-0.10059574657053554
0.04298687873601952,-0.23009055114428362,0.0015109670676591396,0.0530633447081113,-0.005168694006381536,0.006785167420366383,0.023509929395758022,0.05686880655668438
0.033228834526111806,-0.2203890020827992,-0.010746434671084864,0.035069730464669234,-0.02597441364342986,-0.010612191955328722,-0.008027408185979891,0.1378398255019012
0.040395799301070415,-0.19159931989405765,7.807228959527792E-4,0.04570280458289616,-0.025630548547457246,-0.013701092893412516,-0.023580204315694138,0.19165669264967863
0.04504733602281601,-0.13951977252906325,0.020816939315995497,0.06287453590805403,-0.033019840054475974,-0.022993600308022385,-0.03538475378242797,0.22214382151164264
0.03023764502286291,-0.08764640757530073,-6.23131446542684E-4,0.025596226206975017,-0.018514773841125102,-0.015979707703153462,-0.04012641907740754,0.21909283663580562
0.016779423894214374,-0.05246604703455091,-0.01297990168858972,0.009573496656315522,-0.012984315701960663,-0.010126688276339372,-0.031225338249465634,0.1692601354031683
0.0182467340873073,-0.006814058090806259,-4.936726125263758E-4,0.013544333218445422,-0.007362755304438726,-0.005051416487954106,-0.014852837348240595,0.09803292653074151
0.013627827924095282,0.03156401273936388,0.005558643693354963,0.012301941623786053,-0.002886519556360511,0.0013946822618851095,-0.011347202872015143,0.008426094742267631
-0.010863328853178788,0.061626549000839796,-0.011844696434025161,-0.011709771358515636,-0.00468208939052799,0.004162173864960213,-0.006476266713357144,-0.06868517389492756
-0.03103865677508645,0.05605554316131932,-0.03842923871822428,-0.040906807579449915,-0.010137884260959256,-0.0014589026399732831,-0.01366750969894754,-0.09448045131004074
-0.04259412814251791,0.03607790391653152,-0.07531164807914582,-0.07863373459970367,-0.0027585324129114977,-0.00117504087837382,-0.0057365912179957,-0.0331239436381571
-0.05308834176431066,0.020156403340545054,-0.08838196851679354,-0.09664981777749117,-0.002754574064099764,0.009761451706958617,0.0060111757331049575,-0.05167803406688449
-0.0545994246479689,0.019169814894307427,-0.08837532499683286,-0.09604312530368203,-0.005582087701118689,0.019985801799638787,0.013544917959325102,-0.035092686118620924
-0.055593241032804684,0.0025273065797625743,-0.09384202877783801,-0.09900808916397177,-0.013430153594782874,0.011229381175865253,0.008826311935517441,-0.04227438764658503
-0.04717904630125358,-0.0010830440024983412,-0.07858783225032365,-0.07866065850553718,0.0013166830827653186,0.02166976784047345,0.012931492600879384,-0.0043283614154258675
-0.04241714730412341,-0.00856216432217659,-0.0699674999851144,-0.06851131350540318,0.006912929218019223,0.02203537895659422,0.01666498167899978,0.01728018576145332
-0.040567566502995846,-0.009888859951518806,-0.07050163025057295,-0.07011359341370556,0.01003878838466748,0.02790500372958798,0.018648286750454827,0.018369789835856295
-0.04538915218831421,-0.0022973367557094556,-0.07595259039987878,-0.07430306813504761,0.007780253549031343,0.02742554695266404,0.020906861710479126,0.008620424835881806
-0.04786845953500899,0.0034476112837110006,-0.07641856318871797,-0.07754186995057073,0.012309475796222111,0.027935709045769214,0.030653294381794934,0.005389376464709656
-0.06607052552155691,-0.004921105500707265,-0.0907868675788337,-0.09628713541775585,0.010263343622435537,0.044847889548700295,0.036052152991710266,-0.03195716935991288
-0.06974180330213339,-9.366143212681501E-4,-0.0958036534871736,-0.10138151094576589,0.019155608727748397,0.046080243463943724,0.04174782035478963,-0.0387913101550873
-0.0673562682065157,0.014866093436756343,-0.09602528715594691,-0.09830957815772948,0.022240846901854423,0.0427948168653514,0.04032959114259472,-0.056847685634456045
-0.05488628251560246,0.046215409318122104,-0.07687527042731569,-0.08477945036899172,0.02987856218131962,0.044736226515815415,0.04180747172634461,-0.07976879374016757
-0.04618084746094991,0.05509807463197515,-0.06457135207060338,-0.07868960867509225,0.0304091796439983,0.05078259552102652,0.045239480457671614,-0.1035433111927356
-0.04446600768077627,0.06891201742332441,-0.05890033573229982,-0.07269814484113377,0.035480935304077546,0.05443665267874151,0.05812139426285514,-0.1345327032178952
-0.037843890660194154,0.06836099384695143,-0.05531783254670414,-0.06592073630493772,0.03620570181563945,0.05639678576590614,0.06192924193034653,-0.15280784497671557
-0.037715171863864805,0.06641938382912206,-0.051037805418426715,-0.058695665611865754,0.039949389111429555,0.05603295825873153,0.06580380492322135,-0.1693099202882928
-0.03731520509685641,0.02955072998296783,-0.05469272249137232,-0.062124934580270456,0.04236642092843967,0.06962024750204586,0.07458746038986074,-0.15377678435583036
-0.03616201725896871,0.005812624302446495,-0.05697900207488245,-0.05287001052955605,0.05002600715919783,0.08003193182841228,0.08323384816271104,-0.09107953217893047
-0.030712728048621206,-8.540413130272782E-6,-0.06107183549362982,-0.053010301925449727,0.04995304933014787,0.08102440520580942,0.08391067480387984,-0.03661406562111051
-0.0315513170862253,-0.0069691169543729704,-0.05993138236816798,-0.0513847637354832,0.057457035481812614,0.08621768027091703,0.08763705554426371,-0.011718003966013836
-0.03203640358653476,-0.02188354167341453,-0.06486078982414473,-0.05567996156263116,0.05299257164817186,0.08456306474343885,0.09339832261099604,-0.020768188595293228
-0.03584479467329439,-0.03028956781320883,-0.07141300513982224,-0.06554652597619468,0.06322990678789715,0.09157945514215875,0.10295502670209043,-0.039256682393770635
-0.02791504940715547,-0.007499605828175892,-0.05337328638767268,-0.045887681755239426,0.0642645270928689,0.08696887522028521,0.09508374955434079,-0.043729797422136285
-0.02978552237656089,-0.0036010503160948085,-0.049481682164001305,-0.04134722328691472,0.062408896685611365,0.09065142774027783,0.09454870684735195,-0.0533954274904263
-0.023325218493748856,-0.0010440950978151753,-0.04976423701175907,-0.038466734938501425,0.07300199783548009,0.09273936512014369,0.10625188018242435,-0.06794624900673568
-0.027258435595993086,-0.004577021537821028,-0.051154171223095665,-0.0468459673588053,0.07444218969382792,0.10494303861015446,0.11194352560276592,-0.05349040306673927
-0.027873276199930925,-0.007661416955928684,-0.05903363503003219,-0.04758474778478389,0.07763940199558206,0.11266497740131602,0.12017638940662459,-0.052335033186568666
-0.02851610302404435,-0.01909467394782232,-0.06320043491861371,-0.05598787079665116,0.08617308720859676,0.11693016589893293,0.13767977049276917,-0.05238733094581521
-0.024549816745653617,-0.008080105718234254,-0.05488826382045487,-0.04905374059200762,0.09792759077636023,0.12455986499123664,0.14137578674164009,-0.05575431198420344
-0.027016987071794243,-0.0024068662396694637,-0.05248043561918514,-0.04871366869533642,0.0877797526402708,0.1220147635114882,0.13658177109443506,-0.060446649470812054
-0.024817915069414147,0.002938211154631915,-0.051738631006947436,-0.04600358027115202,0.09205310253384398,0.12281900368210937,0.14637747436234058,-0.06290227505917828
-0.022642358049291045,-0.0013242907386680006,-0.049702488982454135,-0.04628466681709896,0.09465966744956099,0.12535365932593076,0.14893366871674835,-0.06062838866586794
-0.02259535551439417,0.006205477957670752,-0.047168788393323675,-0.04419151624174653,0.09713277103314075,0.1292997204161184,0.15366763536421998,-0.05460433224033148
-0.02491134432241869,0.0013343900545977852,-0.05191262826768799,-0.04719242290729774,0.09819794792699839,0.12880013999427414,0.15304976364558,-0.05924357140212802
-0.022360800678815553,0.013689752794668051,-0.0488231398308661,-0.04160705745232325,0.09783546225231057,0.13421867962759543,0.16347543930576935,-0.05933083337334968
-0.020701181219400167,0.011144761159829354,-0.042756436740130396,-0.0392699220285426,0.10685554384649978,0.14109097636035223,0.1695238793440336,-0.053884109274776555
-0.020835013869345297,0.018793130911378377,-0.04632795281391518,-0.043787066962755396,0.1081125311544949,0.14039346023449414,0.17557737888542482,-0.047628882797292195
-0.022009115348939092,0.013500208394465625,-0.05238620759991402,-0.051833828987906755,0.11425501435033071,0.14447632634464716,0.1745598890674361,-0.061846463937868766
-0.019779768698017088,0.005174094838175386,-0.05553349527406708,-0.052337984862074256,0.10793275781342147,0.14131870029658358,0.1767097298277553,-0.06226659637898537
-0.021151406414153008,0.01691453354905901,-0.053092662508478876,-0.052715848855530094,0.10756196132205972,0.14947757191055464,0.1868130603075526,-0.04797073769674797
-0.018857145752744543,0.01293217824034673,-0.055436780988603794,-0.05340008745215238,0.11106293012140882,0.14995396125908775,0.1875183756151752,-0.03609761037874993
-0.019165350678368567,0.01026722604365125,-0.05377111917539667,-0.05189094265385187,0.11539071680491059,0.15311784737378456,0.18673343071792514,-0.03912227212033104
-0.020784126235512818,0.010350706867092996,-0.05488729480837711,-0.054075621379330745,0.11108909832448437,0.15004276850710804,0.1916025420020089,-0.03934462171591382
-0.01695795230134053,0.010882211957831995,-0.05546738682411495,-0.052412514751316225,0.11139263884189977,0.1504055061261974,0.18759121567443363,-0.0378018203298637
-0.018111589438319774,0.011078657338885498,-0.054219347326353064,-0.05761422861170554,0.10847761842868921,0.14533813665525522,0.18738333429246817,-0.036727899727082514
-0.018531973513686417,0.007973016770368989,-0.05606343680421369,-0.05525155755863415,0.10949823512890276,0.14934134350152964,0.19109765229745665,-0.039708121721878355
-0.01977034481822102,0.010602314271343312,-0.05914028587501729,-0.0611287018280749,0.11252922163209451,0.14639384136367561,0.18665300165775084,-0.04717597056142859
-0.01695098629055549,0.0058917108008694685,-0.05904728432787343,-0.057578784677564485,0.10832418746051851,0.144123268776887,0.19013254539664698,-0.042340386004724374
-0.018811831692845265,0.004177725836486922,-0.05868755762668091,-0.06256359166709949,0.1025832158950198,0.14048096837770974,0.18506597281984952,-0.045187219934885774
-0.018505153448544944,0.010136069964541418,-0.06055882008734531,-0.06066402787716515,0.10220201955572382,0.13698578908660097,0.1815626157505559,-0.042402255994360885
-0.02267052883317096,0.006904693906837206,-0.06215285364489721,-0.06097173028132232,0.09996796627865037,0.1374290946526308,0.18507112635566433,-0.05886732980693776
-0.020766694564428156,0.011327312154150336,-0.06366279623519737,-0.06490742684226825,0.09509402859858905,0.13586384035608243,0.17320559839111718,-0.03993684592555387
-0.022209357868559675,0.004679832523379944,-0.06394286405428172,-0.06793117692231977,0.0928441333352406,0.124465085653664,0.16897875955416006,-0.05582235273752621
-0.02510922577958924,0.003436665006715116,-0.06385212547755188,-0.06685921637617842,0.09357216057247252,0.12188849364538237,0.16912591479248,-0.0618139455537667
-0.023755680708467806,0.003474086192099374,-0.06705909857859337,-0.06564029251696651,0.0857506813204451,0.11914933242396954,0.16565448031073426,-0.07164507607155796
-0.020046433077357602,0.006974975595125916,-0.06658715031133705,-0.06987333602680033,0.0785516618779886,0.11115600665645152,0.15941425029870904,-0.07107390410341376
-0.020185077270426423,0.004340990186506409,-0.06751269842974476,-0.0683971093952314,0.07690214313272764,0.1131080777452156,0.15246634626896494,-0.08099463103064962
-0.024054544211678915,-2.6441365995652554E-4,-0.06882341669869735,-0.07012265087194887,0.07592441702496264,0.10048996362418436,0.14673102438573357,-0.09352968968564845
-0.024214390895829687,-0.0010796735985549306,-0.06772287489993964,-0.07648694855798913,0.07304836674677101,0.09850447306694715,0.1458134394958836,-0.09241566178146172
-0.01996539598954899,-0.004244750971082553,-0.07115254085846265,-0.08172007766883536,0.06204091730324636,0.09100510278648051,0.13917921259812982,-0.1010780228200129
-0.02176016177984213,8.694899978858579E-4,-0.07606472606825881,-0.08022545430762648,0.0665216539437588,0.09065575085969832,0.13713867456770423,-0.10112957633390263
-0.024129155577869495,-0.0034894052137387265,-0.07468024211054348,-0.07785368896811692,0.056086263624931076,0.0850616164071672,0.12750605074055338,-0.11365745244960442
-0.02580274843273292,-0.004459641958500228,-0.07465706679300961,-0.08172106294261754,0.05154473589169369,0.07632566073608561,0.12724246120335644,-0.11473419735268149
-0.024951501003282254,-0.007196162729386084,-0.075734019646152,-0.08703170150984857,0.050763072278069296,0.06963020225702785,0.11751539626564168,-0.11405221795260762
-0.021563527098481534,-0.006268636621840696,-0.07920513592968827,-0.08503539123572293,0.042385929209561655,0.06834527467135972,0.11089808155980634,-0.1195453490396709
-0.021267148988502946,-0.006053673899770907,-0.07871902819703294,-0.08661643538439226,0.038026317037799226,0.06093926707939641,0.10430027209522987,-0.1251470833665171
-0.027845465178953793,-0.007040558032163093,-0.07953598353938884,-0.08731553513883915,0.03863220650998734,0.05533415458003081,0.1015337875916457,-0.13205701556466817
-0.027755353675217743,-0.004983954101750891,-0.08137454554666496,-0.08996672734522336,0.037741831463303406,0.051713934330135804,0.08961629082825538,-0.12594025677151172
-0.025400969425669325,-0.006831181680503297,-0.082923373187585,-0.09257472245748848,0.03128830728990617,0.04764154525033147,0.08832920683263684,-0.13401764013360107
-0.02238384140832547,-0.0057189959408396876,-0.08374127277976719,-0.08984006190996423,0.025284479314218906,0.04097344458009633,0.08202733673411598,-0.13283553657844122
-0.026360426264174418,-0.010485401659340924,-0.0832854460332079,-0.09197379202715164,0.020897379051029168,0.03944012341236123,0.08144612124109012,-0.14671691035386178
-0.023966665745564202,-0.007302957405095112,-0.08679670816368516,-0.09399436246809684,0.02142707422207317,0.03825083188946718,0.0765264949670242,-0.16002527448694606
-0.02768513106922743,-0.005034154136128499,-0.0858578284367147,-0.09444892674264647,0.019022183454874483,0.033142925133990635,0.0658376839294777,-0.141431518222536
-0.022776563607819232,-0.0022306374792814805,-0.0861985383978136,-0.09732855616889621,0.015193208105273448,0.030649946691312994,0.06052307765129057,-0.16259833317052252
-0.025107325546195245,-0.006204046417215883,-0.08952486686899484,-0.09561650910793362,0.015556345734361274,0.02518453710485878,0.0645226570439641,-0.16520679877185132
-0.027177924773855205,-0.011267624784728892,-0.0862261638243827,-0.09713909839212188,0.008336330787616194,0.023968623942270877,0.05894470503996478,-0.17150082653071752
-0.029095617730542547,-0.010577460138726034,-0.0914524051060216,-0.09902648620004507,0.005841365259741817,0.017094100102069083,0.055768234946111606,-0.16857437651410392
-0.024081390973682754,-0.007906031078075776,-0.09176618594850423,-0.09796019031424912,0.0065508395947787,0.01935069921673655,0.047797550921183526,-0.1717538829755036
-0.024388438940426325,-0.005315513098010506,-0.0802397123238896,-0.08837499439464254,0.013688700436183626,0.026297853087514866,0.05293432294940419,-0.14500045885092777
-0.025468786769560815,-0.0032370384785909284,-0.07808352672319271,-0.08247989651685772,0.007588059836117688,0.024634186934910568,0.04911938823379307,-0.1516715187188274
-0.018548484764797774,0.0020878010545268264,-0.07271980458273823,-0.08101791168117878,0.013484560146675418,0.02322724842956171,0.034619049722889865,-0.1366058979567365
-0.01895103620912254,-2.7985903453072814E-4,-0.07674415454811426,-0.08571245205920149,0.0075181429595055265,0.019345390471066176,0.02440695619513095,-0.1279243821650496
-0.023182252727365252,0.004718862204371276,-0.07926142686994274,-0.09020550136464596,0.005601660479359203,0.011385903132699781,0.027154765918630717,-0.1345073987016893
-0.02335397693455059,0.00275919123094789,-0.07614591577154528,-0.08708191092900004,0.0036737374649633194,0.013009882622626437,0.02444033207191108,-0.12905339540461866
-0.023144135034144073,0.0016755880656409716,-0.07868181498659785,-0.09154254609061077,0.002228735300818472,0.014325082127353145,0.025281387498369067,-0.1352478610743183
-0.021122487220115237,0.0015791073181958114,-0.07951957476184668,-0.09365245613667224,0.004753321063089818,0.01888440474330978,0.025551523236877736,-0.1230796766306101
-0.025416307176562257,-0.004686435299366363,-0.08857178641629115,-0.09703319985105,0.009998947453500752,0.016444112045969426,0.023498877281836666,-0.12609511240684268
-0.025524854930091597,-0.005011149284622996,-0.09280391579584825,-0.10417637885342679,0.009778593236049644,0.015022655055106074,0.02495224751243081,-0.12163151734498459
-0.02847135088336496,-0.013248977957579107,-0.10043770118420695,-0.11342552410484476,0.011270928959708654,0.0173965671473088,0.0269298853328344,-0.13774968373583482
-0.030787313083803242,-0.008643342406289929,-0.10170400490279952,-0.11152037441685879,0.0030841644541777444,0.016976159386291222,0.03072727610004771,-0.1386975805921545
-0.026445576579654607,-0.017843266396149603,-0.10004916891565016,-0.1142829573667402,0.007844543887902735,0.019217991009108263,0.03036414915577497,-0.14005737675334823
-0.030696967597404094,-0.015011853565991062,-0.1016879123368151,-0.11950568973800343,0.01039095137871246,0.01945951171448808,0.0334675757837721,-0.14517414048189906
-0.03250368140683479,-0.009035052623612462,-0.10483940837117975,-0.11800392828933957,0.01275199295740954,0.015046600154367994,0.026810641302274486,-0.14206034645848742
-0.03502699218185071,-0.012085533682760875,-0.10744371533017012,-0.11554741354550921,0.008137670508721155,0.013474889184450521,0.030100338126324636,-0.15140432632036124
-0.03127561757501576,-0.013698680113803088,-0.10757908440263261,-0.11863825090062137,0.003417168141761817,0.022609933098742215,0.03525735200444711,-0.15301119877914204
-0.0326567606073024,-0.016003845329055816,-0.1048631426255781,-0.11977682124075535,0.010396397408845301,0.01891434454402618,0.03453063316481532,-0.15026403003356584
-0.032915640994311005,-0.016546793486184767,-0.10655887557806076,-0.117923761595495,0.01429316186231757,0.021709819769106676,0.040794479943383095,-0.14234541488465613
-0.0364654839711607,-0.017853542728691434,-0.10772762333579274,-0.11917205403712768,0.011919390102507775,0.027175352778060827,0.04228299441462637,-0.1419048807267975
-0.03779825495664098,-0.020248134417677317,-0.10963461194962884,-0.1210218081926991,0.01221748658769646,0.025571724816542768,0.04467225687212677,-0.16209656059213512
-0.030569613716806027,-0.012470670698910889,-0.10882118794701505,-0.12185176596770568,0.01482650733090142,0.025760387042496485,0.04540716356521616,-0.1384086604731361
-0.036384399304841865,-0.013847497343219538,-0.11179651444252436,-0.12113711999510036,0.01114173666640053,0.025281379678856845,0.0400549465162137,-0.1308083605650399
-0.03223511220081063,-0.013289594574060157,-0.10982733293054668,-0.12353653928701983,0.011460056019029989,0.023770818557066878,0.04121738575883043,-0.14406158575907904
-0.03754333710939521,-0.020310886127387906,-0.10924520990459313,-0.12528033979457479,0.013456071117961434,0.028912791026122747,0.0467937844118949,-0.14719553735273497
-0.04029679216395871,-0.01672063739550302,-0.10961501820751636,-0.12502732322842258,0.012671719856552164,0.023904633946269994,0.0435840211162664,-0.13535953974547757
-0.03917487895120465,-0.015992543646734594,-0.11269935898256843,-0.12458148229829406,0.01141606908440712,0.022973456864917644,0.047603725220348496,-0.14398139160032608
-0.04344043593460071,-0.014216129975717329,-0.11417638519542658,-0.12358410445123384,0.009313116617446916,0.025233292207278865,0.044078017913677596,-0.15212930237598923
-0.036996384489756964,-0.024673078193158265,-0.11428506171842304,-0.12721004974237635,0.00996722200507201,0.021323513872155326,0.04369407407890338,-0.153705370444503
-0.03892592612662165,-0.01911451045549797,-0.11539874177554645,-0.12579303796217756,0.011823208646347354,0.020793106487069675,0.038151739134297015,-0.14918191963451374
-0.04248144018911284,-0.02112793677656173,-0.11897583363250137,-0.12809772236086375,0.0066594177746400335,0.018754330322420906,0.038345287715409425,-0.155546550214916
-0.03901326054421177,-0.023022196653833718,-0.1188559116315466,-0.1307461667581108,0.0015436765471354104,0.01624084161337671,0.035640920684349535,-0.15939399118013686
-0.04317376973286058,-0.021263155480788005,-0.11908691358122449,-0.13150370793501473,0.009643662145375102,0.012110680949728366,0.03356033538163831,-0.16561015343594582
-0.03980010477970561,-0.023756223992354025,-0.1214064413175969,-0.13418941191575195,0.001090983221886757,0.013437612009756008,0.031239396869915406,-0.17322728601813212
-0.039574115897840795,-0.027734951120922793,-0.12099842505591014,-0.13293107908264176,0.00904781721118106,0.014593023349722997,0.0343942219685922,-0.1675987528735626
-0.04835215385417023,-0.027434849766700856,-0.12146374842800381,-0.13297256562416604,-0.0019045983481456195,0.006911898560110855,0.03082912311764541,-0.16984264854443062
-0.04523974976073293,-0.02414748980180608,-0.12242514347045216,-0.1353983587219602,0.002719271741979296,0.009307750484594505,0.025172598260826733,-0.1677364480383464
-0.047843753252144586,-0.02965370016723657,-0.12366602861534746,-0.13570487346857987,-0.0024930100095479093,0.007974633487123028,0.022867970473374313,-0.17527823171405302
-0.04702746952102819,-0.03012735182363181,-0.12374737814124967,-0.13836255194520125,-0.0024056412136447326,0.005294319499288513,0.018064904121523867,-0.18933393188529804
-0.04279023620468945,-0.033973105791791754,-0.1288419970070501,-0.13835386888635448,-0.0019111781253713285,0.004410500158483287,0.02744323607411013,-0.1868341785528011
-0.051041254141623374,-0.03310349824710529,-0.12803119699114296,-0.14252386084811,-0.0031406648542608713,0.0051059494007913,0.020329280407589148,-0.17548662180131053
-0.04888530983956411,-0.02718573631768658,-0.12935164084565062,-0.14310786713642978,-0.003184313384508941,0.006173968419099929,0.019372693820435525,-0.1771197817410619
-0.048857157759647406,-0.03398306120660995,-0.13454903804667342,-0.14790773826625786,-0.001537247780115241,0.0016330496006496352,0.02403137379052765,-0.17983495497835603
-0.0526767939872431,-0.0308469537382417,-0.1344053791028822,-0.14572882755068153,-0.006967129240495096,0.0016790526531777223,0.023839056906463374,-0.18937097581273613
-0.05400146717973014,-0.03456051972727561,-0.14102177561474266,-0.1503151315790686,-0.0041201599387515634,-0.0013382169051767562,0.01860190227661869,-0.19833512362250133
-0.05898991951308639,-0.03552281796763761,-0.1431428721922402,-0.15649095303977084,-0.009128128408745937,2.584411803889382E-4,0.020247414426257607,-0.2011818785103305
-0.05841350730523814,-0.03315373392766519,-0.1449252293343861,-0.15389263078290646,-0.007500070437089993,-0.0023697451425925935,0.018852129767214877,-0.20988715516297907
-0.0660843581141656,-0.03820489220943728,-0.14206962389480055,-0.16441187361585766,-0.007920904372686971,7.958370390621087E-4,0.012369454307987847,-0.2135860898977363
-0.06102120420397361,-0.03955344274558994,-0.14473163832948283,-0.16303895894694675,-0.002871996978197377,0.004265602907075221,0.018703521477015962,-0.2235991524451338
-0.06407453032699434,-0.04166547474284943,-0.14642538715128334,-0.16024787423842463,-0.006109329123984497,-9.753982426185561E-4,0.02388912927344746,-0.22552525193137915
-0.06753357602284342,-0.03567785107669845,-0.14929173813357705,-0.16097292659078147,-0.00901025740953951,7.928611660087518E-8,0.01377150385171809,-0.22774907764300792
-0.06754628351785623,-0.029896243181804574,-0.14410908576444612,-0.16132809178030935,-0.005349006230216246,2.151877936347162E-4,0.01738136859410784,-0.23383451935980704
-0.0653309351732186,-0.03319264235349247,-0.147247783600411,-0.1647193483123622,-0.008461371692969096,-0.003077487473167085,0.016617130592428843,-0.24934681772585116
-0.06842616786368215,-0.04599559070777727,-0.14885174623107897,-0.16207762612191698,-0.011138144738765796,-0.002565853051559044,0.01759264840436901,-0.2500981519077794
-0.07099931825613313,-0.03783733959474805,-0.15045194965911474,-0.16446643967652005,-0.011347547158077535,-0.001074536593165204,0.016289641324638216,-0.24950900551885083
-0.06859198199528231,-0.0413206763987716,-0.148993860621377,-0.1649438648730485,-0.014178141720752024,-0.010206194247757861,0.018801289318223877,-0.25799887708310154
-0.06991150365412392,-0.03141933337699107,-0.15006820000857427,-0.16638710825431952,-0.007081608809509232,-0.002637450034848511,0.012135639958250429,-0.2548256719722138
-0.06887318197993335,-0.03612105537846464,-0.15029676841111014,-0.16424626613634394,-0.00948904570179552,-0.0026750116040416025,0.016322342002958914,-0.25567481713678814
-0.07021503051856762,-0.030094744046314948,-0.1474925332369789,-0.16204613019895162,-0.010084251467485313,-0.0011476881140926988,0.013010759361893054,-0.25949906136635703
-0.07034837786695072,-0.04009482696909221,-0.14668373836480805,-0.16509487071083012,-0.011623477276128584,0.002164004929862666,0.01759206856795397,-0.242381427539889
-0.06725303885084329,-0.03792701229917008,-0.1480958233920234,-0.16295643456341716,-0.009348205106546973,-0.007792706849938756,0.012007544261916138,-0.24399949613195632
-0.06430492669402912,-0.03144534891019105,-0.14547785864343776,-0.1648092184095299,-0.01518253140695514,-0.005421732195426529,0.01357731083245174,-0.2513280353147625
-0.06603797693359557,-0.031213646518236354,-0.1482293438468047,-0.16260777114578828,-0.01580232000288377,-0.0034094644704204986,0.018775385135971497,-0.2528934159367218
-0.06688905544587267,-0.031889282845295346,-0.14675436851049753,-0.15975002344946182,-0.01173876319013736,-0.0025583876485350023,0.012936538102910934,-0.24762530872135924
-0.06567562336422744,-0.028956072717876955,-0.14962712792349103,-0.16005781548499814,-0.016152678846749317,-0.007306619840445065,0.011612440086673509,-0.24304420182861228
-0.06987820506486847,-0.02495186368572282,-0.14657780192032746,-0.1637212086280726,-0.013353243283517537,-0.0033364234299531545,0.016311254745119567,-0.24127487500653794
-0.06363824353434837,-0.030384887944164142,-0.15108213245917462,-0.163746999611892,-0.0172262404212884,-0.005277236094069571,0.01791781686452958,-0.24531657372624568
-0.066123227657263,-0.03969311757211212,-0.14769120680340278,-0.16341969881570398,-0.015877659007102796,-0.002422287480156634,0.012530991037442697,-0.2565935217015165
-0.0674938104808681,-0.039045209843645304,-0.14854649391968955,-0.16216914572411992,-0.011794956758146841,-0.003850927652462067,0.009688514088482376,-0.2578956297946989
-0.06471930772943113,-0.032449980175276484,-0.15012953555872788,-0.16452716049233468,-0.016259193571847803,-0.0029645743736705136,0.014088728678784822,-0.24465728966688022
-0.06949337447311157,-0.035365455857296446,-0.14803834427580528,-0.16051488167073136,-0.017948365272236345,-0.00441295794010865,0.01177483352574399,-0.25014130940935325
-0.07061747913005458,-0.0348086864773532,-0.15101005921094618,-0.16725118910916403,-0.014353805850409055,-0.005091711113509862,0.011314405636010163,-0.2537424594574957
-0.07018157659143962,-0.036746225050970985,-0.15299155213442442,-0.16651239911173565,-0.019909843941462443,-0.009473739426037377,0.006346144930763778,-0.2642367704390505
-0.0700759962567955,-0.03560252591674255,-0.15436715153299146,-0.16591935702839833,-0.017055720991210707,-0.0068802245198469015,0.017229507513330338,-0.2616047587228184
-0.0656170178740901,-0.033874808667419556,-0.15420506972982384,-0.16701969190537203,-0.01967580406295062,-0.007450338327233458,0.006489086930563696,-0.24805235920030966
-0.06695771323591851,-0.037203627121540545,-0.15098087524970935,-0.1678435000859924,-0.02270804219141183,-0.009161326528238523,0.00825382973095137,-0.26872505392455953
-0.06929500764375619,-0.03405231394128861,-0.15370612212299492,-0.16489904898926,-0.020244346362842613,-0.009541691875077992,0.011983929908557673,-0.25931325273188294
-0.0689996807119071,-0.044035429986380034,-0.1549872706224241,-0.16860045952454064,-0.025361766074817108,-0.008450112047424733,0.007433737302836167,-0.2654383213460907
-0.07102630611691726,-0.040443796723425504,-0.15307870660569176,-0.16365706760033338,-0.01778724127371116,-0.005644929587540813,0.0076266085128728275,-0.2769927919469967
-0.07232280990151713,-0.032162016670741,-0.15595436728184756,-0.16759928327441387,-0.018904950850403574,-0.012393744085025027,0.007652062212498594,-0.2657649480680342
-0.06821188895099162,-0.03412755036531484,-0.1547106294560206,-0.17199622606405196,-0.022939146063321748,-0.012932649035505821,0.004837567787516934,-0.26121815231872175
-0.06990887747499731,-0.03760302536824051,-0.15719059358516452,-0.17112029960111397,-0.02206276895598057,-0.003750557574498353,0.004896978866114257,-0.2604481433300186
-0.07045946099450673,-0.03891544298043549,-0.1527677105044896,-0.16730039120580797,-0.022071046213724438,-0.011605416004739796,0.006231167412937977,-0.2658251943794499
-0.07087772747120476,-0.04054239878814629,-0.14803118687237646,-0.16487167228766353,-0.028548905738660157,-0.014250758467286477,8.05688086265842E-4,-0.27485899113348017
-0.060862243069441685,-0.03337419084033382,-0.13395615511916678,-0.14548536502436035,-0.02763789751424053,-0.023518966042571234,-0.0072173711375658305,-0.2687254216598262
-0.053931398141851244,-0.02288205974484699,-0.12009462676244446,-0.12850654476602952,-0.02844073705291521,-0.030885220962822042,-0.01491761751940047,-0.2475711540489753
-0.05405504367850087,-0.015455275397205287,-0.11051703309290868,-0.120553173740265,-0.029006443083460235,-0.029130257992604172,-0.01381109000947998,-0.23914288405561465
-0.053085089163060116,-0.023613658064929453,-0.11107972386785141,-0.11924573577984827,-0.022862300140797286,-0.02561420564170631,-0.016601187570351908,-0.23070012733745757
-0.051156212118844725,-0.019097793549428848,-0.11569951972785572,-0.1249160119631854,-0.02044804096077673,-0.01926510626235436,-0.01859634220736733,-0.2336620249015224
-0.052650133731095575,-0.03057414090037155,-0.12139058253293844,-0.1310985217476976,-0.024714411261042783,-0.01754449926544844,-0.011481210681746097,-0.2351135386568101
-0.05959636282884179,-0.026137748217651677,-0.1261852016759785,-0.14255638180864602,-0.025399630461313962,-0.019396692114193644,-0.014648182026529562,-0.22977694642944785
-0.05786877615929221,-0.03700334837095751,-0.13190149282481978,-0.1425641272655347,-0.02510230937971787,-0.021092041555269062,-0.014689408040546107,-0.2289339641222772
-0.05500694890141759,-0.0435538593345835,-0.13121351894563732,-0.1407674319116837,-0.023694806545566008,-0.02668425046547127,-0.023384330111149595,-0.2129857608136693
-0.05050039409727332,-0.0467406788977815,-0.12489727070122908,-0.13338125841499976,-0.024161032797732976,-0.01835553589289252,-0.01836764526978075,-0.2002465374783013
-0.052734442423286024,-0.06054611527122165,-0.12397271061513376,-0.13070521150207473,-0.021776958623285745,-0.019282043830871565,-0.021297138847616484,-0.1574834584782437
-0.046376601226629434,-0.08054503881946737,-0.12433015497945012,-0.12462785590376142,-0.025410209435794907,-0.028759592744593738,-0.034326241643394956,-0.129840310692044
-0.03969407128616144,-0.1114663056611572,-0.10582087076431675,-0.09456723663673738,-0.012654418196131447,-0.015368888461630937,-0.02545019942712825,-0.04101374206441407
-0.035354191705888306,-0.17125994327093103,-0.10904037257000829,-0.08634311618088936,-0.00499754569102078,-0.012739227301208673,-0.030637365604751082,0.02838072515704236
-0.027536465607458913,-0.22611405125301504,-0.10538471578883385,-0.06726985616918092,-0.0029198601117174333,-0.016001462764046605,-0.04759665489241425,0.05559030600925192
-0.01801702383447317,-0.2594456837034087,-0.10044786554697348,-0.05805308618326287,0.006515745455121528,-0.01604468223668935,-0.0559292178976256,0.08546445439149586
-0.018612827567579347,-0.2795772215904411,-0.09716353721507155,-0.050389884012139244,0.00777885298424993,-0.01634382876557323,-0.05522825670233798,0.08906898644159347
-0.018853784118008646,-0.2950724390137834,-0.09876238416723115,-0.05238467818475941,0.005179957203520161,-0.012031034882644386,-0.04893827756852166,0.06421069111883616
-0.015143047497842663,-0.29881033490131265,-0.09852186312457448,-0.04075877508329581,0.006753766899342982,-0.0037136161307001563,-0.04176212404926723,0.062024145395794004
-0.008345867657373232,-0.2969812745482308,-0.08603190098566292,-0.029816033666910657,0.012923530001739554,-0.0030258360453859195,-0.03306655668460469,0.03789186738543846
-0.006507045485263682,-0.29111665127904035,-0.08042826874058243,-0.023905713787540767,0.018467318825224333,0.0016041977553044517,-0.030983687873062753,0.028411663946466402
3.8051111173650453E-4,-0.2978864022422404,-0.08073058719754317,-0.01940586475569409,0.015855457721439026,0.004405137525681012,-0.029254914585999176,-0.030960175840120396
-0.005379908879610305,-0.30562212479954454,-0.07990612049830391,-0.017592093834641217,0.02531695353028987,0.003513721710203572,-0.011937046029833536,-0.0794732010283681
-0.0019560177835386376,-0.29220095493742815,-0.0723103730864902,-0.009532478043113886,0.021980834001188224,0.0073011408245431805,-0.00230650452606501,-0.10133644595711132
0.009309038343925883,-0.2872622599395089,-0.06793690425994325,-0.005925299878601961,0.025703020258999166,0.007906350570024168,0.0019461700674179385,-0.12032955901271747
0.008666363287679965,-0.28890732624537757,-0.06703305562305656,-0.004316479802349264,0.02671465415693444,0.0176688531119955,0.01529213589418187,-0.14357172284983644
0.007141352661301967,-0.28792773752822937,-0.0654488404490761,6.820492424153033E-4,0.029054981722640236,0.027696314011725464,0.023691968056269625,-0.13638366469189805
3.308668654653728E-4,-0.28730692812646197,-0.07166054180713234,0.0013119071006597726,0.02850155806514167,0.025769844389454417,0.028318856879318864,-0.10190344904011739
-0.0015928036013772994,-0.2803287229009067,-0.0650856428807444,0.005157903955041204,0.030301242657177777,0.030553433683581217,0.030064936757080163,-6.490596562466024E-4
-0.003866062557028856,-0.2674485487354191,-0.05923274153363072,0.014757608629640874,0.0245046757779332,0.030492086288873985,0.02081373953588673,0.1156383602218106
-0.003697520918731093,-0.26047988554855195,-0.05904852556837776,0.01301232421129266,0.014330492097781672,0.02520381205480707,0.017838293125278553,0.17028800238993472
-0.01321151054210135,-0.25016700679689297,-0.06192142295255279,0.0075624046756174,0.016804241743349893,0.01933151436252352,0.011759067144838826,0.2117948699206355
-0.026957758068025847,-0.2109686733521882,-0.07085515234594933,-0.026687482495006888,0.008679204908767441,0.016297684963144148,-0.008123724729556336,0.2704825890614165
-0.04060806124823201,-0.14465469338685938,-0.09698984294291657,-0.07568566339544675,0.005306846511457194,0.006146817421138212,-0.02763257789162147,0.20484973725925257
-0.05074255831510898,-0.08717606672505485,-0.10712271483887935,-0.09755875360817769,0.009319577292399451,0.014326051376948506,-0.014754185667305547,0.14260771065887004
-0.053175968578643484,-0.06367315402392722,-0.11090373034915513,-0.11189754253103183,0.010528553894751179,0.020080925611779626,-0.003579661866358963,0.09179597813808045
-0.06531600028902404,-0.04679817608268321,-0.11705781706042531,-0.11873123165825025,0.013019630681836768,0.023573298912409828,0.0015008892221310718,0.04698350767752731
-0.06663651764913006,-0.020467956718616988,-0.11756485735249333,-0.12475241121488462,0.01738456601086814,0.02055699471039556,0.007120209357332992,0.03221353148798981
-0.0629827168171441,-0.00946566978351267,-0.1103028023517101,-0.1198332093941111,0.022084146596501715,0.025678799329823705,0.005776344755609639,0.04684150417027478
-0.06723175266034595,0.004518881872379485,-0.11137954164076963,-0.11977012352552267,0.022854541834246334,0.02850452485261846,0.007857220294712601,0.06638015505644067
-0.0723973644022039,-0.008780155840915578,-0.128456536433269,-0.13501546690172297,0.014123630369524656,0.015815881379363194,0.005844898943312548,0.052472549011696644
-0.0830121062549773,-0.029452905329217544,-0.14166645675602027,-0.150020843881957,0.011520345351510515,0.01972164898615605,0.007188963528137984,0.012331732048767637
-0.0873262070353416,-0.03038624845097275,-0.14360885554273925,-0.15450865578803152,0.018489803295485073,0.024175495842631373,0.00734533908596077,-0.019883038454554785
-0.08695467877586863,-0.03742267631934063,-0.1445708449068528,-0.15269608399395826,0.017207735555614743,0.024628549455036074,0.020346895550149346,-0.030397766023346262
-0.08705739746525382,-0.030357168887599723,-0.1420540886063728,-0.15173711063210818,0.021479067861454513,0.035525408700944214,0.02068219439897659,-0.044064150964136704
-0.08466914503291446,-0.035753183378178253,-0.1453931771086235,-0.15380812512194375,0.020967524554964638,0.03140853394927242,0.015121247581237817,-0.04758997147779748
-0.08723532359906427,-0.044765563115132335,-0.14832138676497766,-0.153404731770565,0.026072882698877486,0.03406316226180306,0.03420358454382221,-0.046438456799124915
-0.08640388339990168,-0.03682439662426287,-0.1473567119193848,-0.14985129467979705,0.027257613547702255,0.0404064660519569,0.02665923814187917,-0.02514420711566433
-0.08841308397919755,-0.04008588865719749,-0.14631223061711196,-0.15332168442561375,0.029442719323031042,0.04165737651213346,0.028995284337178875,-0.015314188439381766
-0.08736620779103829,-0.04839097383226544,-0.1399853568604802,-0.14534373158510638,0.030500824117737503,0.040914057653862516,0.02873363045996919,6.018996879434545E-4
-0.07119360011749219,-0.030752651236219244,-0.1253088407998281,-0.11996677166132139,0.028474390329155656,0.03896504668687316,0.022331862394187333,-0.0012904347359062574
-0.06864356294779381,-0.031117778401752942,-0.11136871893405474,-0.1109606904164724,0.03413783583975284,0.0325263947064244,0.01162947687214983,-0.012862375494457593
-0.06386235365290542,-0.025125292895324725,-0.1088057897076297,-0.1086187462795292,0.0350981563554316,0.03501392711929482,0.014253247757233804,-0.02475099275483341
-0.06837351780625978,-0.029863565874256013,-0.11174511877346932,-0.11008299674512678,0.04623945142031448,0.039468098666871274,0.01897174133821654,-0.015821075554319452
-0.06630139033769837,-0.03415138120059524,-0.11312548748201243,-0.1115818829784815,0.05118222911647102,0.04634828466017493,0.02014704231556169,-0.019398366684855967
-0.07094369831806051,-0.032263719219643286,-0.11567381058741256,-0.11332195779845787,0.04743935114689918,0.0469939915086264,0.021229238008853846,-0.020346225580195717
-0.0740749366943169,-0.03768004231611891,-0.11355539783996917,-0.10795051278380424,0.04807642492036128,0.052656317677544404,0.025758614848044398,-0.014348015785714948
-0.07627865345405752,-0.037256548479245796,-0.11796450860076964,-0.11254439882821395,0.06304851954907303,0.059877135524366354,0.04436051922930327,-0.011444149552818644
-0.07266787864842685,-0.03648572526452704,-0.12360217637591606,-0.11820163969796166,0.06115996549931145,0.06370334879187793,0.04415510177930435,0.0018327561233521183
-0.07279126893998664,-0.046118678697166134,-0.12448552774238077,-0.12269035264882225,0.0636809541405492,0.07108248884243121,0.05551937235127905,-0.0046049415594806254
-0.07282423397261042,-0.038963831476954494,-0.1257842987843381,-0.12745071726192903,0.06919877300451983,0.07512530153525919,0.054370361552558595,-6.754054968907459E-4
-0.07413305535283188,-0.043568276209681844,-0.12649848892010915,-0.1252361741077221,0.0675510058984809,0.0818030307441657,0.0666580630335674,-0.0017898793356440638
-0.06969110903565251,-0.03372293983452269,-0.1154344889789499,-0.11201748823587207,0.06839764986776474,0.07971969287157171,0.06841611739500057,0.01796586877984028
-0.06043858394707738,-0.017832446419378464,-0.09242332583715701,-0.08819332901195044,0.07225204350770198,0.06503218096680133,0.049112463879080276,-0.010083786813823116
-0.0634282844241154,-0.023678072438615045,-0.08889600430423515,-0.08290867834650821,0.07685824994932787,0.07181651921056116,0.0444126562862234,-0.016873697789180478
-0.05643997714526402,-0.01888596494085797,-0.08121845426770129,-0.06971685779906082,0.09546526114438854,0.07651498839357869,0.05250219192774629,-0.025917909105180274
-0.05133144282402393,-0.012622174595973413,-0.07696931313709539,-0.06762711736399078,0.0984608828062352,0.07692466318533286,0.058308329295063126,0.014195901684383115
-0.04935012443565113,-0.010513795784582364,-0.0786518853626233,-0.07470278823160179,0.09037161308795998,0.08928944628495467,0.06691667681061453,0.029381374817791055
-0.04142211088940915,-0.008855503789347205,-0.07542445470008934,-0.06820718938447137,0.09336536945755408,0.09155608501364199,0.07468755025280244,0.04519372074064887
-0.03997238580324408,-0.010077390291835126,-0.07190045279171137,-0.06245728829549313,0.10407755595043794,0.09226474174349991,0.07721526286837364,0.049378910842004894
-0.045696865377489015,-0.010901886030549764,-0.07692842985120939,-0.06915121385050654,0.1048415105000459,0.10271412602660719,0.08491680121404957,0.059389177555069256
-0.043801734280319575,-0.008554354155466723,-0.07431383859162737,-0.06793922960113857,0.11009053790238442,0.1060849425253147,0.08766851287984873,0.06258954930209773
-0.044969298053675215,-0.009634660831695244,-0.07656196285768319,-0.07129602488904895,0.11413186188286757,0.11386118366036325,0.09162421258915973,0.0632306150594731
-0.04004479181386285,-0.009968267810180984,-0.07816429215352176,-0.06714700210009099,0.11788423721017581,0.1169550807902869,0.10016035647081623,0.06739794100894188
-0.04566356964022752,-0.009493321692834174,-0.07851339390213143,-0.06963941719869125,0.12254755916376227,0.12598336168167532,0.11255727809136074,0.09177566155021374
-0.04165441960354133,-0.007252168294306195,-0.07786734452885902,-0.07582991418175791,0.12379546686646015,0.13042980324056416,0.11446440138297406,0.08040428929457354
-0.044260496330404415,-0.004687226777045112,-0.08027286828216443,-0.07870805186297883,0.1251293001083095,0.1397276717124685,0.12806176653653326,0.08479078265210734
-0.04639160072382322,-0.013314292277813248,-0.08927401402760635,-0.08015162352127607,0.13358599220730924,0.13989572084138716,0.12881430524360518,0.09161181258839061
-0.046634021047007056,-0.010776540141897288,-0.08502496969031077,-0.08658037850053786,0.13350477411600803,0.1488758579052888,0.13818628523202298,0.09717764954573793
-0.0405225185782226,-0.00792420597106981,-0.08957217830624292,-0.08943250224136307,0.13560145914934743,0.14710728508652424,0.14834556605887658,0.08865519393365283
-0.04660207717366061,-0.011016685354154322,-0.09115536826549579,-0.09552464352041666,0.13328682576001813,0.14557496288590338,0.1436004499502171,0.08612721248609063
-0.049113246560193266,-0.01434695047845654,-0.09946282342098235,-0.09830502764761313,0.13233492372619204,0.15086570785542486,0.14801362860430414,0.08191715752773676
-0.0509686892239743,-0.013649227973322001,-0.10592261608826656,-0.1052837497868409,0.13617524843876405,0.1558313364029098,0.1563693509597449,0.07863210235207171
-0.059216780588630856,-0.02140839213089409,-0.11932634808688174,-0.122504916203189,0.1363200302676195,0.15878661975646152,0.1645173286160446,0.08432566695729488
-0.055410300005553074,-0.019123198479590098,-0.11913594706588464,-0.11979495994939995,0.13686864561988726,0.15858725318584885,0.16451215473977787,0.08723494057827483
-0.05772154166885666,-0.013307542428290573,-0.12048307988595222,-0.1263382356562325,0.14006010908700925,0.16392784711874225,0.17393257871999965,0.10234081715603768
-0.05585500974881484,-0.013554341624397535,-0.11504456688253602,-0.11887786648774215,0.14124675541977652,0.1635363426106056,0.1832610034496144,0.11919108201950093
-0.057135745874660936,-0.01073436592715433,-0.11448438496133354,-0.11892971640399594,0.13705281658190818,0.16104545358112793,0.17784987347838754,0.11954007935437942
-0.050437140865372945,-0.002965714798316616,-0.1092784997633101,-0.11937748317150254,0.1342157685333179,0.15952783539436174,0.17794044328544323,0.10679969945477581
-0.054582897864727496,-0.009836293763642966,-0.10856811708702284,-0.11209643905016205,0.14265917049040963,0.1574228102666227,0.1815903276175596,0.10710246299543384
-0.05061674133151746,-0.00261371517588186,-0.10967378993746384,-0.10898943859472095,0.13557195091130492,0.16322426199406034,0.1793775111154082,0.10935625685647866
-0.05591406057693303,-0.005841724543795721,-0.11189610980461687,-0.11856927293013629,0.13907213204944527,0.15960907962474985,0.17882574025443984,0.12456516886924793
-0.05505771617838987,-0.007878680535708895,-0.11022307742139344,-0.11424141160191795,0.13293219371205284,0.15786967087288314,0.17620898831638948,0.1068746639300486
-0.058120957429159605,-0.017678998846535784,-0.1213089776317873,-0.12485945098474373,0.13403652514370631,0.1589773477993177,0.1775520653810908,0.11176764848948952
-0.05658069797877749,-0.02100530809268125,-0.12432762175156688,-0.12997727659881847,0.133076068486433,0.1577343678270172,0.17110278713293461,0.12442967128624485
-0.05835154950633073,-0.017851114283206484,-0.11270554149785228,-0.12198152490101968,0.13136834539316308,0.15526811575876834,0.16722027170051032,0.15788324300937534
-0.05544675693389469,-0.02906771986003484,-0.11657023894480213,-0.1215846129230765,0.1234580909578465,0.15115938436900242,0.1579641070230613,0.15599921177050682
-0.05306458056710209,-0.027738448114266036,-0.11578228410039883,-0.11992956591005485,0.12238548841356518,0.14482454357386274,0.1565693246307852,0.15907373290924462
-0.05312522230744972,-0.02305395401194711,-0.11664401326292227,-0.11996241372828725,0.11656488800736876,0.13892156997939178,0.1499633265268346,0.14700001588144024
-0.057497007206098925,-0.026691008563042535,-0.11542630836511965,-0.1201264378461711,0.12183152482762079,0.1432747581773477,0.1568993811399466,0.15369580501889712
-0.058328238532645404,-0.02999053917785695,-0.1172623500077224,-0.12398488905289773,0.11329864758355157,0.13933574388792883,0.15250711314181906,0.14820990982624702
-0.0683551458418844,-0.02545116136996298,-0.12491074954710496,-0.13149056890654842,0.11599381923043055,0.13770462573630665,0.14161320692367554,0.119322359009011
-0.07074516624885933,-0.031155347448460543,-0.13380607184105764,-0.13807261868374474,0.1111868071779447,0.13381721009232111,0.13073222574693227,0.10500405392029494
-0.07099710670226547,-0.042548302243720616,-0.1357352037551225,-0.14127443742150753,0.1085266824871156,0.12499380982860225,0.12274203912496538,0.08575566836709318
-0.07236245062772738,-0.036978905354116715,-0.13594019375769825,-0.14409178243353424,0.10891703437703677,0.12136888562559112,0.1232859078098689,0.081385216814387
-0.07122804182240959,-0.03865669706079502,-0.13423127289664646,-0.1425985891793619,0.1025674391691834,0.11553545929957673,0.11921619378533196,0.07256234350030363
-0.07698393738046341,-0.03876813793353031,-0.13943719431816215,-0.14829036272129145,0.10865704313774328,0.1146859680299734,0.11476062618340198,0.07085026696778585
-0.07406765861638386,-0.034581946806038245,-0.14184580641539438,-0.14750202588159758,0.10629046517688266,0.11424146526107706,0.11395215645807297,0.07913205393177457
-0.07281949013707942,-0.03750876823548042,-0.14284110421041274,-0.14915775936352052,0.10666848383246548,0.11405699049723547,0.11352076497622643,0.07465314260688376
-0.0757064152544954,-0.03034926966237164,-0.1420503959045432,-0.15182789487760082,0.10038944826018743,0.11029909042809578,0.10279615516826984,0.05457555115712914
-0.08041136731627442,-0.04078753525776344,-0.14143185480080744,-0.15306515891391634,0.09383187663670353,0.10224386957810915,0.10113976469297277,0.04646103578904515
-0.07894474993748535,-0.0487044608509841,-0.14903956822480213,-0.15832804386134183,0.09785232351435967,0.1018994072882318,0.10054686164970075,0.05796737462654942
-0.0851571600910774,-0.04553883153423559,-0.1515773987586516,-0.16044864795165162,0.09574591576099535,0.10514396397953339,0.10094283066433887,0.05051240791199151
-0.0869469703834012,-0.05312569478316567,-0.157886490044387,-0.16845498238993484,0.09561868122181012,0.101167391728838,0.09617499348592413,0.05342685600467924
-0.08831174716975891,-0.03438642106908296,-0.16092187802602495,-0.16714387492604948,0.09579345587927092,0.10639549049566562,0.09837132652150316,0.05064628915841413
-0.08659099481003,-0.04429946212867541,-0.16166237181718787,-0.17312304286640012,0.09456095689362426,0.10149595940600573,0.09772402651957027,0.04803230153559565
-0.09184110331285134,-0.04602193247846729,-0.16108964874244974,-0.17402496305406687,0.10016729813049483,0.10193245936082948,0.10465806946476272,0.034558850423281065
-0.08751545837202677,-0.039482965619838335,-0.16488067919710858,-0.1781309047994436,0.09356032314731934,0.10200821660085124,0.10092131192530013,0.02918995345938508
-0.09017558095007226,-0.03692323784982837,-0.16105567658911046,-0.17518746525896028,0.09323381521625959,0.1003477555553064,0.10332090183553663,0.022422365473943162
-0.08985932364691711,-0.03889856822856693,-0.16429150261049988,-0.1825099623725882,0.08471177775449862,0.10176992206322419,0.10364699399856886,0.026142819904394536
-0.09028335722092147,-0.03360591948827362,-0.1653076589898799,-0.18097108835619435,0.09209648226524562,0.10059663508852218,0.10071832839481024,0.020619572316487998
-0.08675060622255146,-0.030846299950503017,-0.16511899886254133,-0.17975789944873524,0.08803157266932322,0.10508277645914393,0.10080929523456826,0.0374433857169656
-0.0867586206856953,-0.024594709528168383,-0.16012953589076404,-0.175238736049322,0.08895420736350886,0.09756377516788357,0.09853039120620714,0.027232832903637646
-0.0837183987199374,-0.02113199118013341,-0.15461402454081513,-0.17542405072851625,0.08432783696899816,0.10196985152344454,0.10123558174753526,0.03221220704823747
-0.08608035086124877,-0.01600516860512092,-0.15488446837939193,-0.1705674201356378,0.08700038440150686,0.09507205493840992,0.09439948258183511,0.019334411995116377
-0.083900345712179,-0.020636865032192076,-0.15434533530872557,-0.16798263340636796,0.0864454118373046,0.09954045994587878,0.09687443899881201,0.02064713886887459
-0.085227770149498,-0.020216324334563617,-0.15332771773650467,-0.17295207385847827,0.08158516966242861,0.09539681435680844,0.09218574744873026,0.019536121447974387
-0.08263078025314263,-0.01928678211386519,-0.1563751450555805,-0.1740141259913638,0.08185547668465931,0.0954353729025061,0.0926017706369853,0.02916553694640807
-0.08415041360332198,-0.02103148107088443,-0.15312603334898026,-0.1703282014524085,0.08005837679112389,0.09622312798597553,0.09570077256557641,0.030478441593889686
-0.08132218870304257,-0.01978350413131457,-0.15609337004137,-0.17045892273167704,0.08093995713496992,0.0968697147755456,0.08788312511255122,0.042028299980893205
-0.08532715802833347,-0.020884717954980783,-0.15822049570311703,-0.17395419822807007,0.07493360298072096,0.08889971116111725,0.08729659598006943,0.05987908668113203
-0.08527579126915613,-0.011586315292817131,-0.15498614984891163,-0.170432019933331,0.08442810856789772,0.08896326560026953,0.0785056906635444,0.07095009134611338
-0.08289209353197304,-0.013000747434805827,-0.15421934286883074,-0.1684010303383778,0.08268455236809064,0.08502830147703903,0.07628014899765878,0.07995005485346031
-0.08340229821897244,-0.006739028193472851,-0.15336040354278038,-0.16719296243548792,0.07601662668233591,0.0866400910632635,0.07049316328109609,0.07132225926535958
-0.08370088000696728,-0.017971446234896448,-0.15408389230511013,-0.16714601734120244,0.0722808282893361,0.08986286307504762,0.0779121170397682,0.06488296688419229
-0.08615088271980363,-0.022560212467082636,-0.16168476774675203,-0.17640840606410613,0.07721179422921388,0.07967096748414214,0.07470276047044469,0.06576317282460625
-0.08386401593236813,-0.010836479432969951,-0.1551366928450919,-0.1750400828535609,0.07772572549179203,0.08387864678855206,0.07788289070991257,0.07160497736840458
-0.08058594497526811,-0.01323749383321359,-0.15123676096900657,-0.16385436930675043,0.0745262286710969,0.08688939440600688,0.08291891392444964,0.08193549031669613
-0.08315956278725507,-0.015263620397283302,-0.1448993344524539,-0.15532727334009835,0.07567166344988635,0.08311585649701378,0.07327615286259052,0.08531411619958003
-0.08098025038473622,-0.01410664027920633,-0.15188820866449146,-0.16499176988501385,0.07567287407661683,0.08120231520962938,0.0718302724535432,0.08375474455994966
-0.08647640304164268,-0.022195677988862118,-0.15188194558107626,-0.16434471853252092,0.07368042618494078,0.08480236515270723,0.07512298829999951,0.07049113210170023
-0.08524132019915709,-0.028771473562466014,-0.1545082343357668,-0.16591107277320613,0.07546383725973299,0.08297799969265321,0.07087655212389911,0.06376334536655888
-0.0872889576325557,-0.020765614931735107,-0.1522312222277887,-0.1641174061547346,0.07480121095541775,0.08374951993915518,0.07403227766101204,0.07824944277376529
-0.08163713635737681,-0.017851027142688245,-0.15299801910746622,-0.16546268573396417,0.07389218916775923,0.0808235961218231,0.07009913035692115,0.08450925137041644
-0.08564711860251766,-0.018841349178843957,-0.15467591316832333,-0.1662848990915223,0.07145281053610765,0.07933124791675643,0.07477262793857821,0.07668933064556446
-0.08736893128350116,-0.028758231210044397,-0.16023517967832257,-0.17232826285178043,0.06677748132785988,0.08346516250386807,0.07374599328448575,0.06602863993159619
-0.09100573613888105,-0.038663326408251264,-0.1669201860524798,-0.17875440955032715,0.06465146364178163,0.08261571572476464,0.06712073628076191,0.045239225274281425
-0.09079733693097836,-0.03647055854465518,-0.16229294011109643,-0.1781963098526832,0.06715051278811811,0.0796387646064733,0.0672983094358513,0.04525536191434978
-0.09168154380437057,-0.04379215632842085,-0.16581821527070317,-0.1812189419267177,0.07264890452151569,0.07507105172328966,0.061786633191659376,0.04565742470594025
-0.09617277565516479,-0.048573460829022405,-0.16962175548482655,-0.18833519646086513,0.06839140966538128,0.07505240073003133,0.0604177208480909,0.014171763720698899
-0.09327163504932055,-0.04418552712498722,-0.16776877959496783,-0.18229003467991764,0.06388874936659096,0.07757661008350693,0.06313604012161246,0.004705986618946509
-0.09619194659058392,-0.04402440932366007,-0.16592868324161397,-0.1792597705027742,0.0734809086866755,0.08464400852257671,0.06348102594274428,-0.0012435753795194116
-0.09265621102713005,-0.037037275563933006,-0.1631960477052252,-0.1819395011638682,0.07133131526921063,0.07515820607250266,0.0557922177506306,-0.022328880545802197
-0.09067420723829901,-0.034147833582609886,-0.16458677799885665,-0.17495514004564355,0.07426180721856276,0.08116535647980827,0.05699663071251135,-0.012216007355279035
-0.09121804205772124,-0.029074304043309497,-0.16540636564170233,-0.17563069680634993,0.07351064621857427,0.08059941881307249,0.06408212650960327,-0.016298016471603626
-0.08861563412340909,-0.024547694715441125,-0.16461987609438944,-0.17532299156887157,0.07353742867601662,0.07564465845723747,0.06377155957855728,-0.019601649374706848
-0.08293900153571401,-0.016332189792693675,-0.15994894204701626,-0.17270985862545227,0.06812105914549806,0.07736672918719868,0.06462041062112268,-0.007674857423048851
-0.08274570591997958,-0.012706451274263997,-0.15672634202201424,-0.1712517780476178,0.07090605069881097,0.0695211659640928,0.06295698127412143,0.008969136043632926
-0.08449313320603685,-0.01950342440087738,-0.1569444123910834,-0.16879867247806937,0.06924230273374699,0.07289648082056474,0.06691932809485829,0.0017338502919727538
-0.0862772315486705,-0.027705762042002896,-0.15935190687271483,-0.17051967715916763,0.07237085794571213,0.07246201277328629,0.0600899623228269,-0.013358246383539654
-0.08293691908154843,-0.03034172011544906,-0.16187995321971593,-0.1716240765582338,0.06898112970778929,0.06966623773934982,0.05975760480543169,-0.007565517746926181
-0.0823024877426491,-0.023890533035836783,-0.16028874338477958,-0.16902313697556443,0.07261938154151588,0.06856716242233327,0.05957947741297879,-0.002320496701835796
-0.07887402519676497,-0.017933640933091553,-0.1553762774407766,-0.16717136905196153,0.0689841109702043,0.0755065669374627,0.06063249363598956,0.012982705540231575
-0.08265811735635273,-0.01521508875261552,-0.15504806947547753,-0.16326614833898864,0.06815732487055297,0.07662987470282229,0.05971515199325966,0.006725681641018859
-0.08199827931059624,-0.021424399451959328,-0.1552491927995434,-0.17046008660339054,0.07245547969600183,0.07647825083181946,0.06130760008519954,0.012303683725263378
-0.0800465053903501,-0.018984874583315787,-0.15969422016262483,-0.17032719064810098,0.07163521149641208,0.0704517696638473,0.06565329925673369,0.010683996212048128
-0.08111259671967577,-0.0162412442565658,-0.15671193239168935,-0.16653958387872025,0.07024086268197546,0.07322180901255289,0.07036515874649847,0.013801869482007545
-0.08258538236264183,-0.01640243916076946,-0.1579966784283029,-0.16591990550572042,0.07005287324873442,0.07224120428344422,0.05999103653302333,0.026498333895118187
-0.07743314520369915,-0.017050410038744544,-0.16012842729040308,-0.16852206281453821,0.06690279577630237,0.06972305196596534,0.062429037974189805,0.021318423585687456
-0.08603209304043577,-0.014403285707066808,-0.1631145233563632,-0.17173837673287856,0.06065144593423498,0.07072897138001624,0.06131432639935298,0.016387851464489612
-0.08316580289684063,-0.016387835495842277,-0.16176979806355224,-0.17083440479862844,0.0646366457481589,0.0696819332298247,0.06034419695512018,0.015480455749454888
-0.08274044443323975,-0.01861016033597375,-0.16142531637238816,-0.169099966479662,0.059599905347813426,0.06750293149429258,0.06154743866171416,0.017102168131877003
-0.08116677814610448,-0.021710946047089334,-0.16423169675020363,-0.17855725612818235,0.06589492277295467,0.0616023269690368,0.060517418593777024,0.005222029360103172
-0.08282217251881006,-0.020388281288943884,-0.16615112831593834,-0.1803200034252447,0.06241630185729159,0.06462251490788036,0.055672994378972954,-0.0067324506547751855
-0.08297745630525254,-0.022366211137928544,-0.16793047820368165,-0.18090369113845478,0.060060418874850634,0.060288288606460884,0.052314070048731814,-0.0025278558608866544
-0.08679303455082768,-0.022718828554491734,-0.16602727245546495,-0.18035845248099786,0.056198638860443885,0.05645191439494248,0.04537665376880512,-0.003845074973921811
-0.08681015033223842,-0.0240093492418326,-0.1657592654457805,-0.1831957863810999,0.05172863875093091,0.0657678644311864,0.04934673501702738,-0.006145576161230547
-0.08559332194720028,-0.024762952706593545,-0.16992568398812696,-0.18337720253696327,0.056267985917276574,0.05956982561001193,0.05097406543151743,-0.011477459612527087
-0.08959614991028325,-0.029562906693921153,-0.1701673813205456,-0.18127859686401943,0.055803835047393294,0.06112107528326854,0.04981219898865151,-0.016153870462788576
-0.08630656506048938,-0.02931031399108364,-0.17332186671052435,-0.19039979237070692,0.05383654247627725,0.05399500711851537,0.04564301623789955,-0.004541694488545326
-0.09549530649508223,-0.03142947973308033,-0.17182736570106014,-0.18667268815977942,0.04877388976937237,0.05694439469688254,0.04120305363900095,-0.010874351550168217
-0.09173460072540357,-0.03282657162793242,-0.17449111266025175,-0.19067955298782827,0.053041960943016234,0.05338018672776404,0.04625649691126749,-0.013607626263640626
-0.09426271498403532,-0.03974646043335933,-0.1775679168427938,-0.18546006154925013,0.05108274411509269,0.06033695960956148,0.041907716604726614,-0.01747094412108952
-0.09861439964969466,-0.03733924073446998,-0.1775018483309351,-0.18516740120463857,0.04998641927815264,0.05366159586165965,0.040756139931871445,-0.019838109350304157
-0.09784592310942147,-0.03655309373715934,-0.17612060577461153,-0.18915407560389022,0.05433577961682823,0.05520785116867112,0.04427005602766895,-0.020451439628743854
-0.09602759837821721,-0.032932110411036754,-0.18019881886536956,-0.18864625607591945,0.04946322494063642,0.05171385887638508,0.036106560965708696,-0.0035682840447141934
-0.09690951105171483,-0.03176081042485021,-0.1777433653235152,-0.1909285451937885,0.05080766250861296,0.05579312148092903,0.040268988177391545,-0.001599118942194707
-0.09693149047650272,-0.029578000134831448,-0.18135405325409193,-0.19139774934738243,0.04773957216881706,0.05433529969541061,0.040237503270156905,-0.004875927074275514
-0.09895366902397185,-0.03596028254643252,-0.18270867713808248,-0.19252954430851574,0.05386534315272017,0.05895993351187615,0.0418178638346228,-0.013463237001770422
-0.10018969351699962,-0.04155862862372319,-0.1877872650057961,-0.19863602641064879,0.05200514570248928,0.057981591754811,0.04539161092274296,-0.01904097228389785
-0.10143890575492745,-0.04122989647287841,-0.1868637673248948,-0.194688945955463,0.05347844715937806,0.055081600235903014,0.04179681010790193,-0.0054521970952362405
-0.10090111108743645,-0.03243341292099439,-0.18270612028492175,-0.19343907604113297,0.04992293875615101,0.05908784259874984,0.04002861785670093,-0.008574665261756442
-0.09677404022444974,-0.030363610212849043,-0.1838301040335101,-0.1976835815668608,0.05546889443739356,0.05776942383555396,0.04742367577927194,0.0014387909538745051
-0.09405864599039522,-0.035914272426443766,-0.1819743347443499,-0.1943145506138989,0.046649781849401425,0.05651852086034527,0.04764994749008096,9.316018608113253E-4
-0.0992293712950984,-0.03578949736276641,-0.1821931969992605,-0.19323189476548008,0.0590315542219506,0.05957187788304597,0.04747937764463142,-0.013249365819035705
-0.10096487163512252,-0.036741645615135425,-0.1875817961691683,-0.19795023610211926,0.05555698584278335,0.06011232766422684,0.05100411514757462,-0.0048021216571142
-0.10089766987019973,-0.041194689054161356,-0.1897696299693773,-0.2010450012926584,0.05815443492240689,0.060793481495346656,0.0453578953217809,-0.011839186356279709
-0.0987284668434743,-0.040098946493155874,-0.18711217331384708,-0.1950386347689321,0.06255362379324213,0.05814705271975544,0.05944610516436085,-0.0023670617710657652
-0.10484556459630527,-0.03875437217546088,-0.18461397119038098,-0.20023295090567292,0.05461082213908225,0.061030194238449346,0.048207265519625925,-0.004202196767878825
-0.10075532007667579,-0.03548579372998421,-0.18589661663925502,-0.1985563989898779,0.0604161086239337,0.06389293547818743,0.05070583285729365,-0.011219757544918385
-0.10372741706941707,-0.03864967024904633,-0.18788215866513797,-0.1974562881910146,0.06147926969222145,0.06689054280708778,0.053069825372800555,-9.7381226163325E-4
-0.10398018050626309,-0.03326643211271372,-0.18692543369681855,-0.2004267119630267,0.05913019282631935,0.06020043123367551,0.04745174360026356,0.0019198901445352367
-0.1025729636720241,-0.025381570092024512,-0.1860088031924673,-0.1959822587479204,0.055895661720461925,0.06106021982075873,0.0513608491160045,0.012422734542085957
-0.09915019535592141,-0.03260399931935604,-0.18409345603474023,-0.1955664645152467,0.0562509589250971,0.06299611604514598,0.048389323870936134,0.0034553527261152596
-0.09710562882959788,-0.033194348341176114,-0.18228741689904787,-0.1897087257416539,0.053814599142298976,0.058112104830703365,0.050542863155856696,-0.008954129540466964
-0.09584946228339958,-0.02221804659426627,-0.17375930991332394,-0.18413224205437045,0.059666318128712745,0.061605438475958646,0.04944781009357177,0.0036082711180961606
-0.09246177253355632,-0.02045540577639549,-0.17128731464439878,-0.18425021986225903,0.06141142993618553,0.06118712823662974,0.047619800378434676,0.010366342628071455
-0.0839569843870193,-0.012549925816999234,-0.16367554036122237,-0.17556567075148466,0.059151574016458756,0.05896646434042492,0.043736665189626565,0.03219347626338658
-0.07889226064007315,-0.012340013341071567,-0.15720067895431333,-0.16986063399715004,0.05731327316842996,0.06270763869419022,0.04472419854754778,0.039897593848462504
-0.0804909959526857,-0.013088295901503495,-0.15962817242281938,-0.1665499213402508,0.06200435398038639,0.05994397891638833,0.0415436862352266,0.04549253880288666
-0.080986145275792,-0.007892082524900064,-0.15873122804391177,-0.16627972784110825,0.059761474585443265,0.05736926506226772,0.04315680493313309,0.04564931140915456
-0.07916081960613755,-0.018284048296315285,-0.1620595312830424,-0.16597698999651866,0.06176669676713138,0.0555070886693364,0.04286668453014146,0.04064230555975301
-0.077231468398191,-0.011318394353335806,-0.15847502035435715,-0.16832381471789545,0.06158938158347432,0.06221194534270567,0.03948029020807243,0.03208271314357101
-0.07756551486348806,-0.01452902243893569,-0.15827178160986488,-0.16465465280129715,0.06610015829541052,0.05851597297848267,0.047314889469730045,0.03381560227664415
-0.08096174551120564,-0.014035982940348858,-0.15740704162805055,-0.16814142207029867,0.0687130512580075,0.05951193176035554,0.04070150536520888,0.044344378893077054
-0.0814852528327072,-0.016798509964259974,-0.16351549789803263,-0.1740555350812431,0.06700346818063872,0.05750662606057792,0.04348790183448504,0.04328587027645196
-0.08237928363904291,-0.018560218456357573,-0.15904200044723654,-0.16976238634520194,0.06192611432271937,0.05776763959228001,0.04121637901338508,0.038299788832768945
-0.08131134868479162,-0.020466452375140755,-0.15985311365825325,-0.16974309027943643,0.06720309443105274,0.06345610678378785,0.04218369793155601,0.025794484063902903
-0.0852284438644424,-0.02124214784883321,-0.16163568712332335,-0.16600598395540275,0.06713464215371077,0.060899526590029646,0.04330128197455393,0.03872336902955205
-0.08311445120159572,-0.015659414347262667,-0.16243883897222355,-0.17401108812933877,0.06828408240003579,0.06278855082686217,0.03980255049312889,0.03516194297283756
-0.08634684400622542,-0.017380557738445764,-0.16308564057148403,-0.17276374852284654,0.0650215257127297,0.06270298416821972,0.04015625976300146,0.0352568053483465
-0.08430852389535694,-0.020903189505464683,-0.16480090251434024,-0.17894765456720843,0.06512242920903924,0.06425066599953774,0.03676667417952457,0.026688796998743953
-0.08745864714409529,-0.021335808759348235,-0.16712465522590358,-0.1733300525987743,0.06258211218076243,0.054762226480618376,0.03893013908442409,0.018926607286704172
-0.0883793152556915,-0.018503839543778985,-0.16262848620586795,-0.17400696218140047,0.06786544566640781,0.054662371147282375,0.035850621228089206,0.027111844767257847
-0.0807375332050864,-0.020386035311903448,-0.16312958113184067,-0.17535536095220783,0.06327588882820857,0.0553155119110455,0.03277728166278545,0.03857285098211199
-0.08455365512764272,-0.020903998529496003,-0.1675172610583934,-0.17806544077388223,0.06548620265449592,0.05549371351251692,0.040351170331262565,0.035450107645280705
-0.08747942770093238,-0.02149209097725123,-0.1692867029721331,-0.17520844824137446,0.05879693964274982,0.051813425663694526,0.034527082990527244,0.020976761070082166
-0.09094915328317035,-0.033949844015174646,-0.17422806424713552,-0.18667112667434976,0.058613397922064554,0.04836290602401086,0.029644478544118672,0.016030619093806823
-0.09380417288987292,-0.025655904797612004,-0.1745830999838278,-0.1881533314176963,0.051611207011697594,0.048407993346157314,0.030730128886456314,0.01155963616873244
-0.0904805292416764,-0.021516243514797855,-0.1718648918324893,-0.1871240733444861,0.05976050586114559,0.043377103433010884,0.023254360764907566,-0.0013664546089393328
-0.08980641173980618,-0.028269340851975237,-0.1770116638883196,-0.19112391615140276,0.05505977081285306,0.04211285476187101,0.027719034806508735,-0.00555910874836435
-0.0936174881203589,-0.03588422963363081,-0.17564785118449042,-0.19358856918267844,0.05182019866395548,0.03981044489172843,0.019206023798658732,-0.0079820851797025
-0.09222585162918803,-0.035959858203293275,-0.17580204481069903,-0.18709609032210964,0.049250336792965345,0.044377018510238314,0.028699620061565904,-0.014096442864179503
-0.09345639012905492,-0.02830996201463876,-0.17206138898231094,-0.18553650560452714,0.04743381372830154,0.04017350039380302,0.02184463779001703,9.549464694626091E-4
-0.08283669041362507,-0.02771054334502676,-0.1687257199261043,-0.1756683432003016,0.044780891881347325,0.043067592506209736,0.01785756036852921,0.0032559241885833632
-0.08760368662304863,-0.030185059124835517,-0.16861182779785414,-0.18559675061645825,0.04634916003606844,0.033818715867889704,0.01634686077783128,-6.517364696402281E-4
-0.08757997170825713,-0.0328382692173771,-0.16932791581738205,-0.18121248638718904,0.044335077505337654,0.036443889273266084,0.020454949213792248,-0.006229544692950149
-0.08567115437167433,-0.0437908781845121,-0.16890697417065423,-0.17975580210425704,0.046821074589942425,0.03668628617542236,0.019872017295540296,7.331420192718955E-4
-0.0877652049129868,-0.03887546635813134,-0.17314262238695266,-0.18752524478208374,0.046536624868256826,0.038577660309255274,0.021999932133840293,-0.01027254348587743
-0.09193060314739322,-0.03645847921715362,-0.1728765307288606,-0.1834356890116736,0.04531986168886149,0.03808269158365126,0.018346460574494416,-0.027881850996100722
-0.09284627777498218,-0.04106040529795523,-0.17543871750905285,-0.18510259873492602,0.046893388756477875,0.04375269013263355,0.019186876110977646,-0.032042824574543834
-0.09230484397056117,-0.047599036180462594,-0.17528582512139118,-0.188549725246929,0.05097252722035738,0.04421450329797434,0.02003781298321635,-0.017356739548233895
-0.09554668162459308,-0.03511561497785245,-0.17309757149380686,-0.18492117810150788,0.050690560296258756,0.041898210275737625,0.013363149405388122,-0.02733724362131092
-0.0872386906062507,-0.03695498602687252,-0.1703313239368091,-0.1831007983828585,0.04623413242797208,0.03884358157292893,0.011839870308397123,-0.025425461040161364
-0.08693203357010813,-0.035909086008672216,-0.16962082231047723,-0.18242214327645292,0.04468399473296468,0.0389246795514551,0.005692376386629866,-0.037393298057660236
-0.09230411672311596,-0.03661433363906824,-0.17226313181404637,-0.17976026054087021,0.048718822765895925,0.04007181179781372,0.011519733358016376,-0.04351198020551168
-0.09098800058089675,-0.04143935039721319,-0.16996396507380368,-0.18345123981410494,0.049999552377935026,0.045837518312352,0.015887415257881756,-0.04406248987755979
-0.08830053485829661,-0.040682937123069134,-0.17088956125904414,-0.1827650836342983,0.0553859569028979,0.04784085619360536,0.018237176963372393,-0.03620802925208001
-0.08853167314156311,-0.039443261242818654,-0.1681272899826999,-0.18117921045637828,0.05508998307453571,0.04504388189375999,0.01737305484957232,-0.03318093845492685
-0.08836927892584494,-0.038486138963211944,-0.16812345984684146,-0.1833784517371319,0.055457798950280364,0.046014519662712174,0.02693135655500873,-0.03457381088641474
-0.0817384611253627,-0.03795831979733132,-0.16957544143524372,-0.17981594269723475,0.05840789933026595,0.0505838870487289,0.024126902068288558,-0.024963214103919534
-0.0953852312454922,-0.03055431769381696,-0.1613669567277907,-0.16985234985364933,0.05896389745190361,0.0432942973520137,0.012057663664306634,-0.03583856480620333
-0.0955912182328351,-0.01309735382101056,-0.16058370763599714,-0.16906971271803958,0.05391656241862823,0.023588417120271682,-0.012675039867886666,-0.02812459822755847
-0.09200488761395723,-0.0019980581407713395,-0.15774062298734692,-0.1717465685324318,0.0514611270782106,0.032105997199202714,-0.008647122955979579,0.015311952696965116
-0.07609763455255619,0.02281026383678547,-0.1400582391369017,-0.15307291382338992,0.05638858705753349,0.04338033262740006,0.0034717389260869396,0.05457371635373899
-0.06310213632184922,0.041639912099624435,-0.13229497750903,-0.14411431338465133,0.05970816620968525,0.05078065037535056,0.008514445488586311,0.06569692784466626
-0.07186909591167812,0.015509824121285678,-0.15080837511064613,-0.1635930846627001,0.058341613302296425,0.05400435962334564,0.01584359841278154,0.047712071006132874
-0.07933117860518313,0.00606674788788029,-0.164382862891027,-0.17731139401082782,0.06284586210929119,0.05689936667516967,0.0230046826544685,0.02813844843059381
-0.09069392879664155,-0.015495671911927652,-0.1760583598704723,-0.18811037776436207,0.06424428005569635,0.06376334097967828,0.031467652129993404,0.03222544828230911
-0.09017580721396484,-0.018491290291865064,-0.1758091001329705,-0.1856061310798467,0.06831692148151154,0.06471716707021312,0.027510388791478258,0.0150600346775288
-0.08366230676218378,-0.0075892815211982415,-0.16251498612962098,-0.17954733231496284,0.07384857999812212,0.06168716555570167,0.03092334824482547,-9.902875492508894E-4
-0.08818026686524871,-0.009479069533301089,-0.15952649539346808,-0.17183462687917844,0.07448116821290726,0.07087473493645162,0.042415424443529505,-0.008485978711421597
-0.08024310103799305,-0.009015127280626135,-0.16089778859023282,-0.1735065507178194,0.07693331820491124,0.0698956055121022,0.045147424636181197,0.0036872242490202634
-0.08425189742988183,-0.004994467341492819,-0.16859017159796721,-0.18148653567325576,0.08245743041596267,0.08182081776506572,0.051639288287412655,0.0010679258265834071
-0.09112817271061943,-0.01584554903346366,-0.17825715887247884,-0.1894073574236321,0.0833560052507215,0.0804235859449832,0.05381032843673975,0.002230508580453412
-0.0834964409983705,-0.009013460713656466,-0.16564279486444916,-0.1803968207369876,0.08655038234261747,0.08749893824047959,0.056458986256667905,0.009748983227615346
-0.08379319363383753,-0.00827716906746678,-0.15813400521396015,-0.17061488961005067,0.0890494698897306,0.08393099264411844,0.06283510402270617,0.013781418338150346
-0.07842953927949552,-0.007162612397808804,-0.1570836112643034,-0.1744300473730808,0.09048424400282068,0.09161147992612471,0.06286567208446923,0.004235600768487499
-0.08060082095561087,-0.0042685805700538575,-0.15553040576781837,-0.16316444703276364,0.09453075874628122,0.09219335386011318,0.07211804154806516,0.0014715736386979367
-0.0711479533364264,0.004124042086968753,-0.13747174529986433,-0.14426446537380636,0.10205524798546024,0.10513745125757501,0.0763071318332289,0.028563797808627316
-0.06560460893037325,0.009625509445530114,-0.12710646985269172,-0.1324265511050056,0.09811881117317761,0.09723651788307248,0.07004213145584184,0.07124660856084465
-0.05257479498154618,0.005575146269024874,-0.11330360793972338,-0.12117616921078724,0.09800860072196699,0.09951528922459843,0.071735539125555,0.08091444098435967
-0.05216721861874205,0.00992268800208521,-0.10746872600278348,-0.11151401062752654,0.09961583977867981,0.09744065378578079,0.07143137426428658,0.09286262321305683
-0.05177890116087612,0.008147280771283127,-0.11212588369113556,-0.11639154941444675,0.10028387135491468,0.0988959508684523,0.079156406316868,0.09901610801574821
-0.049927433897946974,0.020148033975818536,-0.11155997268449992,-0.11498301409618696,0.1058691870716781,0.10292912860247602,0.08348392802430427,0.12861964080568922
-0.056000669228485574,0.019669827001450924,-0.11519995799548309,-0.12725285100788872,0.10469245515638669,0.10847071162379843,0.08661195621918548,0.13969698346970283
-0.0698432817265292,0.013856042749267349,-0.1323139029085426,-0.14194700479628106,0.10656764798586293,0.11008521808397267,0.08295218285836506,0.1300964671321964
-0.078144146382841,0.007098825918061863,-0.13912303988047692,-0.14934736379614566,0.1071734632445768,0.10844077406268351,0.08377096064368686,0.11951872341653418
-0.07320028638499868,0.014270512298781337,-0.13168467747065216,-0.14760419415593953,0.11214800415346739,0.10822381862476983,0.0869451356336063,0.1114307875313809
-0.06651381946174618,0.021231092005980126,-0.12866835016982286,-0.1427685327710983,0.1096231061766606,0.11191910107798042,0.08720295645963658,0.10110954219040207
-0.0682563364483974,0.015896162199998228,-0.1325425215320586,-0.14274280472412076,0.11355481749972932,0.11136008569323366,0.08637189995814751,0.07905014466075257
-0.06996768316761552,0.012453936040222413,-0.13414431591881132,-0.14802024421352003,0.1168709876102309,0.11524422624493148,0.09177814106452273,0.05418394922515393
-0.07319988095447622,0.004489062755269092,-0.1407193609122388,-0.15626145131809765,0.10680925063635402,0.11470280767193271,0.09762993232633263,0.054440784735790046
-0.07533692228888973,7.848165647128495E-4,-0.14643024827548604,-0.16074590585687862,0.11326117826075766,0.11120019039613535,0.10041822076487214,0.03139129911417998
-0.07780070586718502,-0.003713427643105203,-0.15047660681947192,-0.1662692347898714,0.11780199923691315,0.11069892417431992,0.10177103853677509,0.027930344807241554
-0.0766698302200892,-0.010167380488157199,-0.1510654408904522,-0.16192985703209306,0.11451077878712644,0.1205127952224876,0.10210350912606475,0.02109836641969546
-0.07573910774447896,-0.008189789948513744,-0.1540932615853778,-0.1722139394832214,0.11353027846876391,0.11951518490600481,0.11002155718664017,0.027627818619388036
-0.081344092206872,-0.006143981755511655,-0.1561295471376569,-0.1693560269939974,0.11937989602140346,0.11670775506995026,0.10152015834581887,0.023441384413581817
-0.079432931983709,-0.00784279146399062,-0.1550898289678444,-0.16913818602030242,0.1184320208114637,0.1200225038849904,0.10634839454810419,0.022994305886402326
-0.082148375702249,-0.015029416573352621,-0.15518627089104597,-0.16608869491309664,0.12050292004638229,0.11782001783997686,0.10369484432629883,0.00689682847658971
-0.08118271282194135,-0.005899079591681197,-0.15538417861389348,-0.16684926854682228,0.11643421115210972,0.11419415845700433,0.10504326992185874,0.0037434489664776244
-0.08067945451677085,-0.006934551163664056,-0.1586824492151811,-0.17598132532355198,0.1175478513177676,0.1102377455835256,0.10362256561887159,1.9340082186151695E-4
-0.08349144448387844,-0.016456376580011943,-0.16208701679458673,-0.176391467362366,0.1183580111040971,0.10758238163680922,0.10270236201312147,0.0032022389010370684
-0.0819830663877587,-0.013611678394130645,-0.16538265769475435,-0.1806686876352331,0.11328231460046914,0.11068932118749733,0.1009661311944193,-0.013968420411620611
-0.08647509800547158,-0.020856771749111352,-0.16803397181006874,-0.18572232244253217,0.11074212782139743,0.11003553644366813,0.10413684131031828,-0.006695701448189266
-0.0869675044080214,-0.01646536722598135,-0.17091395464600556,-0.18742026413094925,0.10910779089356494,0.1123812230737477,0.09775962039164239,-0.005531194784985559
-0.08998138910573086,-0.019435315962437708,-0.1717623988342543,-0.19082338330605586,0.10896624387565561,0.10670088044262838,0.10292884715477045,-0.004669418422530559
-0.08894519319665849,-0.0179826310411184,-0.16570708988588048,-0.18377875044531447,0.11313938335498384,0.11165066874168836,0.10354635648681217,-0.006754779144666341
-0.0815124125868527,-0.011394122894556507,-0.15350459102757916,-0.16740201328276927,0.11399747855253327,0.10317879484401746,0.083407001649317,-0.0045071611566089775
-0.0831668436379602,-0.007242950282830346,-0.14592136578444698,-0.15165480788927446,0.10164819239332686,0.09016666553522971,0.07304467946694963,-0.01032714621934425
-0.07722251489761829,7.348037316215354E-4,-0.14079402130587287,-0.1519120136773699,0.10814609768965174,0.09129262057365013,0.05899908338217014,-0.0027683021382952024
-0.07673705923730269,0.0011216002444634657,-0.13879211970358177,-0.14956971014599976,0.10920801519547803,0.08672379385400238,0.05677931732652016,0.014769754794255073
-0.07398276128144268,0.009763559404941419,-0.13571024668363899,-0.14767721730631578,0.11054614503660375,0.09164745020294425,0.06132454298496799,0.028630255134290582
-0.07068418489672612,0.0064824844545836825,-0.1343271033208994,-0.146356592768021,0.11077241640572998,0.09010203180738739,0.06066965578887858,0.048800785561604755
-0.06283983545339944,0.016708502216202497,-0.12513073381205553,-0.13394557110803126,0.11383319028800318,0.09334690743107023,0.05948359841091102,0.09812104356293787
-0.05604722010632024,0.03524305931681601,-0.1085445324192502,-0.1159068525168162,0.11460850648834282,0.09491427315702418,0.054350436777205656,0.16779920968580905
-0.051359621651900444,0.041068428873144484,-0.10106037224606948,-0.10844786213124354,0.11488224610467834,0.09818568053120912,0.05926125834654393,0.20813620913517625
-0.05015986024191088,0.0350161960274561,-0.10257072911664247,-0.11280495759694205,0.11468638441125471,0.10474947017403112,0.05974723694132746,0.2164337853603766
-0.047041934424016905,0.02300553695856723,-0.106855752591663,-0.11008511015141784,0.11381733555338065,0.1027241696118925,0.05931098817358932,0.20805181744590306
-0.04927624710992473,0.01625388521452062,-0.10493212750557691,-0.1095827718216075,0.1083968144824571,0.09930402545134287,0.0605135325732797,0.21161460505321764
-0.050798747727769815,0.01495545907802217,-0.10573468472657317,-0.11160479239157625,0.11308695076235166,0.10187970591287039,0.062488020905151265,0.21044427521840064
-0.04867335819470108,0.016177038291277725,-0.10853064048398345,-0.11463069362572727,0.11148020192433417,0.10012031074076086,0.06114333201510525,0.2203975240034071
-0.050070287864355585,0.011192756959030253,-0.11341867614846418,-0.11985900010748295,0.11500297800842395,0.10095502877474134,0.06236320729489535,0.2140523160535461
-0.05432818899087484,0.00812190829885289,-0.11724352799046892,-0.12208820753394767,0.11177980161852168,0.10335463409835731,0.06714089657460189,0.20682727607485607
-0.059428563362503815,2.7569246030412382E-5,-0.11971752064310638,-0.1204386600369687,0.1047670936484015,0.09995308501939046,0.06642962486737405,0.20383131376062183
-0.058256407987739914,-0.0040783071796346585,-0.11810109841067865,-0.1288426321079672,0.11289158365790507,0.10769324616041136,0.07259854299406926,0.19225131813453006
-0.05766624315683302,0.00281928629391379,-0.11929630381117812,-0.12554438761951053,0.11176043873847231,0.1105789436022072,0.07572403824769391,0.19949236010867305
-0.05882158364685345,0.002398748318024857,-0.12118403684112156,-0.12877952488537783,0.11741335567761517,0.11534330336938405,0.07658030283586496,0.20863690149158395
-0.05601752593775628,-7.735246898976932E-4,-0.12279625688442096,-0.12687349253373634,0.11685361589949683,0.10957931288244743,0.07956439623761807,0.19519096584420556
-0.05658067562764057,0.001486222196434848,-0.12122704969305868,-0.1273263493710267,0.1178278912804792,0.1153526179023264,0.07448237576762765,0.19664077954644654
-0.06031710155234619,-0.002157418921767507,-0.12247353855829093,-0.12720304244102495,0.11755412879326518,0.11261093074622727,0.08301148345885516,0.1845572329766087
-0.056041102420430575,0.005205106493434345,-0.12194436178729878,-0.12660493968212475,0.12223311475643296,0.11737562949606029,0.08043168066550653,0.20293621551242985
-0.057903061167057006,0.0038583124518984154,-0.12328722108833808,-0.1290876293647748,0.12079585582096106,0.11947079772798068,0.08353280899136675,0.19947936152182735
-0.05656010152415024,-0.006042387275118453,-0.12460925716813143,-0.1284040528291864,0.12433017079331658,0.12043787334536496,0.09281292089010147,0.19943949399489863
-0.05864435650930845,-0.004491748980504495,-0.12404811066664935,-0.1287895956311117,0.12834295621379366,0.12378791815738838,0.09414606175482734,0.20230521212252572
-0.058997431189916544,6.541397067402732E-4,-0.12152737637252765,-0.1241620505098026,0.1259157291195371,0.12762560222578087,0.09613894671400079,0.1978515260991281
-0.05870423195790036,2.0100711753081837E-4,-0.12142709815122252,-0.12813432789088885,0.12637808459314376,0.13278815287602405,0.10125985884659469,0.20035455930612447
-0.05809586261559503,0.003118409703918174,-0.1213244763521696,-0.1298192576706824,0.12962102508566373,0.13269062735990897,0.10125629932343486,0.21156065140487576
-0.05508206765331412,0.006040529315845556,-0.12318445564536713,-0.12994833148523588,0.132497316606889,0.13261080681204515,0.10575369421809223,0.20932999229427596
-0.05536561626842706,5.173207482853084E-4,-0.12197460042214696,-0.128657813554555,0.13475840161473743,0.13131704716807518,0.10822188648321063,0.20369867430683916
-0.05434587792669038,-1.1619734608403403E-4,-0.12283594419155779,-0.12855359001298244,0.13764051139731992,0.13476685839264294,0.1121170834359968,0.20555238188072678
-0.05960724568808447,1.086614453676075E-4,-0.12377965882459409,-0.12717653858782027,0.13228409851742445,0.13515719101140536,0.11744645247028367,0.19564518702376543
-0.06124191338065493,0.008495166141380425,-0.12460901127416293,-0.12857392993446728,0.13897627445346297,0.14332858203564175,0.11884000093255391,0.21585948610567973
-0.05769599549336928,9.39298212751375E-4,-0.12551737361354207,-0.1345375060665352,0.13868362999225267,0.14933055187268157,0.12384075694456885,0.22287354421514857
-0.055884755674606594,0.001141174258384043,-0.12447026219418234,-0.1329398772889152,0.14318316295208447,0.14735420413643188,0.12158894052797148,0.21958941768007503
-0.0580776502752577,0.006443509169985862,-0.12388889391529632,-0.12830598567944126,0.1429960137523338,0.15263489096098554,0.1293680313515858,0.21101811926965153
-0.05876024683148104,0.006708827350758152,-0.12499766953217904,-0.13067063599583406,0.14578427849781986,0.15801302427601724,0.1291491545362641,0.21135699746685796
-0.059088832817743984,0.002953229649893407,-0.12365167457751756,-0.12925062333948018,0.14867862130251358,0.1531353512811828,0.13541391425359087,0.2209849919358634
-0.05620162893840457,0.008889503928559965,-0.12410158752409396,-0.13066801610706072,0.15610521409589445,0.16100673745576222,0.13421120790752172,0.2314553734299467
-0.053922809972629916,0.008749320257668652,-0.12282197773556884,-0.13202159545834483,0.14910512615386634,0.15960799539162948,0.13794864103928584,0.2291261231234451
-0.05725831028374765,0.009945789854774621,-0.1252283030144095,-0.13198808590005187,0.15791723738685934,0.15979018022371563,0.1420378319201579,0.2335565266929177
-0.056120443530806766,0.009194330779893586,-0.12177622811684115,-0.13181775226415873,0.1578616718141965,0.1649041005740886,0.14076567154831474,0.22728816114139425
-0.056651985240485744,0.0040439251725112885,-0.11813438209373413,-0.12820009752997935,0.15876902847388738,0.16989143400798443,0.14824126579508232,0.22326435178714044
-0.05742889627417046,0.009471023255402193,-0.12173763921586607,-0.13192085247461266,0.16082190403448335,0.1687449224316988,0.15238122561643175,0.2357495303942057
-0.053473175190950836,0.01062222082333458,-0.1205382694388044,-0.1337866139052365,0.15839774154282013,0.16918507562263257,0.15138164687161915,0.23530761386220236
-0.05289635443074705,0.007869788707317148,-0.11978025151482843,-0.13124567721379818,0.1582364465404328,0.16666405433223808,0.15135901500578783,0.23416362403173405
-0.0508862387288379,0.011203568174215126,-0.11986220440484667,-0.1279679083579094,0.1621641382116508,0.16926166397780606,0.15708206964037735,0.23521729339893002
-0.053446438919048385,0.015845610852118646,-0.11905713097633583,-0.12681322953585977,0.15924552417753854,0.16921116936767747,0.15090477690572432,0.22251961718459226
-0.053708601369673724,0.01683003262848023,-0.11660407701742653,-0.12339316814047188,0.16315841624225197,0.17332777101843597,0.1550345269211463,0.23593558651616564
-0.049937625845880525,0.014438177056714307,-0.11737840174708161,-0.12254319251194276,0.16171371497843412,0.17409893901478704,0.1582154761409663,0.241114362752467
-0.05152285938392689,0.013252656749823212,-0.11843294296435475,-0.13010311449254305,0.16492667171167702,0.17379854478976034,0.15951108362068003,0.24020325568248485
-0.05088568678608388,0.015453322502864908,-0.12025591161055467,-0.13226824237722803,0.16422840177538306,0.17478711321386864,0.16188162761066072,0.23916764781168923
-0.05666686891836162,0.01663315379940678,-0.12013617776787783,-0.13225914411121834,0.16581575939623167,0.17780928012695632,0.16011131797043276,0.24299243058922168
-0.051988553035563045,0.01582282790085091,-0.12141594285415648,-0.1290338964649107,0.17174881933845862,0.1812266122995097,0.16701700839303263,0.23430248029404538
-0.05631140576786373,0.01987946401485234,-0.12171103529917957,-0.13662342065138913,0.17152404768758991,0.18043923855517288,0.16237637229663676,0.2497879063120366
-0.05244116292509584,0.01818073719935129,-0.12497919163126829,-0.13635553938226216,0.1625108863853591,0.18159475484004908,0.1685793103742113,0.24839823839922953
-0.05433612113843325,0.018389664213550577,-0.12402579063863908,-0.13592160803011663,0.17295963068893508,0.1772155054182246,0.16749129405469512,0.24903661288890278
-0.05325826757583259,0.012343178159727847,-0.12138585365108798,-0.13447404679387337,0.17529637089607397,0.17953648745511017,0.16599850798107788,0.24498676840433928
-0.058704619133785975,0.015319670682649436,-0.12283247595603641,-0.138665204133405,0.17083463017753875,0.18598463671540236,0.16946354019555335,0.2447298457066165
-0.05817828861040686,0.01117878957504909,-0.1256567107523875,-0.13686184916409444,0.17466553107882477,0.18288743185572573,0.17049994501956756,0.2605105429782577
-0.05643723283951975,0.01637294932694386,-0.12440738037404485,-0.14135929424706145,0.17312793355889267,0.18497615976189322,0.17417853642329664,0.2603622536104097
-0.056867429636753064,0.02090074084652294,-0.12502871061439746,-0.1373582044958735,0.17187831054655736,0.18135797823385152,0.17791899991653562,0.2675264818834813
-0.05346196741354717,0.012256860460839757,-0.1252351428719925,-0.13821923402561184,0.17725519403011158,0.18335968036814843,0.17647077619530996,0.25877761878946803
-0.055326209600413415,0.020770513658403995,-0.1251350715186662,-0.13745508518796923,0.1759573066821202,0.18276188477886682,0.17602087242148926,0.2557644406901846
-0.04955640450608208,0.023156150432016128,-0.11814716532081425,-0.1297695943676719,0.17520024217268979,0.18671801430290705,0.1818163337800137,0.24397892768677068
-0.05160156411663975,0.030628592035693063,-0.1139247200444987,-0.12763142212746148,0.18197336152343013,0.18814808719060885,0.18213243418380876,0.2422096035016777
-0.06003783229918501,0.03725499334025319,-0.11546397989670161,-0.13325144866582594,0.18112844178254495,0.188700407640677,0.1782776957806432,0.20710828918234817
-0.061923991241830026,0.03638755611813054,-0.12107778263328238,-0.136876747031644,0.17986624466355686,0.18410445823495705,0.17681715802807385,0.16666418762021523
-0.06797227991586365,0.030229585762062586,-0.12150927187602219,-0.13877705453566033,0.17705037781949529,0.1828871810513216,0.1756593926707187,0.12589431292642422
-0.07028991749267383,0.025967238343549543,-0.12608156332683726,-0.14392880103084216,0.17665950348934828,0.1861169039849221,0.17175907543796454,0.10712842607855469
-0.07362914938691097,0.03648799431170058,-0.13261458924063177,-0.15204709971570773,0.1811791847399055,0.19908835075462802,0.1839370663044736,0.14350159605965188
-0.07547018409031316,0.033977587052185385,-0.13951754225215396,-0.16570481630969314,0.1877169548674871,0.19199533428199766,0.18008943988962312,0.16303861058491487
-0.08088168057107431,0.02764263783209055,-0.14166738245173452,-0.16306970089992956,0.18421855844504698,0.19434379369899427,0.18461307623857612,0.1476777724537756
-0.07480346741070994,0.029449247837557643,-0.14112565118548842,-0.16312995166540367,0.18772552581652008,0.19389315906149887,0.1860442475184084,0.13282323033470061
-0.07674600325071956,0.03022288930170765,-0.1396697465007893,-0.1615232121170057,0.18740869989006262,0.19596320880155654,0.18355927386572563,0.13156162885844616
-0.07816436432409903,0.03423249583332839,-0.13720248471975618,-0.15872262076049468,0.18045506533921551,0.19183339088025725,0.18141736959905377,0.14671890663711848
-0.0749324066329959,0.03252869864105751,-0.1415621129855006,-0.1632310543119443,0.18479614544487868,0.1904762093590961,0.18532293507521078,0.1326589990390451
-0.07616838301579498,0.03484932880959665,-0.13759718592345246,-0.15872270561134644,0.1903862347729741,0.1891319191072421,0.18287434066082045,0.12986190161711075
-0.07054976298308271,0.0349951140509823,-0.13091927477459625,-0.1523001637643062,0.18315045917518036,0.1900561864759868,0.1835164247657374,0.10865006985285507
-0.07454266909972078,0.029026909463481278,-0.12989394273540222,-0.15072358754117432,0.18460340618852467,0.18697697132690222,0.18178344751109177,0.10926022797181345
-0.071747962909448,0.04028261735355119,-0.13373394416906254,-0.1574832417837027,0.1845987862128513,0.1842315372725984,0.17477442732349646,0.11606524174407355
-0.07378432563412039,0.029392346137269588,-0.13522613977473466,-0.15389027736106484,0.18326924357296492,0.1819099945166992,0.17925480956474615,0.11242591594407042
-0.06917884603123438,0.041587451259454775,-0.13440073843843592,-0.15883503626180145,0.18113282827057386,0.18557500258141585,0.16932405412302062,0.10758446187377611
-0.07088834472238642,0.03506876930311001,-0.1303952761252632,-0.15614592085974202,0.17805929540115978,0.17746998414751622,0.16311237764347367,0.09700656253304502
-0.0718730548279401,0.02520503349996274,-0.1316203616531248,-0.14879433838629125,0.1837385079998489,0.1818745169814341,0.17470211532349383,0.08956524007821114
-0.07331455474832077,0.027170675809359376,-0.13496909436171375,-0.15633342578816598,0.1806097383614153,0.18057235725669818,0.17609998393831633,0.11059989007087465
-0.07879592908810495,0.029567107323884213,-0.1354486299469037,-0.16073808289193106,0.1812002247638687,0.18247804295739098,0.1752162561480721,0.11126432130281208
-0.08020680607631958,0.029315766137435566,-0.13999980674205936,-0.16157978929791716,0.18338842768556504,0.17923802496362087,0.17023259035935256,0.12077175549882262
-0.08157819342570544,0.017081267437095014,-0.14344946267562225,-0.16623755824529496,0.18606639084259718,0.17762803819258377,0.16728340443641035,0.10345896134867259
-0.08123718744081433,0.01651715424408569,-0.14844542096845537,-0.1731434195034466,0.17950624692002864,0.17749688910662384,0.17349329222990023,0.1038537256259362
-0.08674222115889568,0.010799084880007276,-0.14764869248293958,-0.16986632367875318,0.1837738102731844,0.1747559305449773,0.17654600909349985,0.09976724244354263
-0.08144533975036988,0.0215811861902034,-0.1453316671755581,-0.1713221562559781,0.17645621102576195,0.17172461396526018,0.16884800190262644,0.09944270513456821
-0.08169415297825075,0.018803439161481684,-0.144988306034085,-0.16894920262437566,0.1796452593120597,0.17101340899419976,0.16845500921707435,0.09916050604419768
-0.08294074908445365,0.016010996578684916,-0.14557760582097073,-0.1702006192884936,0.17558669714545339,0.1642604652719916,0.15997876752596568,0.08087974448966054
-0.07923462743743895,0.021130957963510222,-0.14469949505386415,-0.17045759018590034,0.1722085178291871,0.1719803312665784,0.16657045147126903,0.07711713291505723
-0.07902410739477274,0.030408054727677047,-0.14288123999954438,-0.1670011013641206,0.16936784465984658,0.16410129065128035,0.15113472568359432,0.07344732129420456
-0.07816004911619488,0.03554313229726167,-0.13951740281816497,-0.16409263754241998,0.1688005563594315,0.15755934698889695,0.15573092502348157,0.07436518146958296
-0.07794844124271466,0.02456013059113712,-0.14073465618385878,-0.1648382969718378,0.16536815901857785,0.15618750169748286,0.14876203075628258,0.07322286883229921
-0.0770510801250406,0.015416031547619096,-0.1415113381044987,-0.17060071793308917,0.16174870049390164,0.15308848570961706,0.1454330749451756,0.05104350912677507
-0.07796824475584044,0.018684980094419316,-0.14273199141037518,-0.167330627782985,0.16835726066700946,0.15550507129342117,0.1506368532935587,0.06822211757898848
-0.07750429599856186,0.020173334162273286,-0.143210916929734,-0.17167712817855862,0.1652802991358482,0.15368870024100334,0.14362633938913064,0.054702216163719584
-0.07351700910162023,0.02479523981794941,-0.14322154030077947,-0.17145309959805521,0.15999599204614529,0.15044404234021222,0.1425994492671266,0.0580734803989113
-0.0757464925468964,0.021071853395003948,-0.14425209536201883,-0.16692990107262065,0.1581181620158157,0.14441332723360203,0.13486833083178063,0.05466518669851371
-0.07785401660188064,0.020403979920188574,-0.14789184640182967,-0.17463213682038803,0.15704141158591875,0.14332982248962,0.13425965138120435,0.04300072833015521
-0.07873099284234913,0.011853027615106412,-0.15204055046181672,-0.1753345999943846,0.1507306535109056,0.14132647051397293,0.1297582849977208,0.03347988756248497
-0.08282936920449704,0.02046103489610529,-0.1558488432122608,-0.18224289462629809,0.14744671492918415,0.14395627002786604,0.1317575840752865,0.05020309491977531
-0.08297333801380559,0.015197209639383332,-0.15897150731455692,-0.18419335745366547,0.1487469546718531,0.13541556541629146,0.12465020054739799,0.04156435201320471
-0.0761504345514246,0.02105438001907884,-0.14736373205026224,-0.17319189763080722,0.1436241021339188,0.13115312510697547,0.1186626624336435,0.048425736785784136
-0.0773798836684564,0.016957474945093823,-0.1444952043936639,-0.16647476760567842,0.13958145313597037,0.12878393535303279,0.11084031409816648,0.0332672966094362
-0.07337334612321612,0.021696395423710733,-0.14701445859564602,-0.16531069158485942,0.13667715949837544,0.12848336280739753,0.11267495352069014,0.019815980065482162
-0.07862800145187036,0.017955502036039038,-0.15056450312421113,-0.17093044219387002,0.14798578370196214,0.13026518427347528,0.11905443019684617,0.03169086602070925
-0.07679635973783865,0.019423084699558692,-0.14959826799849912,-0.17268313181294218,0.1344869509312318,0.12556011026989505,0.11330549350116009,0.020676838592914065
-0.0769104877850809,0.021274678638021897,-0.14595883111988264,-0.16716186526797042,0.14391257966791718,0.12816959877222742,0.10963893823018338,0.03152376578859124
-0.07602783363084822,0.023693240621128105,-0.14894843430851396,-0.17145885135306485,0.14131319937857964,0.125704234173417,0.10449454571159948,0.017565168412711947
-0.07683546103438578,0.014824294641347699,-0.15110059513534066,-0.16960081304532862,0.13742541578646,0.12060794542508492,0.10576861441849736,0.0011245227825067642
-0.0805808348715337,0.011702683633265635,-0.15197752631279107,-0.17146156243583854,0.13751452747623238,0.11893658684564762,0.10782264481136601,0.010918244996283959
-0.08042037588127103,0.01964452761029798,-0.1519617712130295,-0.16982321160223324,0.13598236916971765,0.11949318316674017,0.10473559815908397,-0.002168710647607318
-0.07618052253802686,0.015459704450332021,-0.14896523907408385,-0.17100663883648787,0.1364713328539607,0.11986900465988452,0.10581199358895624,0.0023601256939271096
-0.07793546221643696,0.023503544081046865,-0.15016755026146777,-0.17121228390107973,0.13583925562040694,0.12084613334400328,0.09747205309682953,0.0024185035878774622
-0.07859416622860327,0.013438132204314671,-0.1516699535404537,-0.16769748821602784,0.13872618207101722,0.12004477445427697,0.10136078226373998,-0.0016434744350220434
-0.07813573238041623,0.010315931844854274,-0.15349265452689165,-0.16864529380760968,0.1380739981423224,0.12097535014600415,0.10415505227307542,-0.004361254159205473
-0.07644741503305322,0.01444559938590992,-0.1526661531398484,-0.17432978494232704,0.13994557810108102,0.1211374559727948,0.10138228825492608,0.0019366467887770727
-0.07637544276776351,0.01096758194845493,-0.1501317076998235,-0.17912707496908375,0.13282070992387743,0.12210300034853377,0.09861247656944917,0.006625640842627889
-0.07530448184341149,0.022793776285889793,-0.1548326260694894,-0.17281432739281166,0.13777719503069968,0.12076116398505361,0.09972961891124178,-0.0010909591527405687
-0.08007444761143363,0.012763865323076197,-0.15145260678999986,-0.17567065548262165,0.13327487346336156,0.12166790339975363,0.09942496836617175,-0.005419377201050915
-0.07634791801734248,0.01905720106380805,-0.1491012601014863,-0.17157660724077992,0.1387270039213924,0.1289073540522273,0.10355938403108095,-0.0067675852297496225
-0.0802710696367718,0.017052788691228313,-0.15018421022719317,-0.17306711353733395,0.14014338442493235,0.12751970536436763,0.10426839577409584,0.0038623865378320326
-0.07630884509930054,0.020845978159236198,-0.1468255055597903,-0.1734973399295088,0.14086715296143895,0.1294232325950507,0.09790980720172485,0.0014603762373483233
-0.07397712298995902,0.020767769667801975,-0.14917053205396963,-0.17560588254543877,0.13985043963811358,0.1252056894774931,0.10374853579651186,0.0027623448813837072
-0.07766320886006658,0.015631191524181944,-0.14758812197433716,-0.1723273477434012,0.139485737399375,0.125739910473304,0.10328269353904523,4.867897279907633E-4
-0.07596394333764772,0.011896789868905307,-0.1494477795512005,-0.16722879166949206,0.1356360425905871,0.12880119108877616,0.10418348880220382,-0.008299003117061499
-0.07685060375507365,0.018319194433332166,-0.14773476374913605,-0.169373024941069,0.14152809886254597,0.13131968447764744,0.10710789707359768,0.006010272472450037
-0.07370849968351387,0.02217910080553245,-0.14936851720711616,-0.171955650018618,0.1400574610830181,0.12650811432824352,0.10183585889809203,0.012991995457737795
-0.07488416145311695,0.022001931676995556,-0.14604031586920066,-0.16868766819506595,0.1432864978404279,0.12840553135170502,0.10532374838995034,6.419192757661448E-6
-0.0682257224709938,0.028758395365378255,-0.14158026908137136,-0.16451379196237953,0.13934075118084252,0.12693480875457902,0.10497524708844161,0.014035198099037664
-0.07319530982513664,0.02460946293581884,-0.14424133130266042,-0.16295581966682496,0.14308283466274302,0.1298064957493193,0.10726944012552353,0.022761829036577908
-0.07268926548045426,0.034219213065892005,-0.14334562567915105,-0.16377867916181374,0.14127044708576936,0.12928508242469036,0.11059404848627462,0.01617332377485693
-0.07398652227765168,0.029015835660973405,-0.14230974900743298,-0.16697347092473538,0.13982629968303528,0.13079123123735523,0.1059916159963702,0.023147472598798336
-0.06851355159726695,0.029757951763534223,-0.14451526029749576,-0.16483402200453934,0.14031419266886946,0.13017274311367594,0.1069312342663882,0.008462315858769259
-0.0726319694288348,0.026188483108099698,-0.14315963792061154,-0.16711143647477214,0.13386838577937413,0.12312730159593707,0.10626085793312492,2.669253133761996E-5
-0.06980359092639464,0.02874482606592015,-0.14506062848462745,-0.16948194893068771,0.13554623060515283,0.12382305150556869,0.10708142357836507,0.0016980231987187917
-0.07051667293681174,0.028995831740247925,-0.14509226485741908,-0.17014193426743446,0.13603885339225524,0.12267430392264118,0.1061738829498359,0.013364309586923273
-0.06774340099946947,0.028629843277615002,-0.14688179763227255,-0.17144442841555804,0.13670047990210754,0.12508083743528528,0.10533295238237032,0.009126515250042846
-0.06878339170935006,0.02628501661531872,-0.14491164906875145,-0.17035805024561518,0.13236751348456335,0.1220900537620295,0.10091716853168901,0.008493029920044871
-0.07000637227737223,0.021008327737277375,-0.14659874359367372,-0.1692988473443186,0.12794086198818527,0.12093926016627991,0.10086520397343408,-0.011937612787682702
-0.07707886276869852,0.014416287078737778,-0.15268177402442054,-0.1777209291383269,0.1321334344706263,0.1218725585758659,0.09760254033064672,-0.01631598024376497
-0.08248060814479147,0.011360608317723675,-0.16182153843263608,-0.18723108265706953,0.13258714195515928,0.12090705262744798,0.0935758946552474,-0.017662569801840288
-0.08583393513995573,0.015760201700640054,-0.15841490202775663,-0.18423081470682365,0.13240985053412901,0.12131298487952738,0.08761560234715979,-0.04190038926529727
-0.07721690975160955,0.02012587832440518,-0.15650056983981417,-0.1834529190135853,0.1321889008290461,0.11791017858429641,0.09032926761614123,-0.04140656220012839
-0.0765904185750978,0.023579199690765693,-0.14781219297967851,-0.17290810390589595,0.12081668344643359,0.1167053617674769,0.08856422377690285,-0.057532051582711574
-0.07631648156233808,0.0223101455332789,-0.14874424999513886,-0.17466717493373468,0.12734191435751177,0.11467876711868225,0.09403031927308424,-0.06575781542030334
-0.07585555060769295,0.019068703632880483,-0.15505689285893373,-0.1811727116660594,0.12977766158716605,0.11712339414426318,0.09456160593406396,-0.06484561942297061
-0.07527837277610738,0.01822489538349373,-0.15911355377233674,-0.18457269047444166,0.12495992954083474,0.11604222240963384,0.09717718288336333,-0.09416218788566136
-0.08610953501149922,0.008616783622503652,-0.1582858372347057,-0.18257873819389892,0.12557706877479483,0.11494748516427619,0.08923594285073903,-0.10283029202688311
-0.08173321244776607,0.016890612041466718,-0.1543602449111187,-0.18312883587937168,0.12332301191077405,0.11104363955416424,0.09520570473241509,-0.11261944465116681
