0.05008286499597189,0.08913272424759992,0.07389462563578852,0.07754594720799254,0.1685206010231901,0.31609583669170466,0.40065229773298283,0.712681376951004
0.045442574245570334,0.09065736984980662,0.052202553451975414,0.05031456929171741,0.15817812303678697,0.2700296629963493,0.36359006285751116,0.6751235182808366
0.04730689608494869,0.07312557856135746,0.0703560378077253,0.06282590423988592,0.16583007156491397,0.2759594244572856,0.3641833843413625,0.6905605626244767
0.05921622320475026,0.0869793139055622,0.07837164210300537,0.08638721784238186,0.20579171534433863,0.30832011542476,0.41272908365121275,0.6783381998000728
0.06375679842185845,0.07041209213819853,0.07926813679431302,0.07623162440792841,0.17931473537245246,0.30459702614645023,0.38957209597808046,0.7070461284194417
0.043519305615450546,0.0996725820423376,0.07025179779139053,0.0682579091243849,0.16090579404324679,0.2827687872499306,0.36886008738462767,0.6711418344721832
0.041112436942524005,0.0708687361549875,0.04441840858456574,0.04012415689466553,0.13161759524573133,0.23758780627221776,0.30959298299404037,0.6697389670108475
0.04786156077917608,0.08158214132896151,0.06073302210460777,0.0491308069701899,0.14762857616832803,0.24307115048347042,0.33975518865677184,0.6463832249659672
0.059499872999202987,0.10019524422110748,0.06988053508091634,0.08198336324085738,0.16461378226323525,0.30094925721457627,0.38748109757069843,0.7134697363096071
0.0579809535870815,0.07964036109438188,0.07174700807207438,0.0819858505679574,0.17229126976745426,0.2836491208396694,0.3786475463773994,0.6978395960408657
0.05671820379763787,0.08583079925150848,0.056886803330860505,0.058375413610159715,0.13771324091169948,0.2628839381890384,0.3612750791289714,0.6980760909947568
0.031549701551428964,0.07839121096657324,0.03572509945839287,0.026133470502643134,0.10854359119373407,0.22557854653088463,0.3084269816180452,0.6684530745580843
0.02756981107198936,0.06510685871718104,0.024098629347077363,0.005171186643014369,0.06935359001728135,0.17051868199563625,0.2555683162858536,0.5270003976496643
0.04441490734835399,0.046112456920518324,0.0585546390812074,0.048959356748492944,0.08771274497395345,0.23225153971868118,0.3190907381196434,0.32974281078272477
0.03940116352621417,0.04635171099484375,0.062444252612238745,0.052844494699442364,0.06591418080291621,0.21735824442048166,0.3011242198991955,0.10153979819715198
0.0562972697489798,0.14968269597316733,0.08774160012698479,0.07274043186768157,0.028653002210808444,0.18832127217640957,0.2919725802064171,-0.09879912232375805
0.05001264010650071,0.3001205676292345,0.10268260991283462,0.08566789671825335,-0.019228831964302785,0.13731769330724708,0.22742444476089912,-0.04498185276997348
0.06278210637478093,0.3969558546776497,0.11149885354235857,0.061489139438228126,-0.02499359714296107,0.10204172028966783,0.19737985498564503,-0.05926660957458914
0.0832168528680634,0.47860633679534736,0.13494822521940947,0.11123961062795135,0.02517029719258974,0.1658549689246339,0.26221238618381615,-0.06582748962266204
0.08042174466613305,0.5627010625705351,0.1255631220835726,0.11419221577819524,0.0024507601053264504,0.13783796198780157,0.22112877996742467,-0.05222857033037596
0.09091857269014043,0.6581533219316109,0.13354063802011584,0.0985180944551643,-0.017213485775546135,0.10888671640185832,0.20512790037478143,-0.1002891554179311
0.07661195990511978,0.8081455849529937,0.12766044719071054,0.06257404325481024,-0.05604055217625365,0.04860174817202629,0.12298357737190393,-0.10145768965894666
0.08324347383725429,0.8589538685454534,0.14106464298183533,0.08269001428971916,-0.02733979603959541,0.07766527299117984,0.16641214260349438,0.08724426278285521
0.09507688231626482,0.8684522735717326,0.14715171252873654,0.10793346558000462,0.0496788048399942,0.13611977053534569,0.22917506954067174,0.10291812409512557
0.09164345076989092,0.9052138895750015,0.14028506648697323,0.08974810141934461,0.031088237308969972,0.13442761521990776,0.21300103131981105,0.07393785169137192
0.0922969070577724,0.8509639036178333,0.1384441217039288,0.06883532089557197,0.02326238341995428,0.11843762601580514,0.18321600448542355,0.05132971026608326
0.07070525148943907,0.8678253324551961,0.11218414039635595,0.05031676476941722,4.097685787624303E-4,0.07908591587492855,0.15358976038705283,0.012567923302237135
0.0889700315360797,0.9035909930523514,0.14087553987935472,0.08545730784648242,0.03646883795184383,0.134139215048757,0.22484130920080647,-0.02075030143577629
0.08898419667475249,0.9400414168313097,0.1628412874784074,0.08900359991225502,0.04120082708215868,0.1360504424479037,0.21596379591316447,-0.07036423336693583
0.1019532999100885,0.9480591576562897,0.15030212806371962,0.08482865596686964,0.01850155154779934,0.11907250207369253,0.1998156270515232,-0.11938353802556113
0.0865667048312215,0.9223779593349104,0.134618826326201,0.06809987857060994,-0.01128398977451349,0.08819371615902612,0.16003699844799701,-0.06021511011883955
0.08443518023262786,0.8886716367868849,0.13401725926459696,0.07539539856628104,-0.002475099491122656,0.0901129391336592,0.15733354258576213,-0.018440976271948305
0.0990230553496074,0.8511097583822739,0.15383941111182023,0.10277634095714451,0.05131491096856498,0.13278141108774513,0.21065242632807987,-0.02119841387921784
0.09549397239995579,0.9033606141086523,0.14076833788843965,0.0842019942425665,0.008858654958318633,0.08937606021030553,0.16983986471816997,-0.1457108169299712
0.08404913892392951,1.1061779490925785,0.1565503809023759,0.08896318586238551,-0.02862275359939386,0.05264437640435278,0.1480405555313325,-0.29331918036039384
0.052195413702190115,1.293240175919277,0.12748595988962302,0.037441561048636524,-0.05496436753134427,0.01838520836057748,0.08830898827532357,-0.1601409796797141
0.08226007625565122,1.4245677120891558,0.15882106370530813,0.07871593007975432,0.023281173573939322,0.0837255888904926,0.16929408833289483,0.06871521899382349
0.09426760924133719,1.4450319133054148,0.17035323268590158,0.09101968793749612,0.030988588110233188,0.10710532557442093,0.19425123677429593,0.11506576754056343
0.0972714637062936,1.4863604667131018,0.18073834428593305,0.08987276010065313,0.023124943707647918,0.09989220873952379,0.1714292124872302,0.22440247242560274
0.09380153517915157,1.518308635995933,0.15797496226223667,0.06984868505204074,0.031170707294468004,0.07930347252159328,0.15582934471002866,0.302777181294075
0.09734113291391593,1.5470127939589602,0.16425787568011269,0.058693144925748356,0.03331479360803067,0.08073353458314461,0.1417152972745713,0.3574375578044408
0.112203213164766,1.5356182286001951,0.19022506778334058,0.09618226100855556,0.06914437728918363,0.14778017128084464,0.23160811622578797,0.3142445344469963
0.11471784380479971,1.5435771175635078,0.18039987607335656,0.08587973085620672,0.0443908492734576,0.1261620852002511,0.21762945961536317,0.33449404002427874
0.11554894426400308,1.5084233964991458,0.17667282466507922,0.07352695819782823,0.05727264963060412,0.1282523169167628,0.21707110535692917,0.4477445901632215
0.09216666898502755,1.435986298986625,0.16386037166193304,0.06548899813291106,0.05501395155453352,0.11424071198752284,0.20186128275641874,0.5913558716033318
0.09785175778186095,1.3429716626647585,0.1948099940011369,0.11889743093832585,0.14784698594370196,0.18901497055804964,0.27546364373142734,0.6214916287907897
0.10789971326396766,1.301354778740144,0.18959125566935425,0.11179876189839855,0.13906710888853172,0.19931132079814848,0.28969138645374576,0.5868088704010332
0.10583077999683588,1.3327990821128126,0.19236734491211158,0.12124609951589295,0.14000844298609524,0.1943866690637248,0.2728886041725695,0.37726540675122594
0.10482535037429479,1.3281605237715917,0.20054216056016994,0.12228505231247298,0.09153794342775719,0.14156665207846417,0.22989432571927104,0.2168287058674428
0.12927630789266678,1.3490558633361116,0.24906650059924137,0.18589243637572786,0.10555029819217336,0.1768461568989255,0.26536958471169136,0.06460981737177542
0.14029111625950916,1.371963481352205,0.2548579080146949,0.18290559119486255,0.09808543552788096,0.17886745085713682,0.265547003490957,-0.12667248681599377
0.14337675557515037,1.3859029155121585,0.253073306792982,0.18257605561277868,0.05055732065087872,0.15062315651489028,0.21051241783269742,-0.327993205070155
0.11146662683765053,1.4386769306959981,0.2147092557685032,0.15568054871074924,0.024738441006801747,0.09240521998912654,0.1570919368887096,-0.33860422774910065
0.06697557234191914,1.533149379019272,0.19840079186994025,0.15554742978923455,0.06778890867183159,0.13686999161298924,0.2266120752997765,-0.10205498273004007
0.09684830203717966,1.5823315683802133,0.22798310727543972,0.17454335466236723,0.1450245223010402,0.1993267617851138,0.28284895634901197,0.15583025926998187
0.10072512730621949,1.6105892406832698,0.2183095403292247,0.15635248164398752,0.12270277222107467,0.18749225050873425,0.2574876021748737,0.286602309494406
0.10101450796980316,1.6107287239741555,0.22426715392681779,0.14006138403502968,0.10463354694065766,0.16218158150865064,0.23025974391662832,0.3590391393869026
0.10758132622569741,1.6081445691746397,0.21824362076023127,0.14114243245083719,0.11251057588653049,0.16218582798072878,0.23582726916047334,0.39959361819715783
0.12789729996594726,1.6250080835672878,0.2500351905292736,0.17813214740963002,0.15365750219374827,0.22262573136800398,0.3031261527700527,0.40952331054943175
0.1292806698712443,1.6479509659314573,0.24708069559128826,0.16087514826257032,0.09848936343373994,0.17413096635137493,0.2527603473516738,0.19800647474369948
0.11356665547307847,1.602264771095747,0.2491019073436632,0.16921719442113542,0.0822480524655144,0.16046745912873692,0.2301574762805417,-0.03539740309762558
0.12991526146820284,1.5402171447298536,0.25886148138694415,0.18228611929963295,0.06069739149419412,0.14945529948634076,0.23505790938238727,-0.22968903222807852
0.1690581387844834,1.442559036131284,0.2884475652396448,0.22440056947992854,0.07939789478216538,0.21509811968494816,0.28989561768211813,-0.314088381120589
0.1614378029721859,1.195693475908894,0.24812816958609088,0.18244703630558637,0.06742710227728879,0.18634579573136895,0.26630771590810015,-0.2599682161103695
0.14373053053679363,0.9650006501934177,0.2150234335760794,0.15738027442303174,0.05427269795238187,0.15082067136644473,0.2275429334539757,-0.2251740000930378
0.14044050744714331,0.7700899147537562,0.18234470445682913,0.12952949280301082,0.057608754579296116,0.1424093941197438,0.21050713802831383,-0.1192545265665395
0.16303659701022752,0.7263040022851773,0.22448104531723942,0.1742596594937176,0.09331965844962108,0.206009899119599,0.2869814153859352,0.02482044976197017
0.14865861922178025,0.6431857680577172,0.20489829334896795,0.1623338879262155,0.0957121933253546,0.21773501705198373,0.29861147466698595,0.20080202087963844
0.14664464145320022,0.5370878084541811,0.1901360492205338,0.14504726344579225,0.1351065318670622,0.2197675156239889,0.3092636769078501,0.6277494402730636
0.14240208194455117,0.5502850259329423,0.190405162586899,0.14027517450773755,0.17622685516304215,0.24698293672027916,0.3308640164676432,1.019146046993343
0.17014904062357142,0.6329629853216265,0.2415938261122396,0.2054938981827109,0.24687873418915268,0.3274999740634247,0.41620200475829566,1.1347278707105044
0.19538324035685872,0.6983629131116844,0.2550549321059176,0.20958895460341684,0.2560978856565015,0.343110913434461,0.4372775082465934,0.9910788872038832
0.19569692082405893,0.7780442536839229,0.2579766134331889,0.2209369117656185,0.2069283487904666,0.30702218171141127,0.40142301689528714,0.7245849597765941
0.18286314308646143,0.773522687017113,0.24387704207633407,0.1963752555795354,0.1647370444690667,0.2590770325345664,0.34204847844425873,0.5026825255715475
0.20387260215046196,0.8173101034626339,0.27906015857156863,0.2379887042789394,0.19793017813247837,0.29098502586089586,0.39714788262863776,0.28770860976695173
0.21031635016278816,0.9981227486501197,0.2898875034636776,0.26173704478913784,0.1711519002839868,0.2940055609964816,0.3798901638458338,0.0594757180443533
0.1918071105892903,1.1956188496424904,0.2970592564720873,0.25228805167905277,0.13158880219885824,0.23965054821142887,0.3123736764883141,-0.06378518425679003
0.16995655296553774,1.3956883529076727,0.27309889097940465,0.2148731209977322,0.08074001813525845,0.17189064207786753,0.2605690842003037,-0.1481869428509373
0.1623298582572487,1.5349530183542093,0.29701325276776147,0.24672707039249467,0.11561641644543809,0.23848998642153568,0.3259375855493054,0.2381800036406693
0.16469488321378903,1.6254058340402269,0.3240629773161201,0.255677235848378,0.19558828686429156,0.2864694882523928,0.3764463797082264,0.5686595468729527
0.16562313145436702,1.6858217078915467,0.31284584149828054,0.24001925874461175,0.1584808206475199,0.25310575484982556,0.35500914457984467,0.6678361920892925
0.16400307638960968,1.7051811062609281,0.2896232643228971,0.23273888496839412,0.15345841695644458,0.22025894608093996,0.3046508677840111,0.8067842788557981
0.14387311789396867,1.7481428564944588,0.2994581460406296,0.2207349384055484,0.13653136829021428,0.20573530710205468,0.2772253194447178,1.1085254152350268
0.19702063033960418,1.749093696340028,0.36563978594304297,0.304032368912014,0.25511679978319474,0.32121094189196725,0.3945227969046659,1.518592059815989
0.2198626069215897,1.7259007007105496,0.4069903375648384,0.36040292614058184,0.2953359053837181,0.3491414687256685,0.41662020656565174,1.8954878920916185
0.23897743791887027,1.7627043694439286,0.42906780964467667,0.37922658572050194,0.3572681996908741,0.35476968306895723,0.43305676155353734,2.2762923039064575
0.23736504751570076,1.7959549047626213,0.4561564149963915,0.4191323287852541,0.3738227296861131,0.3852778004308281,0.4579594472648293,2.7060441352487303
0.26789395786739917,1.8231362768561132,0.49744749255655724,0.5020890959084106,0.4645972004571236,0.47952664764022135,0.5543852862941062,3.3798019364343137
0.27137907296835373,1.8340360964503104,0.5197227230871189,0.5063458822045698,0.5268721705669898,0.5274221443989379,0.5977366747920848,3.6501874522265094
0.2748478831978027,1.8167764318954989,0.5153154505631591,0.5283037202992895,0.5546282445774501,0.5476111478260027,0.624149087275399,3.898686810766251
0.26617436630810937,1.8488266527082569,0.5052431079537825,0.5161713112297398,0.5705932424833617,0.5564737908668451,0.6319799866509094,4.004506390236747
0.2866521347174721,1.8679346343751666,0.5438335959920005,0.5479668301878791,0.6402164497906223,0.6354938200483182,0.7098268355940749,4.003373702272578
0.29055033566999555,1.8727199703047526,0.5275300615075579,0.5492530082030639,0.666447757212414,0.6848527007746197,0.7563368376603403,3.8884448748070515
0.2978026031335215,1.8798308271179818,0.5325656301541914,0.5427153037043344,0.6357777329844944,0.6784767768646448,0.746561928618297,3.6349908768714947
0.2865725880369539,1.8326902732709847,0.5164638449637279,0.5196732328298063,0.5910798908571974,0.6522564151509805,0.7301015574471929,2.9002541951013767
0.2996769795620166,1.7706532883840378,0.5339403063840122,0.5761962258488853,0.5662422444600842,0.6899260951952738,0.7609981014001382,2.1270698858216237
0.3222143753262834,1.7051553483105664,0.5370054474911773,0.5447890728085373,0.5187441553180857,0.6653896782363925,0.7463030402429615,1.2381347203805109
0.3159396610700306,1.6385534217853457,0.4928533882992068,0.4674299461716306,0.39816499323446963,0.5535114540619103,0.6251001449343481,0.23226041800892833
0.30359337741068476,1.5319969983318475,0.44495206862987796,0.3947304467753376,0.26069711463797357,0.42323960736137783,0.4897222149839574,-0.40408288345529514
0.2775432374648254,1.4172289294088387,0.4045085871322093,0.3401440490143288,0.15768922347190445,0.32290740116474853,0.40187752550780725,-0.8001193721630991
0.2934448511901868,1.215328016510982,0.4231927025026964,0.38103330923821827,0.18969637683677415,0.3678271373594959,0.4272985931833677,-0.9682383813578342
0.2963835990215672,0.8841814154126916,0.3894833982889071,0.367322967637928,0.1603231348723281,0.34129413710875395,0.41232717993763013,-0.9281118299662953
0.23869231447479383,0.5817821175276553,0.32713408085803103,0.2866340678151314,0.12077982354142264,0.283621905926025,0.35022480282059776,-0.7217176983496602
0.2081588146015787,0.3128287741882949,0.263225190409338,0.24640885328027223,0.0718198346359836,0.20809560341311314,0.261144065687177,-0.39788189740053836
0.16787942197823627,0.06887608318410002,0.2244472985226858,0.2258868319850206,0.07186782708522652,0.19361407698580702,0.24408897906441035,0.06949462628876973
0.12871733058280813,-0.20963642970942442,0.19236291960439578,0.21124266246622792,0.164125961171147,0.27682608146536486,0.3296828331984128,0.5501649122058536
0.07254081645363784,-0.35883612350368543,0.11361647559206446,0.1184773203695694,0.12585455883517643,0.22520094265250862,0.2736342709595068,0.5821335253198654
0.03732764619000031,-0.39812343611551615,0.05244517727734117,0.04824509755062035,0.08147911640038474,0.18125995112891624,0.22877855721747864,0.25785278492541647
0.02364222539293289,-0.40785442838598845,0.009260976080445064,6.338948282289656E-4,0.07949940630319627,0.1467703889319746,0.18958759797147745,0.36007102703990834
0.02746368730481215,-0.3975986340763567,0.03183911860606012,0.0260228910419886,0.08881385833733198,0.1655003871786781,0.21807422010233593,0.3164047570235663
0.023030688185490714,-0.30619972858582,0.02301921747823291,0.017375238908397338,0.08258686695716343,0.1760492538133833,0.21731171860042228,0.3261080170101808
0.024757224403226454,-0.24468460816168944,0.014661563971502905,0.0036056243545820807,-0.012580965099811695,0.09185001709536281,0.15081063231316333,0.08092361029766916
0.0029895750484278364,-0.1931489865584876,0.0059996848192817205,-0.02462423016843456,-0.061689327261566944,0.03610503401676346,0.09033173723413249,-0.05913484391327996
0.007971873336262385,-0.1951999485784757,0.0047119596050428135,-0.02566612303727802,-0.05799740142910387,0.03782557790170738,0.08325743457345389,-0.05587707003340057
0.001457350927190145,-0.24965331967531776,0.002758397689280367,-0.027845780287386136,-0.01279203202083073,0.08021385237826972,0.11909813554905499,0.05139850831656857
-0.024386948931465386,-0.31513188965733374,-0.03589942407138794,-0.07038520577371933,-0.07507964339705601,0.015014961135363636,0.052794906006158646,0.020706282707298924
-0.039925244403429413,-0.3816724643628313,-0.08184465830440864,-0.11790190457382772,-0.08426951319898106,-0.025642230664909633,0.022772634164397298,0.21820633104203618
-0.050463127778522805,-0.4320994351522545,-0.09784264582068834,-0.12441604602205157,-0.07351209357896839,0.009665456499334093,0.050038395675607326,0.29530613200455536
-0.04231992031564133,-0.5000584507994843,-0.07752191670709571,-0.08964551337851284,-0.014054346134874024,0.06142156166974361,0.12059702926324091,0.465202585679294
-0.069317926260635,-0.6030174307900917,-0.10296747410113402,-0.11005936678277566,-0.0673759258095107,-0.002405015494316216,0.03769673414000722,0.5327141497284192
-0.07401623057820104,-0.6353780857064857,-0.11304312732901435,-0.11989766794514135,-0.07742676423199686,-0.05066650277789563,-0.012332719016554217,0.6386355956983721
-0.061967580106197226,-0.6843102322359331,-0.10096226488918698,-0.10237560196055728,-0.0578314847467264,3.124462327167144E-5,0.037379521566322474,0.8661759130430485
-0.04994360059348463,-0.6323158647961159,-0.07143803233662388,-0.06457122580836812,0.006166509603200448,0.070265713608609,0.11376015671422254,1.0328680810588293
-0.053654572720648386,-0.5872705685639946,-0.07476531798881769,-0.07705260307704163,-0.03574851557706294,0.042862069234177166,0.08029640845741115,1.0880494260561668
-0.06811525540764356,-0.43006550442288344,-0.09216290368127579,-0.1071073064950169,-0.0488462146978734,-0.011240982526541453,0.030002736306536118,1.0098342440528278
-0.04727168422932255,-0.28382867545055684,-0.0639717156169498,-0.08479313201018658,-0.020962244351519197,0.026578415501263105,0.08661316990209157,0.7659596288479996
-0.031972377438413746,-0.20859870653849463,-0.01393550076842062,-0.05264841205022574,0.001797518038104201,0.06353605866721106,0.11400421985349098,0.5271385407722188
-0.03486028960075402,-0.19396776425819437,-0.050600437778929294,-0.08772653531624247,-0.07258572523316648,5.580529686307603E-4,0.04816654923890006,0.35667834515944236
-0.04256048877257024,-0.13728545689248925,-0.06919711293099216,-0.1160895811042937,-0.09008193743005603,-0.026860704896660304,0.019377172658065947,0.4073321826903059
-0.03128141946750152,-0.1041031940528696,-0.051521696052627595,-0.0773491316207539,-0.017814082349373886,0.06303381114966751,0.11241164349733389,0.6197951511727043
-0.02285989046143288,-0.1570243340406749,-0.017233468555549792,-0.028516104644990804,0.005671085817758825,0.09104296354116692,0.14762299182522956,0.6641588515065644
-0.014957017611399807,-0.1673074084366083,-0.02379917230093662,-0.04270803455997487,-0.02190773752731128,0.0308003812495886,0.08182151015386109,0.6518490018338671
-0.02946195393098098,-0.18241959091843585,-0.034546255244692216,-0.061926774367375446,-0.03735472097112033,0.02348100920132442,0.061563921635709416,0.7551697045567798
0.0027989345358385015,-0.12504510237501493,0.01882272403044495,0.017213159119155653,0.0356841605589372,0.10555485210388073,0.1677963403489597,0.7923612869888766
-0.012708439941223193,-0.12704386533916706,0.006041056741592738,-0.02096492747067362,0.026620625475406796,0.09065596524893807,0.14108270109897186,0.8230600481815256
-0.01641645050379545,-0.11358925778415904,-0.01956095296656003,-0.04550427087143994,0.01064345093108286,0.06295580244704004,0.10535810859270309,0.8436926438375016
-0.014156589839939846,-0.12954695392223495,-0.016498209733594765,-0.02941956162661079,0.0015231169376722696,0.0686077713617279,0.10746520463603813,0.8744509675298738
0.01308209874359841,-0.1292903182567788,0.009117531482943454,0.010913171376612752,0.08468655842637329,0.15260925610581608,0.204957278712773,0.9571033924642268
0.011105615152275171,-0.14671033937088426,0.014113350088568743,-0.005654788918758128,0.07043842137961066,0.11610198361098939,0.15415527967923304,0.9710163558971625
0.0022329413866246798,-0.14113419166152597,-0.008229156895384955,-0.01480759113502505,0.04705625440757597,0.10440931177133395,0.13535432232003783,0.9538860256294989
0.019922851893687532,-0.13954057420714822,0.020156259846213963,0.021604010471375293,0.08428118384242395,0.13785029143186314,0.18318795109265915,1.0060767897116372
0.021313566090830793,-0.11629998844286142,0.040854364754708494,0.0390622361187803,0.1094782370144137,0.19872323335792194,0.23800670971209567,1.0590831672858974
0.021587552240405955,-0.1744443025534637,0.021562882813159257,0.010225435495051416,0.11112099830247849,0.1705151896077705,0.20831265639719396,1.0608898980193309
0.011375114562043508,-0.16936842045709818,0.007842426459696912,0.0019482141307176817,0.09399983785038948,0.14859085624953744,0.1989963460012105,1.0479793244808897
0.04184926956892609,-0.15867554274625886,0.05417072516801561,0.060157847306742625,0.1534849135373102,0.24005336299599486,0.27801346956638306,1.1113884732254293
0.03241714037832779,-0.15881754745964352,0.046435939209532255,0.04829081230859646,0.15060802407630206,0.25180095476223446,0.294846842631105,1.1921115394143753
0.024165628630360068,-0.1343842079319104,0.0327590193999954,0.024005141047158732,0.15803300567975273,0.23823027640266628,0.2877995058880984,1.1803357335292233
0.03889581752944351,-0.17320900979861903,0.025103509749786795,0.02676715670273238,0.1673894274894095,0.24927983597588385,0.29222619502523967,1.1322461773819297
0.05498590632144128,-0.15340271123261454,0.060761994137573064,0.06396437923958453,0.21849811264555283,0.31571898077578237,0.3792741329965617,1.1356865942750385
0.04765425158694687,-0.13431150408686263,0.03918773177301174,0.04393700204410572,0.19864228910372372,0.3083406239994633,0.3658311552467159,1.1546079854268714
0.044252110296387245,-0.14072802401211476,0.029162443881497174,0.030106895482810245,0.18507190729620596,0.291315222068771,0.3320717292354747,1.1288892009977332
0.05109670589574678,-0.13263544996785995,0.04223219197672071,0.052860048062985,0.21051092057297532,0.3236113455423128,0.3892766716785428,1.1643805540085612
0.05716427852792234,-0.11718543068525929,0.054488554019974766,0.07082566965054245,0.24702502836141074,0.3692040708158329,0.4368848845511261,1.1631736047772252
0.05545549576579582,-0.11648437038356578,0.053284079969480064,0.049567243910352825,0.2280452355157977,0.34748136335149704,0.39506659048869547,1.158984704138255
0.04009797274215,-0.14260594108537814,0.04274993239093706,0.04732398336022586,0.20293327538492612,0.33593569714500965,0.40025462110537846,1.1797015596979252
0.05487704493849317,-0.10978663319301636,0.05852146785143849,0.07082251264211639,0.2516158394744122,0.39079619760040696,0.4574607630772435,1.2193749491641057
0.04395145656592952,-0.11518039527000772,0.06184444265217955,0.06658748413809888,0.2564617883292464,0.39478294844596373,0.46693161897361873,1.2004200271988426
0.043001605896328926,-0.13703784484050435,0.050766532199252826,0.04383081415732557,0.2388815830946885,0.3847190196342825,0.45818069355445634,1.1545508749790558
0.043443907137904095,-0.13607495796400976,0.042536812780024795,0.04710981908504326,0.23145850764633535,0.3679230312437332,0.4322564121968966,1.215896011436548
0.054746746112538845,-0.13860527294546676,0.0688246173965306,0.0759018758460711,0.2820241105257653,0.43597894721663377,0.5294556501978503,1.1686625985569528
0.05313507392301865,-0.12246680605044914,0.06160514799544233,0.07600066576976816,0.2728067261529397,0.44563096697484006,0.5131355774573476,1.2064722855815313
0.05088996248871243,-0.12912507900722184,0.04706256535425054,0.04437300030058442,0.2479499837813389,0.4154061818656458,0.4923031904128945,1.1995708052185992
0.048093524160083154,-0.13483284643649696,0.05336188047081355,0.051343122447362756,0.2588456254657243,0.4168378736867312,0.4989839600730635,1.2298555600382142
0.056117014502709936,-0.12710812698739601,0.0737496800462507,0.08261642223326741,0.3026579729328714,0.492921098101713,0.5634797780599624,1.255264203250979
0.051391199507603604,-0.12454498291095856,0.06436641238368852,0.06459178928590607,0.29236945626116184,0.46100046559324376,0.5521027947082204,1.2522321848855154
0.05088551638977316,-0.13204685520459603,0.0493314799454336,0.05140407605114404,0.269031307891749,0.4509035168727245,0.5279234563764541,1.2819621115418913
0.04234203349287053,-0.11288570877053206,0.04431340496879094,0.07049075384340737,0.27731724673480196,0.4435729234054696,0.5310271098382378,1.2668919630969224
0.045222066620008376,-0.0929778010671942,0.07201334478239621,0.10437354599327783,0.3321043586644764,0.4959790697125463,0.5811149408653055,1.323667896010614
0.050744319010041145,-0.11499645772579332,0.07275219054125176,0.07973819606499363,0.30890897983411914,0.47626408383368823,0.5647876353978897,1.2812587848111747
0.04471108364805642,-0.12356135157359957,0.06190711432341581,0.06082738246202509,0.2969164416143799,0.46206415925205996,0.5447007546004379,1.2843091888504155
0.048835852851898044,-0.11613733929874286,0.046653280977487145,0.06240675902146552,0.29295979335117933,0.45533650535586634,0.5312397272857888,1.2740628403059358
0.05794845522815613,-0.08653064401887303,0.07397895997134847,0.11366448528589419,0.3306723132422481,0.5166716671842626,0.5934089834285787,1.302858611813444
0.05055513138852675,-0.11383695587813858,0.07538843573482275,0.09368367330824615,0.33993616445939456,0.50140456883053,0.5928926121934397,1.2671518643996524
0.03381229667127254,-0.11037920901286748,0.06654204399448849,0.08296364034127975,0.33527664538225654,0.4867664698720214,0.5778227121169902,1.2698090897039414
0.04198334807110939,-0.1215224041726762,0.05871462541464865,0.07654109484885446,0.3100872014983499,0.4665718029651469,0.5486852819969404,1.2829610445891877
0.06213167384509484,-0.11573778543987845,0.09462804710029289,0.122176176457261,0.36121288954071495,0.5370729552381525,0.6296486441224981,1.2731832211369385
0.06557921381280359,-0.10989170141256063,0.08626570207179904,0.12298591896697951,0.36470863182021057,0.5267567576966624,0.6254570727039787,1.2999804388859064
0.058427636595313366,-0.11827300276678257,0.08198338151991441,0.1050195799717593,0.36326088041421334,0.5255860636529669,0.6020942304121905,1.270153765299812
0.04958683665653938,-0.11035460864671279,0.06643974723518746,0.0793804302511736,0.3450908145529599,0.48773148409522443,0.555892624415724,1.272189316800718
0.06753290397557742,-0.09175476170556657,0.11059720001957712,0.12679773816474554,0.3950866245488468,0.5496462240639617,0.6334460686028358,1.3448408742418678
0.08311211005482644,-0.10389371170749238,0.11261435874761318,0.13207901367561423,0.40911317499103367,0.5638614019478019,0.65885376409459,1.2994662084318944
0.0742734608846504,-0.11624407642837406,0.10347878661014626,0.13179588036499162,0.3980651819779213,0.5573608877153798,0.6499646034980301,1.3657543542436854
0.06927117454634205,-0.10541638402732988,0.09802988847996978,0.10113375178614722,0.36963026423466105,0.5272338801166104,0.5932250677451143,1.3232756627827105
0.06903980791172694,-0.08812717861945987,0.08334171605436944,0.10647474150457069,0.37485770096068743,0.5165811902343816,0.5911301167640226,1.3469225334519794
0.09311472412364365,-0.08188897309218138,0.13171372452726768,0.1489094015252085,0.4204009722716383,0.5895967677605357,0.6717236679828124,1.3622426928787594
0.09467266391807959,-0.07139910905827573,0.13752904386579884,0.144590199974562,0.4137857370630875,0.5797700055684087,0.6693385775845608,1.3779722309897986
0.09918694186114488,-0.08635542530755304,0.13312677596103317,0.16752012406295808,0.4193206552657212,0.5852136431059313,0.6842903315678249,1.292113647136089
0.0810481265946405,-0.09567659145393954,0.13222074008604093,0.14484916366529876,0.38228412339344675,0.5338613266000748,0.6260514981228251,1.2567331292075405
0.06609998572268258,-0.11816287503872627,0.10858364376003206,0.13519698988082607,0.33774617746700014,0.47918892104363814,0.5793808247217537,1.143978364968334
0.0904229903168576,-0.08102920882079044,0.15094145002668585,0.1912826460889679,0.40586214016882766,0.5470376049124782,0.6533861127150317,1.1359111754317197
0.09940198831620553,-0.10684462795055101,0.15554566993875793,0.1890138979164582,0.39827568738129454,0.5483182409638162,0.6323095518082644,1.1454699088997866
0.0991448594368389,-0.10859551308280506,0.13633126110242944,0.1746515787730771,0.37731180376827506,0.5211464711476413,0.6056120143223599,1.127278805785194
0.08713733934232536,-0.12423553062965279,0.12461256833069279,0.15525198255896241,0.3496908161438516,0.48185562671533133,0.5668753402043568,1.1123985220202421
0.06288596960391783,-0.14004726270389142,0.10297735577180377,0.12663681037869293,0.32405076749855954,0.4308090782605697,0.5151239652585688,1.034385266848629
0.08724878493718635,-0.10751447593531542,0.12540652617424466,0.15157491471120949,0.355216956740499,0.49328443044157216,0.5853528234650983,1.101195254421768
0.0845309871869597,-0.1105274452161212,0.10871252772164666,0.14590900739503035,0.3563329101167783,0.48458045848111064,0.5639579200531605,1.0721698286283536
0.08250268192396794,-0.12011751182526874,0.10218558840442414,0.1315792634892088,0.33798803130731264,0.47440595912472333,0.5588211570413367,1.1427669006486003
0.07158165753307193,-0.13769756672044337,0.08287795316831369,0.0980599468574953,0.33036774593673973,0.43281366125806076,0.5139812557593763,1.1203418105114706
0.07016468131850134,-0.10002421733565219,0.08524842034821048,0.11803276161772194,0.3316862370042568,0.451663031277507,0.5246828028022053,1.1516140978804734
0.0905167120593329,-0.10462459365075231,0.11005125378087761,0.15216107279466062,0.3609036785659483,0.4957177968916709,0.5675317367495797,1.2074436162383437
0.0889508669190328,-0.12679655766517506,0.10730555119570588,0.13603513372644324,0.34585985709697187,0.4845857324874568,0.5666707437643851,1.1845182830128267
0.08193057785809747,-0.12039058680498761,0.10114448120806308,0.11886921316711647,0.3209074640146008,0.4619308846966795,0.5452605384930905,1.2026078728621923
0.08140396981973401,-0.1258322779109421,0.10626279170288405,0.1182004489169001,0.3372120040771249,0.4524947388827026,0.5415542458979915,1.2235700699122
0.09967854687982618,-0.0948275650129748,0.12121174499032342,0.1631426142590711,0.36969764648044245,0.5199111691374582,0.6114922105984677,1.2448570141299249
0.09943959854097001,-0.09719375666815576,0.12210360034982926,0.14773280132166253,0.3613976244018927,0.5080558723534958,0.5975094253545432,1.2151958717492095
0.0920511234906062,-0.1063467105190253,0.1090325938720334,0.12852549674084146,0.34051901417969893,0.483936037502307,0.5802876643908361,1.2222039918531165
0.08413645089103164,-0.11499300344063328,0.09651872840186872,0.11135814425628715,0.33952971087524675,0.45653329776344304,0.5510471006652202,1.2752287561381004
0.09197012683959137,-0.12701872868930938,0.12649890022592256,0.14966981019698328,0.37425832609823206,0.5193966860388874,0.6190895948593101,1.2250876706371758
0.1074303949571821,-0.12079363363526181,0.13208854899187972,0.15409013489212808,0.3844773498124481,0.5398209334578473,0.6361489892297832,1.2087361356521487
0.09261807388384342,-0.1364769655587972,0.12103886293546323,0.14925115653854157,0.37793507895926964,0.5202514474086356,0.6246928053418925,1.24734043302883
0.08824659908208907,-0.11094509919487064,0.10067083164187574,0.12624549098641866,0.3381794049371305,0.4740757286688891,0.5843109050516515,1.2410128549191417
0.10438999278725755,-0.12098681413179993,0.10962138564295407,0.14237834151159717,0.3733491014135802,0.5192773712592131,0.6257336577205027,1.213769161892281
0.10390812169593595,-0.11110215893162917,0.1271065718674874,0.15678527662017464,0.38967254177992666,0.5512064326646076,0.6448771556834785,1.2765605920691296
0.11517563494062696,-0.1324392881907543,0.12854395891561107,0.1459104806154592,0.3852091544234699,0.5372998224995916,0.6402866709710145,1.3000844966586398
0.08335957689078657,-0.10192159447599176,0.09918080681670545,0.12994746912513427,0.3739379348203901,0.5301390320491123,0.6147305938830161,1.285829351709284
0.09026207014239115,-0.12636332232988234,0.10343036224421699,0.1236844234845574,0.3552165072199676,0.5182699046363293,0.6160624803025452,1.2570954302165105
0.1148891663698356,-0.10345410159108161,0.1355888436907037,0.1589055413576571,0.40119614241438895,0.5778071200529796,0.6673330311656631,1.3257270938739976
0.10797925097471142,-0.10141616855234126,0.1354541976467839,0.15471832535463786,0.4185269898276126,0.5691712688427906,0.6615500780450049,1.3432586410778622
0.10429682808704922,-0.11158038750612213,0.11878687107896288,0.13883265403616574,0.3846398879181988,0.5586125918070148,0.6523484411872655,1.3310108503990903
0.07885414018976307,-0.11924956028034987,0.09710278009244852,0.11619914655824276,0.3687756111712165,0.5205820983502344,0.6136937705950244,1.331323942458003
0.08698463602426199,-0.10876336667781673,0.10829541590429347,0.13672984674669122,0.37290535189326435,0.5326574197576686,0.6302550943710933,1.3169925168399181
0.11551800364276875,-0.0916918310195861,0.12895253170965587,0.15189666301277124,0.41634425210199993,0.5883945246156821,0.6793052485646157,1.358804946969084
0.11110313749985659,-0.11455658700218377,0.12770104369741134,0.146782640401478,0.4060341349037374,0.5694615650655117,0.6728793973945894,1.329509774730777
0.09978569669141092,-0.11373995755822823,0.10611428926877928,0.11984697187205565,0.39307701230655384,0.5446421632736518,0.6456191427597929,1.3460021124942458
0.07296346703027973,-0.1382402872728855,0.07364477174272249,0.09098531030203251,0.3559813035100118,0.5073546609939072,0.6064564613062337,1.3618127324075793
0.05385395642631648,-0.13229050983483143,0.07058974632201452,0.07085889849666872,0.3339746891352012,0.480480382255832,0.5641326939295628,1.3079059166238576
0.08772720953364496,-0.1252330276882617,0.09220921974556623,0.11772593429514171,0.3824093031002027,0.532570400026011,0.6350637466675133,1.3165453741720219
0.08244040805773259,-0.1578964248511804,0.08789057876057846,0.11090013466266858,0.3808389138467457,0.5165516901559184,0.6231431194499875,1.298683769206155
0.0708047486924412,-0.16223005586726477,0.07397426538862434,0.0938158425808694,0.36510885980365243,0.52179047411817,0.6195275738015074,1.3087916731488993
0.06363299341109781,-0.20119876688644844,0.05508951607561098,0.057729426433241623,0.3522884593457208,0.4903086422068014,0.5622077337878675,1.3163424174087561
0.04975387553035574,-0.20215781929195403,0.047610017848204664,0.05052527775896323,0.34396047043582106,0.48470153113703324,0.5560648839492293,1.352784363427483
0.07249937836176268,-0.17285270674295025,0.06878903348634438,0.09412550081347767,0.3793644205140484,0.5227424794306347,0.6126686048693193,1.4056781408695092
0.06879937353319242,-0.19304893383792526,0.068939386159868,0.07412947596364831,0.38185541122541483,0.5264064302489151,0.6070272789271146,1.4544650381376218
0.06363060558962093,-0.17941681574554805,0.04967426066066703,0.07132452932939955,0.37203822228055444,0.502576937313638,0.6013897732008132,1.4436992499763404
0.04515175082000887,-0.19834921486556598,0.028944420668537685,0.04794642105265862,0.3256220356805902,0.4562771440968067,0.560287522490703,1.471806064811
0.063009327660219,-0.18451316795908917,0.04748142223201764,0.06084488356768539,0.363243605559681,0.5002451138862064,0.584519572378356,1.517748206624029
0.0771145149447607,-0.20178149544984106,0.06863579852402506,0.08468400658093231,0.39442190684298234,0.5138178438392577,0.6182050703149963,1.559468397050106
0.07175476375634429,-0.23158893641768577,0.05620451414491379,0.07335888421545964,0.37448978065025584,0.5117558809443028,0.5965917555145827,1.5620240304414617
0.05269577367841444,-0.24155587701008932,0.040306705036105145,0.05591610703199675,0.35416290174686227,0.49029441420333897,0.5799741063891241,1.6168726772362132
0.0346389105785551,-0.21154799960047094,0.007014469170345963,0.013456539893134603,0.3338771932660319,0.44803706152009365,0.524381126086377,1.586669277132469
0.06214897280334372,-0.22353589423879436,0.04116870750377504,0.05359901505742472,0.35994550415386867,0.4817256669359903,0.5766852146392512,1.6192252750659277
0.05689650142294915,-0.21337438780461634,0.03901974697853857,0.0619750649348374,0.38187877949393045,0.5130709321065785,0.5904887818570465,1.6735220435518852
0.0636616660060225,-0.2383746913381367,0.044150028283357526,0.07128091030417544,0.36483522982828753,0.49767333535920855,0.6058958338926956,1.6490580411364362
0.048035537120683015,-0.24444960250310147,0.03633554638030399,0.03983400664328902,0.37047697515611855,0.4746973960600091,0.5684020120707918,1.644045539948447
0.047671078520511695,-0.28062319691627957,0.018474937356782208,0.021507429931781164,0.3427260003329374,0.4492381679631127,0.5434138539531884,1.6344971045262675
0.06281661223909811,-0.2082647160931061,0.042733404187846304,0.06953417379759086,0.38899094091759556,0.5016674085222972,0.6087791919734239,1.6280564387515712
0.053179837436076065,-0.20353745269100315,0.0423567346600095,0.05779699351598903,0.38865853635279657,0.5219344978269443,0.6156931081384039,1.632076182799888
0.048721350776044225,-0.2650097890498937,0.036470557207859106,0.05735494747488826,0.3868373074561791,0.5073824953104538,0.5938709666506107,1.6573622919350317
0.04342045953641698,-0.26645400062917257,0.025482921022017282,0.02379248364063612,0.3554464218074174,0.473822312281846,0.5687078939226445,1.6102818353392392
0.049254496156481635,-0.25743207208371793,0.024433906974967997,0.02970493604667127,0.36155526966822515,0.4746672141882806,0.5777777250908361,1.6078705810774168
0.05135130248055901,-0.2503623285175665,0.05888035983824227,0.058224577708578654,0.4040690305374871,0.541018367118933,0.6391980584942113,1.6246095825348947
0.06024822094017254,-0.28322421802377806,0.048939299325041,0.06242561040535439,0.394608772868255,0.5155101953364626,0.6319992644408688,1.604052048522081
0.04705405206479026,-0.2559922259630523,0.04948936014548524,0.051816473631623165,0.4001720689261949,0.5113564636596153,0.6078233978304903,1.61524025415665
0.03784629709568595,-0.23365917980458237,0.013827741005314458,0.01906152966134694,0.3626109236463009,0.4702566535315209,0.5743511774016425,1.6371210189839642
0.034343400409989386,-0.22917219188426177,0.018177681113232303,0.030384408179336082,0.35837031207606446,0.4743747760922783,0.5864364495862422,1.665703329358613
0.05644130592457113,-0.25352045606541423,0.04708303939795134,0.06036663227830669,0.40825916301310167,0.533775935899388,0.6365531749296984,1.6268060841434262
0.052194166809609366,-0.2384767133566908,0.039342212170125006,0.044185802519383005,0.41240727624662576,0.5341037791340084,0.6363523479250985,1.6589678967136878
0.0418492515331499,-0.25006361388227266,0.0222477853898609,0.03420098339266798,0.3812522555714468,0.5186499804520378,0.6240863789749406,1.6589097183821973
0.027387933427758516,-0.2704169080539541,-9.117227728201704E-4,0.003193977442839231,0.3628439135766285,0.4794641355977945,0.5897647320797481,1.6695561673015533
0.0137618590468135,-0.2802461897972204,-0.0025293010059746217,-4.1213779687975687E-4,0.34104221387038974,0.45019165875864026,0.5455502480031378,1.634951354343378
0.028784987857400694,-0.26891544520539595,0.026848788557312375,0.042807145118627356,0.39030475765963113,0.514608684017428,0.6209441261233445,1.6320185469868018
0.02738050655709295,-0.2540264628649779,0.015763793105656523,0.03502193449187295,0.3796787881406639,0.5155508136660752,0.6088023135674492,1.7087842917773668
0.02860840139230053,-0.2758517264923004,0.01129431731300526,0.027387899110710368,0.3692965929631562,0.5092875922706459,0.5967862504371017,1.662994451673479
0.013151207698265673,-0.25174414780419807,-0.003318015096802315,-0.005619799067055009,0.35359424449799653,0.4635073568549623,0.5539235982966878,1.641582347967826
0.004572669681139539,-0.2725614542593434,-0.02475045301145152,-0.01853837931728303,0.3144709418473158,0.4280317217780167,0.5445687770141288,1.666335640817144
0.02659209361007614,-0.2886520746458086,0.019437053968023754,0.019044978924018238,0.3558238521625793,0.49781702147062895,0.5886420317013742,1.6671149489473984
0.018396624181838586,-0.2807505226818706,0.011930355240702137,0.031598606469604745,0.36122618954361585,0.49275040833170325,0.5869779849416726,1.6410540636286375
0.015532913617924998,-0.27751787843307163,0.011119203127682654,0.01260884419472314,0.3628421039637134,0.4525253625023259,0.5813593200303017,1.6208359376872359
0.0047351160791844725,-0.28442381220455254,-0.024006960687456367,-0.020498937561503287,0.32103478039299466,0.4380187129207777,0.5390743747391802,1.5975616217467064
-0.0020149799497763345,-0.2745791746145135,-0.031199879614575435,-0.02823018204779964,0.2890068118757074,0.39377056869762916,0.48489210460046933,1.5892199491940022
0.021469991862440356,-0.22424001214930323,0.03065811430374195,0.05124203205558841,0.3005378210038579,0.43526307365932587,0.5248753851256698,1.5619624506032137
0.03176478092434677,-0.23118767219675015,0.05291816092249574,0.07070012002685214,0.2987962207801947,0.44458605071087526,0.5215115905207389,1.4299577833213362
0.0327782294859257,-0.23402439010901965,0.06099314759271031,0.09633533528714462,0.30119022737448536,0.42485812664049355,0.5055276110251562,1.3879935626788924
0.0322811631294386,-0.2121265550912359,0.04349318239817098,0.0774599731417679,0.26124382949479485,0.3937518729110302,0.46868808243345433,1.3282721845551495
0.0040122532651434865,-0.2537081220993247,0.014394269709671082,0.02945385880865321,0.2359348158859954,0.33314522574448363,0.4257051258158623,1.3159651052518209
0.0033793238126247818,-0.22631478452398257,0.021875604931320805,0.03510084565913168,0.252692079315198,0.3526675517164985,0.4440656779680112,1.3585725123813448
0.021237487997048964,-0.23484643510860112,0.031908129584088,0.05924979174627697,0.28500973615746084,0.3885864604471571,0.4811133577019094,1.3409862107618917
0.012220689443174483,-0.2104704825004719,0.004668806215221074,0.019356669560637658,0.2753881541033436,0.37758886119196033,0.4566010242224305,1.3298505932168276
-0.001794899253222341,-0.17641139608886577,9.918472882660468E-4,-7.156024352553226E-4,0.24340080368598385,0.3618456926842756,0.448084122693494,1.2180701850786084
2.888025539090386E-4,-0.1448032000256073,-0.015234274720239492,-0.017972618138425097,0.19667859510467336,0.29829454416965223,0.37748941250183504,1.109615869128182
0.009800826643775462,-0.05399611938984474,0.0014344944471659953,-0.0028349177915992754,0.20662935756757858,0.3095754457526567,0.39450114185272006,0.9055186737862119
0.02481208761094984,0.10086863926064567,0.041072009995789784,0.03519773442988186,0.21955953081972773,0.3340499439138171,0.4161407061910209,0.7288825144497939
0.035827749912863374,0.2953142952605836,0.08733120627830016,0.09283170455759741,0.19688534432731025,0.3229606432287483,0.3956349290749208,0.34834720198888425
0.037677904813177274,0.5808856830602085,0.10298257271875788,0.10626276134764567,0.18269233320846395,0.3261464151497672,0.38380754002640954,0.009570156823206569
0.025082319724598023,0.8968448256442575,0.11020847372321513,0.08256077309921715,0.14306587610968144,0.26552531305477267,0.3448167306921179,-0.18743831499938496
0.04148848648102871,1.1509310801333008,0.167604311109755,0.13086278021123704,0.1574258109082585,0.30155654333716997,0.3844878774078542,-0.2751662768914062
0.06731841677161192,1.2744472884744589,0.17563179531146686,0.13766795639129578,0.1745431790284385,0.31735649163128754,0.37548193860170676,-0.2639260214862616
0.06534679364715422,1.3583369036586148,0.17301888482323463,0.1318129861765046,0.19002687903404578,0.2838889964648208,0.35259259604557674,-0.15146817554578562
0.07046578315799432,1.4002192043522588,0.17818027779339127,0.11476368150347743,0.1780037560872427,0.24826640732674812,0.3111600370421473,-0.1276792051334981
0.07465392174721748,1.4413507921678783,0.18710711142204448,0.1252494531310118,0.16873020425464283,0.247671593403355,0.299741768595492,0.022199217012204685
0.1047392575814072,1.4739413005554365,0.23532162890645247,0.1958436106405699,0.22447804215994419,0.3122145372895665,0.3691860446759219,0.15621594641941275
0.10092999397628565,1.5009066803797093,0.24050244450467836,0.19193740079382077,0.2539601370960534,0.3066061171819699,0.3822804308765106,0.48354222029383553
0.11395071365955213,1.5389242201328739,0.24043976229893124,0.2019881720378175,0.2740117738840094,0.3336543289123084,0.3748686608936844,0.7903812340091966
0.12168652156887708,1.5291881329997317,0.2609682608795199,0.2176442013396978,0.31367606986076585,0.3344028152332289,0.38609075357572853,0.9015709470877981
0.1432696507687658,1.539589913661274,0.3079004385051038,0.297602800161149,0.36206973678674637,0.4192495912093296,0.47476894897000077,1.0896246311963238
0.16749554108122974,1.5755080706531266,0.3394320852428454,0.33480812899387286,0.4188349230763845,0.45794417723025316,0.5334490970941014,1.2943599430355264
0.18011218513486318,1.5796486062976265,0.3487750545493507,0.34793688073393036,0.45052756261131577,0.49288565229518017,0.5640750540877657,1.3155076184050334
0.179354807130232,1.5533585117757192,0.3540620170065499,0.3457510926573427,0.4095600092221823,0.4735472589245154,0.5480037532447206,1.091741349997948
0.18374226147800365,1.5366882325327356,0.36255645253201707,0.3869659317812886,0.3693038086011289,0.4782493663499989,0.5568887926172646,0.5648705259546271
0.19535339683952907,1.4770616722026724,0.3979500283733071,0.4448375510104469,0.340432822198812,0.5025256358217408,0.6013467250538667,-0.0465276123402984
0.18645919236436315,1.4502190712815592,0.39374258358919095,0.4457670916916368,0.2949338929214439,0.4617597487011885,0.5224701018107957,-0.40849791109399863
0.1892981549663708,1.3689350884947054,0.36762265220952567,0.41882300950038426,0.23838282854267365,0.4503901981104342,0.501294123685367,-0.6739785591082643
0.16160044404035986,1.0829264309405198,0.30519327395303614,0.33420248290867816,0.1752849478225567,0.4053257913121956,0.46435296453882313,-1.045267910278945
0.11444051499550706,0.6146709525313795,0.1832141003981547,0.18422673040872273,0.10272506440051125,0.3193588021322148,0.374766131778475,-0.8137418380496222
0.09969995426950207,0.27947475570594,0.1556418995009017,0.181063093435378,0.17731185095872562,0.3942097427051067,0.45495255809796625,-0.3987107253346109
0.0663351846090445,0.08323515048472359,0.10962206008905766,0.1570329658700791,0.22047974756101482,0.39437408652692385,0.44750560590877747,-0.1191324909540627
0.06931050723565567,-0.05374390126980077,0.0829277407992404,0.10118533735949545,0.19975140360685653,0.36828886245853054,0.42658729564870485,0.10794256341794863
0.024756192303802247,-0.2153830332721589,0.03943509717715364,0.06911653363097468,0.17074693762493698,0.32045646970196223,0.38012788615961424,0.1726328737777444
0.011039036251566414,-0.2789438830996363,-0.001075689851146909,0.029454442874318008,0.09315848642233847,0.2546078025014085,0.3223662724086411,0.024915000685576387
0.013529140339282852,-0.3409885367158317,0.011597480085993822,0.04103664613041955,0.10519876924092937,0.25564541303747684,0.32298045992012053,-0.05424066667442377
0.009065383339766513,-0.33716568798582247,0.019398485466355444,0.048465383824386934,0.15015680083422445,0.30918303730970126,0.35859415270257183,0.023874147289209186
-0.004557622063941459,-0.3117256904693763,-0.025407097214445583,0.0023214371523012957,0.1385837335475566,0.26894561897894803,0.3212308911372067,0.19426602490647316
-0.022453612539048852,-0.31866523246793305,-0.04541979195266548,-0.020947112977010175,0.11537482109166652,0.2436311204078594,0.3089353418506222,0.33469772169864614
-0.04854575812659468,-0.3283535720074354,-0.07810038356215421,-0.07094340073558739,0.09631513806399442,0.19581484373111935,0.24694056114597415,0.3861336110735595
-0.0397731127981832,-0.3434987398399632,-0.08276804295268238,-0.0609469305869426,0.08328766271577577,0.19036948196867481,0.2442037589989777,0.48187928210240394
-0.03482355882450169,-0.30980910505247994,-0.056398727023656225,-0.031930020401619456,0.13093662767773603,0.24921806454030726,0.3244846282198309,0.5453246307785328
-0.04442839684272082,-0.2869822201347722,-0.07012886921753698,-0.06413080605102202,0.11320147179014618,0.21992440946664613,0.2590544224679853,0.5412980017880017
-0.04486818536992577,-0.3216892677535588,-0.08342274764496017,-0.08850254263488973,0.10090727932175374,0.201045848264833,0.26439418862956793,0.4275080283547872
-0.05440400218766518,-0.3146505393022305,-0.09998046370266485,-0.10518283733576457,0.06435357827024361,0.1521383659514921,0.20105139298223057,0.3583646932684642
-0.045082674218571595,-0.2595803192374931,-0.07775772942050557,-0.06427332647904291,0.10715995822219639,0.21428440836840554,0.2785416222071035,0.3190406369419813
-0.04624491573318539,-0.2635766583352506,-0.05536076972457896,-0.0463252367856525,0.07165311374397548,0.18434349500312802,0.2468824310426949,0.27671684321188533
-0.04774610064688159,-0.23816994796917507,-0.06233404377281358,-0.04314645171326962,0.043000366039669426,0.13479287764170103,0.19872244553808766,0.2993482227558199
-0.080410573501311,-0.26705054971768327,-0.08607316304370294,-0.07443557892661842,0.034831929784842335,0.09623671367721369,0.1578022651590927,0.35163926326066103
-0.06619740961373205,-0.25659075518953856,-0.07745605147194153,-0.057673005643291315,0.054761466939110263,0.12851009411638412,0.19528875160435696,0.3733642144465957
-0.061818597019467,-0.23650346742629597,-0.060786858517253094,-0.044723732151207854,0.0985115734804547,0.1683445712018452,0.23767902008859448,0.4505464583103613
-0.05977470511366029,-0.2510118273089831,-0.08198890035688357,-0.0725112503076815,0.07222001100327809,0.14590075728120067,0.20281836432311806,0.45604525030899806
-0.06557802025664329,-0.23730261962797972,-0.1019240718407736,-0.10185056573708337,0.07272643645154295,0.11300726877173858,0.16495203351551704,0.42825632848093614
-0.07347338139410105,-0.25003262337677923,-0.10269387238517985,-0.11162185396217107,0.04988300090472844,0.1065317864276268,0.15544379771631578,0.463608275582621
-0.0714049720640967,-0.25579449531098064,-0.08410833062318714,-0.08099782301417267,0.10898176033721377,0.18580657184762178,0.23628699975398743,0.4633405341066358
-0.06947235121338419,-0.23052463236176285,-0.10106492080990093,-0.09958901789020645,0.08137600068124028,0.1402132164324622,0.18733367822376887,0.48542239055402037
-0.0765225361955036,-0.2513559901667908,-0.10751071704056173,-0.10032158459247768,0.05263324678905141,0.11823848373908798,0.1789107580067827,0.4528064623294654
-0.07674085255746271,-0.24707612395576928,-0.12003152858699184,-0.1255835745592427,0.04394433370355746,0.09170712072011226,0.1419985100966218,0.46754432096945464
-0.06301628589242894,-0.2460153832116933,-0.0805742504684255,-0.07016877607834218,0.11147121400395826,0.18149941057047989,0.23593087803407245,0.4298818113537979
-0.051549741427675745,-0.24149447741398788,-0.05693672118271286,-0.030040877909279878,0.09584709655414454,0.16918729426397117,0.22221598640150347,0.5017968926486442
-0.061888504084907744,-0.2189847559818578,-0.06956993537686894,-0.05322639101009457,0.0907155757950304,0.13169050834321863,0.19755940823217458,0.5706066120924113
-0.06323173951226199,-0.21006264838736188,-0.06415905938913848,-0.05140009153312677,0.050604250980094224,0.1101446236165934,0.15996047627601004,0.6498993527953761
-0.03145318496850113,-0.1828302925003987,-0.020670461956499225,0.003353097938586492,0.12653582960098833,0.18578813657106244,0.23473010313170922,0.5497360143500362
-0.029230074492973965,-0.1735422230920958,-0.03946722905625617,-0.0012640594880022182,0.10482874998058869,0.1605068001938146,0.21348619995198295,0.46352340899338995
-0.03816082894535838,-0.17723374196341304,-0.037854110228303116,-0.017868619207294663,0.080910342461311,0.12940128446967566,0.1738486586661829,0.38602750520016166
-0.044928612948001795,-0.1719712616486072,-0.05154412149504071,-0.04391126528211908,0.036503691910207595,0.09050377450749947,0.13135671824688433,0.3375342192242525
-0.023913571835035032,-0.1626262452196724,-0.024718716163263117,0.010803292339745085,0.10070763166367412,0.1545240576233147,0.2061284220192464,0.3921910235343596
-0.01973748431906151,-0.17691652592982565,-0.026074671431176283,0.00886190555958525,0.11611209724832684,0.1657381690124561,0.23447644382821525,0.4107457817262496
-0.025302456872392996,-0.1679814731459323,-0.023268698266013934,0.01111361719878686,0.09329930521974583,0.15234457353890007,0.2025421854195336,0.41156753731601753
-0.03271058896033944,-0.17188047158883477,-0.03901690762210846,-0.01290003378618054,0.07607677529848432,0.12301690230714887,0.17684151899093437,0.42070600197238284
-0.0134466914466162,-0.16609335978598802,-0.019068790381693075,0.01056709595627588,0.11044568993374189,0.16639536935017676,0.20731537084374663,0.3685187264178351
-0.015535271150021707,-0.16010874114560572,-0.011950068279122306,0.03751715328963964,0.1405278207954524,0.20060119207035515,0.25160009714677034,0.44563120326124966
-0.013204730202929576,-0.18464921789824199,-0.02868053863808614,0.012386198168710519,0.12279510214869394,0.17971286217076463,0.22667128279981044,0.46881382753557216
-0.02162407202451213,-0.1670662684171126,-0.02852686319055714,-0.018696354469832508,0.08314223576038468,0.17803705628197822,0.2158578065536682,0.41682592913492666
-0.005157663817789232,-0.1754661097972547,-0.030874553550389896,0.015507410333011343,0.12577151013285792,0.1954877373494278,0.24639291267703628,0.4484270251002441
-0.004065763287409337,-0.17420325036152484,-0.0034506093742391066,0.04132022241825134,0.15602928747856412,0.2479878255370613,0.2846880332719463,0.5077725258862539
0.004361320994603279,-0.17420618840547786,-0.023118239073142432,0.01895621160087117,0.14590547906338944,0.23038798165905844,0.2830248098242162,0.5130102635846631
-0.006294808948026413,-0.16524183205782272,-0.029933666605174502,-0.010739018644510025,0.12241366410772637,0.20342611314143091,0.2574554137041126,0.5315026322233134
-0.0030657241534749907,-0.17988354109465085,-0.022755971572584813,5.669724666094925E-4,0.13678414820065016,0.2343468193782123,0.2845003494517431,0.5763915682080747
0.012704119816418228,-0.1879000671871893,-0.009414887599756623,0.01067754089266588,0.1811972600410268,0.2853725813585238,0.33758590830549534,0.5867415541481937
0.010597038688057258,-0.18243721517009368,-0.017088349330397358,0.0013761984913665262,0.17439296975187987,0.281588358004601,0.34200234258608053,0.5779298697780946
0.00965332876331401,-0.20897086939359066,-0.022413059241755247,0.0018310975570248644,0.16394070835015256,0.27255845290241065,0.3293140854455003,0.5312228533268767
0.01800458963230264,-0.21005498244672077,-0.017762245530181676,0.009228055081000937,0.16328891063528306,0.2984335213006075,0.34447711292366573,0.47883579649940866
0.03846761187415347,-0.19780348531297473,0.016564035832157542,0.05387131569308178,0.21108962216002644,0.3531488185543761,0.408412535288984,0.5003067128895345
0.03367191362839483,-0.21831854106914497,0.010176270144161705,0.05499902393029087,0.21691478061659794,0.3389386520029261,0.4004560315675803,0.5265187848522924
0.04004791773391998,-0.2023841578052493,1.019135108970926E-4,0.026465230496522357,0.18636932632091102,0.34305235408123613,0.39247084571160046,0.5284360728665983
0.01292840963336726,-0.22691226652038213,0.007926424569097128,0.021264406763472885,0.1993138202040656,0.32266237078244253,0.39066159295713676,0.520279422645207
0.03667471446487232,-0.21114427852858014,0.03169052013085758,0.07228284736362822,0.2487125046198232,0.3877317157146544,0.4665459459838699,0.5005058206976247
0.035249290610401544,-0.20843209200365992,0.015471752766806417,0.052159165824441654,0.25052563576509795,0.38365983744009236,0.45819384371894256,0.5536920161734816
0.02093451083740311,-0.2056688259175238,0.004924085307462861,0.02777040765361883,0.2328519521695489,0.37234846524500137,0.4359353145957941,0.509799828487336
0.005178546026024579,-0.20197883398445482,-0.018628067954388827,0.004301573848618581,0.19472563282411873,0.33128401457334156,0.41046219274264895,0.4105441689964112
0.029268302872890818,-0.16986762849915524,0.0025710459828458283,0.056224986678859584,0.21409189928365743,0.3548062442147781,0.434053001131905,0.24676201026383948
0.031811699673916914,-0.1262328246324815,0.02600337567415486,0.06318067983498031,0.2154663927561743,0.36744798901773734,0.45798636082995214,0.23722019908893743
0.021821720671263752,-0.12276643361747258,0.01286504218671793,0.03977831301414281,0.19654120387792515,0.34993869512099024,0.4241589182638232,0.17493731774916707
0.016264350690994005,-0.15654350599259068,-0.0050335736158536835,0.02489253543028837,0.1778486956655031,0.3223332079000141,0.39617886701545957,0.19976315704698372
0.01587326328556241,-0.14675653184245308,6.0001386718709305E-5,0.03527139608989862,0.18956673287420808,0.3446298667512334,0.4141611748387869,0.20331660271722168
0.016374377803463014,-0.15066666330626066,0.007968575645530376,0.04677761388552707,0.23219233064860326,0.3740917206238125,0.44703130983232775,0.22674385208946818
0.0183266329856493,-0.19870632136336797,-0.01000593170388675,0.018945354759244463,0.2005553725635416,0.3579423408209278,0.4236256056675309,0.34641888382812197
-0.002837513869103988,-0.22388575385502218,-0.028370926179825232,-0.012697076067028561,0.18649473045586218,0.313402886060286,0.39621876777729503,0.3688984159127079
-0.01517755549250985,-0.19922779598768078,-0.05297980124665001,-0.03202380040230118,0.1602867982596998,0.293249698168416,0.36487737372945134,0.44057251088599864
-0.0034924431841772295,-0.19086721981897023,-0.02115210128382687,0.005326851769865067,0.18938881500321245,0.3455659064940768,0.39944235823887364,0.4843323690929067
-0.0010826927293054226,-0.1808103134663004,-0.03229049697231784,-0.011005284795439805,0.19907592593050843,0.3373814995547775,0.38658919640530115,0.4931248771613352
0.0017349685399354745,-0.19766150735665183,-0.02972651803412095,-0.021617458365010576,0.1866168168567686,0.31860594880813253,0.3747399426146226,0.4849597074192077
-0.01820842934518748,-0.2422791551892534,-0.05592602740992162,-0.057062469731043716,0.16878547667648652,0.28708726773100607,0.3431055004398789,0.396060717749032
-0.012623437158242058,-0.22773098266938177,-0.03652097089888012,-0.027046464494892477,0.1805532337835362,0.3045169458549414,0.3537974315199053,0.45173128139744023
-0.007940243804564906,-0.25034867513951287,-0.036959193570651874,-0.017764800106068897,0.19297512289669883,0.3145196716073719,0.38224424692410824,0.5271427468675022
5.674642795936946E-4,-0.21661923748304232,-0.04534131975686183,-0.030247107942537203,0.19860727969738812,0.30838984731114294,0.3499334401785988,0.5335140262740111
-0.02720330795724622,-0.22320689317677606,-0.0701988978836909,-0.05471298216100173,0.16438123134083907,0.26706677433233234,0.32402597625535245,0.45319951554643206
-0.032149521174599675,-0.24819038867551946,-0.07315456629210594,-0.0651269910435861,0.16237820960730978,0.25248079322764483,0.31160674560518314,0.464711476639417
-0.029378590833591435,-0.23126609700742906,-0.05135687643995723,-0.040208480120316935,0.196703237619344,0.3109419167914682,0.36718695097181936,0.5054725857826768
-0.01941679590704166,-0.30666796743116687,-0.05503710069198502,-0.0552464966440055,0.19614752168781027,0.3008848472284281,0.3482106540397529,0.5260390742766294
-0.027173480551346992,-0.28479149269454873,-0.08041075775681991,-0.06136836596426383,0.18581131445475202,0.2898968587370567,0.34371296739926677,0.5442751792210383
-0.029762891491245648,-0.2839101832059103,-0.09140927532596932,-0.07273200756298785,0.1782145392333604,0.2691876434578765,0.3118751027013039,0.5901120456719279
-0.020878056691074447,-0.30266932533327884,-0.05471148649657355,-0.04268069456448901,0.22501403702136152,0.3194085122519177,0.37045394014216304,0.6411472736358954
-0.0018154578175960012,-0.31499841740837925,-0.05312062703134263,-0.03696898553117118,0.21793940290398936,0.3254385169267786,0.3639324610937508,0.6681529375554837
-0.0038826413291936064,-0.3015366305014725,-0.05411669563387611,-0.026898875299414197,0.23854658082731384,0.30979297814559087,0.3670835300693746,0.6514093623893713
-0.019058549449573383,-0.3396186269353692,-0.07038350157473139,-0.05985772285403556,0.18889558711259719,0.28188764506165526,0.33936066477056526,0.6492498610311457
-0.014379626175901236,-0.33042697571670404,-0.04033074048080015,-0.025142103317103245,0.2358630071360397,0.338385454265669,0.3955800190777208,0.5923289103782053
0.011033352260459029,-0.3366778819985229,-0.01478065087016224,0.005056985472783164,0.23745498046979466,0.3785286902493564,0.4321338495715127,0.6622107000453462
0.012506441883948831,-0.332332817909082,-0.02730692970090317,0.0013991764395864473,0.2557142538135572,0.33819624872338766,0.4059341637473787,0.6209605563041517
0.010892168022552115,-0.35593495526742824,-0.041512356268397804,-0.00748403778552169,0.20886100286834258,0.3228037670531983,0.37776293150977674,0.6580974318244833
0.0047044321891554775,-0.34877491509801434,-0.03958578088046681,-0.021276016502315385,0.2041440480456374,0.30197138739077484,0.3692259206313134,0.6395941660441826
0.019534253281958767,-0.33456498765952575,-0.0146247323182503,0.029762654495864762,0.2552616436803715,0.37010607780346827,0.43182593788799795,0.6874767726879771
0.017507674816574673,-0.33289420278413195,-0.005567857521879346,0.025548792842506215,0.2435092232925106,0.3561138359979953,0.4239997910722534,0.6394271365382465
0.024137424987231242,-0.3291937687298362,-0.020234800430986393,0.013871683800462569,0.2417247657134979,0.3393289008951024,0.39769881733606516,0.6120130527703999
0.005343593054255708,-0.3419028773357124,-0.03803075878457682,-0.01051568199916178,0.1971340385559966,0.28952496488779855,0.3705216142313635,0.5196211742782331
0.011124035288271869,-0.34126882742133513,-0.026114084415616603,0.011011292289523513,0.2167610852177752,0.3206266701254339,0.38154571618123106,0.4237555966240773
0.01265146213822818,-0.37731178783233893,-0.028343281882954263,0.009593784240731885,0.2032992787304562,0.3159842680620131,0.38521860975899497,0.35702047371015583
0.005660694382243797,-0.37742671449863197,-0.028224347606368095,0.004787697604946307,0.17768137897536723,0.30534378797136785,0.36563539137800616,0.2849155073034899
0.001946763671951376,-0.3958154565500625,-0.038777652116769645,-0.01689036676091837,0.1749650809699608,0.2774262653206348,0.3501085576127974,0.299891234001891
-0.006759196080386117,-0.3745859932477593,-0.04227251343875645,-0.02517211098388611,0.18250516163712985,0.2662481213834804,0.33499556125740654,0.3242512745681287
-0.001005633316836073,-0.35794290780027926,-0.02480224119645964,0.005575401988251157,0.19878288035937228,0.32576976818892844,0.3914215354816761,0.3574277973766659
0.0025695003383531573,-0.3918365552162285,-0.03311013799271693,0.004735735475607056,0.18887477325447435,0.30614343630253615,0.3726852768963382,0.33171140287887874
-0.007593212114261479,-0.37180428000496774,-0.03252502796045399,-0.014048507835422396,0.17820147356895513,0.2874743426146454,0.3404693544361467,0.24362205625175012
-0.0018909351912169998,-0.3623443049814354,-0.04184325642382029,-0.020330173683216175,0.15184628949808415,0.2756554302876416,0.3439475529506481,0.21845857753170078
-0.0023478466914972577,-0.36220892719633146,-0.020359571985582452,0.002152102358518687,0.18317533667003247,0.3235317685941415,0.3930399948743509,0.2520461341293141
-0.0039788409955055564,-0.3361054186464157,-0.036910436332279216,-0.009368894937065324,0.18474342483276918,0.29915290659535726,0.3710052736142472,0.2963088130115164
-0.008254707762639878,-0.3288389738081646,-0.04120034656835757,-0.018526377684675202,0.16111022602654584,0.29059302178379776,0.36235845508215825,0.30807944667692666
-0.014373011590811023,-0.3620630404226031,-0.04960666280885449,-0.036166745914001264,0.15206961242344888,0.26967463834912003,0.3344694322287798,0.251403014265285
-0.0037135442322823384,-0.3662662280538684,-0.015204380846582053,0.008640335123179348,0.18178494764650427,0.32924950166566813,0.3940626077037485,0.25010567519919824
0.0013589022003384391,-0.35238087524714623,-0.017176072367358762,0.0066207850245035725,0.1884203860843971,0.3203828153445559,0.3841056491629625,0.2527497557349415
-0.013222884924733981,-0.3281154653750019,-0.03548873496526978,-0.008149350116537396,0.18700343372689762,0.3043681536760188,0.3692098797897737,0.30967749821302704
-0.026888523071172895,-0.32604600665355704,-0.05330048919446479,-0.02984264515288099,0.16391610294128997,0.2732882139308846,0.35199353021994306,0.3867579271811779
9.05329159496812E-4,-0.3094387905703825,-0.027145730393456403,0.023922247668462,0.20480926714655198,0.33571207634620936,0.41769810636557947,0.43340913934196357
-3.1622506738448894E-4,-0.27896284696707657,-0.022765518333595802,0.019028830009195478,0.20792898707804663,0.35779674741387496,0.4264770662515401,0.4394506857126908
-0.006964008274996061,-0.28219325576567883,-0.03704685853126074,0.0018851239231719309,0.2106959356632624,0.339867374092153,0.4092299878917772,0.5672515019086104
-0.02055559356415496,-0.28891939455761223,-0.047571133654273845,-0.01510015715695822,0.20887831414100202,0.32190746738590614,0.38072617316829976,0.6214557817070426
0.004463368308742091,-0.26950739913683014,-0.029826012944108592,0.00648853806123491,0.22011257872506126,0.34577975987684684,0.42777890459813234,0.7134365068933938
0.009418473255143046,-0.28168307572149115,-0.010501903267513362,0.03663201378918138,0.2862078583944239,0.39567405354336455,0.47481670851036845,0.8646145234289462
0.014519408386670747,-0.2973889163606363,-0.00556777930482375,0.017765601486488574,0.27985189523102977,0.39046615325733647,0.47262824011604987,0.8155414432200111
0.006646559321576806,-0.33621328620827023,-0.02424400681680592,0.010884164569735469,0.2677493410500202,0.36164255369648995,0.4276277061657891,0.8234698899543749
0.0026965029628331955,-0.34637228188958874,-0.018873507896499192,-8.744726731373848E-4,0.26182408097021137,0.3635278512615356,0.41665968223249206,0.8270941130035737
0.01210533756872221,-0.3445210995155477,-6.612929677416915E-5,0.04998649745099091,0.3060081017166363,0.4026865863582811,0.469685320634409,0.7964313042464222
0.018779526953338767,-0.35376726698277383,0.0034418041044386167,0.04713901637784093,0.2882686552604598,0.4132960218188443,0.4772629615120936,0.6945329972285272
0.019501854144088088,-0.3265774568181292,-0.005266902651031901,0.03610552494981246,0.28391558046455406,0.3895052093370082,0.4525398946684107,0.700515356014365
0.010443096972472164,-0.31077281258576933,-0.016089700108799163,0.014458798651535371,0.2647028550594882,0.37041606989749454,0.43653448299432146,0.7656259657562692
0.02701658137863682,-0.27877377366947587,0.02634992313157125,0.06253651483120301,0.30609953292586706,0.4370754751989815,0.49778210148020435,0.7994343222760408
0.030850145785736707,-0.29834524713410276,0.030271846483993146,0.05895921648473194,0.3075043388248037,0.442459931053125,0.5126072700733061,0.7666702798912405
0.028793519697882804,-0.3105822109478336,0.025546552856242345,0.06241641389412242,0.3158474402101154,0.4282923751785054,0.49430377767743156,0.7000587073662417
0.031420549990847216,-0.3276965326363604,0.016880895323506655,0.04424987597694866,0.2907839825951723,0.38359815000426606,0.47346450007592306,0.7060179481636149
0.03896464606586433,-0.2973971364766001,0.026680810418935268,0.0846318323714742,0.3066854018740585,0.44040789158321025,0.5254950273036754,0.7081915297193505
0.04035060922090136,-0.30784245209467154,0.04549552135232929,0.07831369020061177,0.3269153305674467,0.4723578907192414,0.5466948784560123,0.7354592683879224
0.04341566456580948,-0.3173414539096995,0.040849669156254494,0.07558920105647764,0.3345548411942119,0.4672885324336934,0.5269757560317508,0.7035903154233336
0.04260833078983608,-0.3146493347112066,0.027808846541680032,0.052393086385375064,0.3140167866460513,0.4399278588033839,0.5234056749615202,0.614686635577346
0.0204357627048764,-0.33304008945228664,0.024375183878926572,0.05031991622119504,0.2864559599362825,0.42578391952623096,0.5016181023700269,0.6295689311554976
0.05482301367613002,-0.3099038481086165,0.05754590118811141,0.09444507482997959,0.34532821562784605,0.49509947592886083,0.5743937113301123,0.6854643659800678
0.05389764971720388,-0.3096793564712843,0.06381921650498569,0.08861964487450082,0.344758303178291,0.4849968714593019,0.5730079951749039,0.6961388496089288
0.04491482856649341,-0.3083731977764631,0.050963635009566265,0.07738420734435267,0.33576512277535564,0.483799810348311,0.5606384608071442,0.6615709923575354
0.03091663674662694,-0.32297848627173315,0.022880784086015293,0.05256949480572515,0.29145702344004987,0.44438174749521336,0.5108053141651113,0.6875795371841392
0.024660140197250026,-0.3160038444986168,0.02435205286314671,0.06948829326673112,0.30887791808949006,0.438832091147247,0.5193813084497454,0.7481990032918662
0.04741762921218458,-0.29528734738429785,0.057186434425344754,0.0982139551799163,0.3366525214150594,0.5008214267974155,0.5754953775729289,0.7652416931141811
0.04918197898786414,-0.3088999738817549,0.05327452288376744,0.09308171927935814,0.33985011976819607,0.4930075591541485,0.5638122868812973,0.7523220752856431
0.04215647459379837,-0.2994425886816675,0.03734700861795005,0.08532832334737371,0.3351673741171785,0.4627376545090434,0.5490142026061723,0.7297389299842836
0.01861397799888276,-0.3297561615914942,0.018755943531505597,0.05186490468244294,0.28823466337356135,0.42267369107375635,0.49282569872027715,0.7196967737142428
0.025022245550119927,-0.3166533131149189,0.0025318543972070832,0.03386806849478067,0.27409545206683567,0.40201125473432964,0.4779264742346689,0.7281133064110861
0.029357378050600836,-0.29138856650510775,0.04041270119330245,0.09001844815212556,0.31179838149391154,0.4826071280443291,0.5568422939676426,0.7130587607490525
0.04389839737845616,-0.29931429983895713,0.030220411110202454,0.07859857579207655,0.3196716235889467,0.46207781344827237,0.5473259319529553,0.7344398441130436
0.027567368087993094,-0.30647373910053655,0.025652578129453676,0.06036234536570178,0.31412766043520784,0.45644849581009617,0.5260348377795305,0.7412624752345145
0.01995629320791104,-0.28792368198800217,0.011372328589779618,0.017867565119639293,0.2798090178499621,0.4058800673290264,0.4925828846036872,0.7214261762597131
0.012491102723538034,-0.32706834530005613,-0.017970695164914122,-0.02549810875101541,0.23584690842606498,0.36602116659582407,0.44094276096034835,0.6927574287905263
0.013628884795119636,-0.3089231031348382,6.509321640094378E-4,0.016112659394695344,0.26763916403940197,0.4115251760043294,0.49166846263687863,0.7336076303505767
0.030119858147856712,-0.31983799248277434,0.020755002966180235,0.0392680799846411,0.305014559280668,0.44736952689626597,0.5243346184224446,0.686853367091591
0.02460998219640521,-0.33525364090878834,0.015903890449384915,0.0382694635767663,0.2884052103909677,0.4248296604943043,0.5015530302466706,0.6553402345391864
0.019952299164444038,-0.3447375105228664,0.0043916953302073885,0.012586214992269027,0.28410879046037296,0.4051158629340658,0.4983917850749744,0.6539759242620158
0.006657349502563165,-0.34079595409334507,-0.024178213610404585,-0.021414281813894393,0.23632908874460867,0.3582229230691991,0.43781972443527695,0.6633636895127105
1.799896069253589E-4,-0.33732180632833425,-0.029068135828357718,-0.024052851686993008,0.2358087975770173,0.3498186522268022,0.42266053853607544,0.6921271878792499
0.01735143214294372,-0.31041333588621345,0.003595082284139092,0.01940198426271998,0.29320567637664563,0.42588128791215557,0.5092067691664238,0.6838195765110072
0.02680503299818553,-0.3436119734648715,-0.010927565020914246,0.02188868410381167,0.293992693319746,0.40766396208424077,0.5138631735340102,0.6784389477548811
0.019850077827986767,-0.35255003042323696,0.0074126487307657335,0.03290878107700764,0.2657531124943515,0.40422559437522826,0.49132664604747134,0.6357485118433407
0.0036402194291608957,-0.33044262771642874,-0.009750502511610472,0.009422723139968149,0.27149304494829934,0.37808966689136797,0.4533206935278523,0.6188180057596363
0.0012105300512336875,-0.33414405379658646,-0.03164849116547418,-0.012023005489409752,0.2096562560242796,0.3471481776430297,0.4261254793791143,0.6446267204399285
0.025796595926113296,-0.32408146047248354,0.008469419559702401,0.0367522114267769,0.28673034657442686,0.4322539087242276,0.5122469055915424,0.6900950499611826
0.028256469630055302,-0.3088970930827825,0.015660225186366623,0.041817800615069844,0.2961453741308417,0.44378040568712496,0.5227218874350735,0.7343770514306399
0.026966799308278434,-0.30732118761810606,0.014381971145049757,0.03627683760187028,0.2773246306533814,0.4457364171975272,0.5024572610902195,0.6956024860138215
0.024052577026767927,-0.3218540786231529,-0.006606895577167735,0.03242667566053845,0.28101515894297985,0.41317178399106713,0.4829736016303114,0.6738978275588221
0.0026520445117876636,-0.34457805985474965,-0.022516787888189112,5.794202143382711E-4,0.24276090804854952,0.362065508710489,0.4397113644127801,0.679886851697733
0.029503344259407465,-0.31239115743367657,0.01716501734359733,0.046057664538068574,0.3094204271600317,0.4478112569227814,0.534876252741854,0.7197905899898571
0.04812812718097851,-0.3248884647141314,0.03165969141068578,0.06655134752536239,0.33171453950668184,0.4826087656826549,0.5649575289743383,0.7196564344577459
0.05071775177979917,-0.34463620613051377,0.03919473904908602,0.06663191122338821,0.33357755529350724,0.48263749158367303,0.5535255105148058,0.674280512778574
0.03705989003296004,-0.33101871987263765,0.01917511232319917,0.04468258658783907,0.3181435111698811,0.4563975973596104,0.5304744626321422,0.6958198738662106
0.019371385714032158,-0.32836291632948744,-5.682773152653986E-4,0.017866766405523756,0.2950278950544804,0.42088686214122245,0.47953557928860374,0.721874832368149
0.05071197697305501,-0.32228760611510493,0.04902557371887848,0.075488741805561,0.33068138954720083,0.4699513614494286,0.5575517185388482,0.7075222871043986
0.06307025727179451,-0.3091039302214601,0.06186382261273812,0.1084906191399119,0.34270568978928395,0.5090376553939288,0.5801334070782804,0.7053454284783663
0.05357437696474788,-0.30870211522617474,0.071844210900109,0.11545429424104436,0.347381654954468,0.49622671331072576,0.5827351387579405,0.5705531215077168
0.04755246708308136,-0.29833461539596184,0.06406369392162135,0.10244706565965422,0.31371235818814713,0.45561471548148313,0.5395861645558208,0.5123774155118144
0.043144868943550276,-0.3033927197051703,0.05408014104022954,0.08369140049151473,0.29850059873845547,0.4494169022265207,0.5236310308820402,0.47757578838321907
0.06877451194742652,-0.2975772655244332,0.08358816960509002,0.12461949292678365,0.36720780027305405,0.5194697052397629,0.6011066014494703,0.5182475897958818
0.05795706881383743,-0.2576277810724,0.09157815132474965,0.1145622562184459,0.35089267659489615,0.518772680348667,0.6042345798527091,0.5698942504639983
0.058937325257276435,-0.28507823203085675,0.08248111298096032,0.12312238002287898,0.3605608627190208,0.5067263094074872,0.602830275057301,0.5930729927952939
0.045198968411437626,-0.2892584420940119,0.060118943225204155,0.09412800312011854,0.3287332011825905,0.48515081577191077,0.5610263945148527,0.5688733547682209
0.06562230845170411,-0.26673777317847597,0.09494557117051776,0.14912745064046826,0.3693721568318798,0.5555737607829767,0.634275102933889,0.5943863010539524
0.07599444649669596,-0.2591416260139016,0.10841469731802023,0.16338376441828745,0.40024650973086723,0.5810686530189247,0.6584235387032393,0.6281760038270986
0.07015322026963267,-0.251966903728235,0.09386958698246035,0.14536314617871,0.40573905854288567,0.5800125596393951,0.6507110722773681,0.6291769648636689
0.06351122508626848,-0.2767265202138234,0.07641847669271724,0.1169222866640307,0.3808421435297699,0.5433067947450178,0.6223461139997694,0.6688297675695324
0.06565217583138984,-0.24967491041966106,0.09257409887741803,0.12599793171284865,0.3958997950627629,0.5686288531157138,0.6531458247514167,0.6444728249178799
0.08428527025961172,-0.2509185545503014,0.11555310184925548,0.17512129941287533,0.4325028035754949,0.6182399184469572,0.708455309188977,0.6938445268915137
0.08562768785895646,-0.25530522605717576,0.11982917024799748,0.1587507805008376,0.4408819659105974,0.6188661122864481,0.7076339230472242,0.6877641256232697
0.0703619633575837,-0.26509871044237243,0.1009381254975972,0.14813108415282586,0.419160460536902,0.5934028081232781,0.6924653160697555,0.7240843796532411
0.0638651936622002,-0.26801288764192227,0.0909576512991416,0.12869867273308058,0.3895106454406241,0.5601593200768693,0.6406372786169373,0.7085758087981674
0.09344136701585845,-0.23812670614356962,0.12335537846468951,0.18811671867821875,0.42717586728585955,0.6289417079151635,0.7147606362509031,0.6977083011946165
0.08407319301742212,-0.21563722698134086,0.1340839178992336,0.19200221296375083,0.4113280953547599,0.6309775545196713,0.7164388171259952,0.645830436199944
0.08601439793873641,-0.23911651780008947,0.12126657990098483,0.1811710989927156,0.41161898164220123,0.6110821331007656,0.6893678915432202,0.6479377795073183
0.06045420178780915,-0.26735387766708296,0.10223947371815534,0.13101507317061864,0.38856595504430186,0.5833776710704203,0.6524724003375676,0.663155725729223
0.04510195861042901,-0.23738511554967745,0.0679431159215445,0.10593355032319167,0.3504565376884356,0.5353407252368764,0.6074180482935009,0.6664174036976755
0.06350388242563482,-0.2920750982260987,0.0922923923686521,0.14693738181712207,0.3999381216380687,0.5797438659392934,0.6638108544523221,0.7240030263465714
0.05838142104991647,-0.2949738659217008,0.0930998307073791,0.15041533276106364,0.37154037829434494,0.5754335667511588,0.6647137163392176,0.7523188039024193
0.049459519702030115,-0.26849844854272453,0.08932201723683118,0.13620016608865218,0.37065276292972665,0.5624888179316055,0.6409025989659486,0.748110806384009
0.04124468632946764,-0.25423287404277417,0.0555120644272636,0.11008844560477071,0.3603556423327922,0.5276590314168166,0.6205408263269907,0.737976638446536
0.0367714983550493,-0.27393183327361365,0.05448112379120626,0.0967549317731914,0.34122458322476057,0.4937205998116603,0.5678836510473797,0.7454458198670223
0.056022088765231216,-0.27774397582995264,0.08279744323277383,0.14468020010322452,0.363671741835489,0.5298032367174593,0.6161199142094095,0.6692683550403693
0.0405258614636825,-0.27177775686407213,0.08317450638287625,0.12793246400417047,0.340601994367354,0.4848010752600636,0.5911756029801549,0.621866276736206
0.043238392890862384,-0.25235958137881886,0.06770108620693847,0.13586862325543797,0.3056922598959933,0.48267797735051543,0.5646132750901277,0.6042066317356812
0.031168849268389694,-0.25766794229694406,0.0472003713236489,0.09210215415919563,0.280258821610395,0.4407150516520063,0.5067484042939681,0.5935319923227167
0.03448135259850409,-0.1961038890897764,0.061368377715098,0.11256507286389432,0.29590986862487484,0.4683376863956853,0.5463663778362221,0.6108689091109942
0.02904709201199319,-0.23454837296940484,0.06485440949093309,0.11132460538317242,0.3297329539156019,0.48088153695781016,0.5518383946294538,0.6567332802728623
0.021210255953121065,-0.2640214149686753,0.053333549748179734,0.09392438347667177,0.300800037802736,0.4543955831143511,0.5441896360578419,0.7270095106810777
0.020015401055671247,-0.26813310503784543,0.032209792703922366,0.061803420971144905,0.2956780969626548,0.4335421854548642,0.5106033355817214,0.7521687890144134
-0.011742524112759691,-0.24917992615111065,0.015112632654140947,0.05326855117994591,0.26038647461545594,0.41209410418518794,0.49235689157006124,0.6612338256603398
0.01471521484824212,-0.2816638177957443,0.04760783557485166,0.09103741349516088,0.2999571978728554,0.4582935645248948,0.53934526794435,0.7579620110363663
0.017384288584754975,-0.24743584126007437,0.047914229772062056,0.10287144155492185,0.30127091756806906,0.4480679663013939,0.5178767485761714,0.7064875944808889
0.011962544393492636,-0.2784887848514337,0.04648927179383101,0.08133351467609529,0.28242865109063015,0.41093971324672834,0.49993885410065475,0.7608330232920164
0.008383041481540543,-0.28272352713099763,0.03257740348752759,0.054865093584902186,0.2613837749585929,0.3893357036428077,0.46371412135162116,0.7568407549011376
-0.011076950611101073,-0.2821666270818506,-3.1117326319797464E-5,0.031991778872762264,0.2284646003217184,0.34037506518757515,0.42222244710285917,0.7432273085628223
-0.011184126626312291,-0.2731208244219261,0.010184020536136321,0.04313518536161617,0.2534530327592642,0.3639697207043851,0.4425793268761745,0.7527779274575459
0.010592543422114542,-0.24837134160436417,0.04046613788100736,0.07655687667621383,0.2753122388673216,0.409195713737703,0.4829259183747462,0.7515160007129142
0.0032135451083724702,-0.2526935501244901,0.024655254689436273,0.06894634699617869,0.2772634699587673,0.40301957153785706,0.46300519301789034,0.7691739913367721
-0.006510917539130715,-0.2766839754625842,0.014768678360308922,0.04859991837523949,0.26885944900277514,0.38714094691695555,0.45620802947272876,0.7375617900280469
-0.016185582273957454,-0.3229420672808018,0.00446906792923456,0.04361171982358174,0.24835306763211543,0.38217670278799226,0.4693159451215051,0.7196298135610435
-0.02053913638025768,-0.41927409656194914,0.03191403236075679,0.08948193950777529,0.26205819719338835,0.39262357086978844,0.47633836135321356,0.6577707398403223
-0.0066819989269011355,-0.44241974747185225,0.027332951711752058,0.10197186522133521,0.250385464162674,0.38335469898970803,0.4499753868010087,0.461199621889551
0.010834248815612083,-0.47047251481284724,0.04400299373900629,0.12164704944089451,0.20545239869920523,0.34941255838437635,0.4152901731131071,0.27792524596281415
0.024835759148450105,-0.5070921474286959,0.05802529092377035,0.11296791478214123,0.1775282598327526,0.3080379937426915,0.3786570737647463,0.17313695716514674
0.008661866933017261,-0.4508739742567093,0.015793823849517812,0.07243992619282276,0.14771469445320573,0.2695263720018615,0.3401235626870921,0.24996144359160277
0.030641199084437076,-0.42743590593397324,0.04870869906002602,0.10161198931012773,0.22235342321052298,0.3650792926792015,0.44712955406743377,0.44405866524237964
0.022527089573716075,-0.39426209978331356,0.03014882802096393,0.0925492643629234,0.24856225105328933,0.37465752661273755,0.4472624506730218,0.47295209554773393
0.009914622359538404,-0.3730848138338526,0.018329998289088753,0.07706177201062994,0.2460279065925866,0.36311465815783595,0.44913266811810537,0.5612997214381903
0.013192904249730101,-0.3942002793899812,0.011537608206422705,0.07764350501025284,0.2044117969428433,0.32807207632840024,0.3993079653781195,0.6297607905194629
0.02423093548947348,-0.37920085048440844,0.03035126851813472,0.08349356104961543,0.22179847299283248,0.3444919971078943,0.40577004759455115,0.7256266905065536
0.027982903025018515,-0.35786043937798584,0.05782260444556638,0.12167564281176767,0.26162350321337935,0.40664617203897846,0.46798756680111864,0.7006910656172359
0.0342664550546732,-0.38820816833335037,0.036841022993725235,0.0908977631165887,0.25900339574181913,0.38607211625338267,0.4530209764954992,0.722340343157432
0.02196794193516137,-0.3824776278746874,0.01707668120882296,0.0651128468296805,0.24527896601610227,0.38043598904317266,0.4421466323177068,0.7107646093195255
0.022222000168865,-0.38473983450494686,0.013044965076950646,0.06362896143006841,0.23180980078623148,0.3510420520920367,0.4208305814072956,0.7131340033538943
0.039070545359335226,-0.34709735391551944,0.05304553595420833,0.12616514626075115,0.28558969890369046,0.4227069961992622,0.48886982555126834,0.7556313248132259
0.027720994965810673,-0.36246189658895,0.04783760054699567,0.12566278854169036,0.2755678295516107,0.39453378422372676,0.4732463048788781,0.7998592698515528
0.021694391466208274,-0.3581713638558833,0.03850999022923222,0.10367596696382436,0.2605118656673711,0.3885284010051645,0.4512132939490318,0.8440380849307311
0.027061709570382893,-0.34477119836117986,0.05639189786238946,0.11338529370187882,0.23182158062020697,0.3630056832839308,0.43469141298211866,0.7102494743614591
0.045888738932622235,-0.29119249233345734,0.10180880122871566,0.14984177914326632,0.2724958510103288,0.4228974004763948,0.49262926164791776,0.5221542851138029
0.04080837402675324,-0.22159953622347353,0.10214022255759159,0.16857238244896153,0.25352003725070726,0.3962416545426617,0.47305275485454457,0.4418810929304316
0.05014214920567161,-0.2154202761960502,0.11573715878249763,0.1738728684353032,0.23180773843110064,0.3861819979331831,0.46146850549832447,0.3709753501125603
0.04278970960809749,-0.252786129579369,0.09443719089777408,0.14153968230289216,0.22222954649638182,0.36756438871428143,0.42671026742462986,0.33364296946205124
0.05697503237140895,-0.2787236895504777,0.12322570915426023,0.1778850137707093,0.27032807427692174,0.4380315043654466,0.5006637517764624,0.26724902666616396
0.055411320928766786,-0.30058743192821646,0.11042502366381707,0.1809236588648718,0.27141674781473535,0.42195839271316277,0.4901704834836852,0.218360702419382
0.030963620055924995,-0.35777458889623087,0.07707387740935283,0.1368197509570477,0.2544929098150942,0.39892889324062003,0.4838647861226063,0.24729036887866018
0.024902718301155043,-0.38315204256630075,0.04563564589280909,0.10878284658774369,0.22883707797419878,0.3813922518182689,0.46012779450227953,0.2871316453659496
0.03330724891685394,-0.37707992124963285,0.07234180108189381,0.16232850671534188,0.28155839431219637,0.45846602321377555,0.5265258713096151,0.38416780643916376
0.04278326380053627,-0.37433561439846,0.0884371575210774,0.16252559780702017,0.2731398032436755,0.4379506873375092,0.5219700676933466,0.4531175294844513
0.028701239290830547,-0.36312801862729743,0.08555136278882522,0.14354770244455223,0.26987540001814725,0.43235560233617465,0.5194909057673617,0.5555104133904099
0.030092058290609777,-0.3710833870994011,0.06184417528900133,0.11186630591939782,0.2329321469637944,0.38757817043180465,0.47470618631138267,0.6563236866533491
0.04050359885421934,-0.3267933841219409,0.07557784995461078,0.14204513952613904,0.30485179605210483,0.44155324307193955,0.5320091912753622,0.6955526095301503
0.037528903550527265,-0.3340727707856768,0.06389353282069196,0.1245242970992735,0.30467268722208896,0.46078043756198617,0.5358970115492814,0.8070067945358309
0.03470714131791451,-0.31799950746009753,0.06653414673962427,0.12561273482783517,0.29702066214919925,0.44514825294076854,0.5214778578233977,0.8493708641475352
0.02479659888484779,-0.299902562789059,0.047493703470122314,0.10394847747152912,0.278586766672121,0.4083648185424728,0.5063241024013647,0.8668254948135542
0.032578007681136105,-0.30164986200008137,0.07304816802230465,0.14065273737825684,0.3288298372916837,0.4722325376867686,0.5550064143154062,0.878447445812731
0.045220978998820556,-0.3189589860499225,0.0775734734655693,0.13534204963465815,0.3273408577319002,0.47528537574611135,0.5854483048525301,0.9131525978735661
0.0346613334087055,-0.31561053214078233,0.06636653095799332,0.12186236766068133,0.3154152144545671,0.4610145523685114,0.5575920412004111,0.9034300201070946
0.035030312336141664,-0.3060431168821783,0.05337996842600355,0.08902127601883729,0.29701005446668716,0.434867063425515,0.5248563771764534,0.9593660263267985
0.0470755749856604,-0.3071956918696636,0.06930220176301778,0.11655074182473597,0.32936817670362073,0.4831212597137698,0.5750654495354123,1.012100665851333
0.04301288863180321,-0.3174113039226145,0.08332395961599803,0.1495188023752317,0.35558825606014044,0.5096289738050973,0.5999559794727654,1.0475255493266284
0.052418777017965996,-0.2955150728844202,0.07364304863225025,0.12828343316413188,0.3390080384307156,0.5023182609657056,0.5807399093146999,1.011399807510891
0.0357841388085869,-0.31527144633727733,0.054424203535445546,0.10877152563602305,0.3232223696544558,0.47591240668901175,0.5559097197675239,1.0496002851870452
0.029029094472368358,-0.29109796777972086,0.041335513545401104,0.09632788343423594,0.31524267923815275,0.4465623638864469,0.5237435136867629,1.015472908880355
0.04854255444640696,-0.30458337535395885,0.07068017798471017,0.13179655399241597,0.36872049586724687,0.5037817890551295,0.6049796705609685,1.0572774679691224
0.0511684580643775,-0.30828427417229737,0.06171066932169208,0.12196428764532118,0.36154857814887753,0.506882337610604,0.5953868039595794,1.0315747346871822
0.0431306260015038,-0.316588750048964,0.059421971494989324,0.1152651032170633,0.3583583988231293,0.5018727261778542,0.5945322881392651,1.0403505064654326
0.031079527751838393,-0.31761896570845455,0.05867406862624511,0.10863372899772043,0.31765646875380044,0.4552827147031991,0.5521780617782012,0.9517507042256981
0.025782093605630274,-0.3281924027077644,0.04750852665722464,0.08753524722575319,0.2893717360369591,0.40621023470278256,0.48199505647206375,0.8871430536786713
0.026748129632499684,-0.3406215268259906,0.06204597043958416,0.1266438069605017,0.28639358097188916,0.4077713487169537,0.5028557887467142,0.8806069080154406
0.035075971964486516,-0.3360639674569201,0.0765966346049216,0.14403239593680278,0.3130336817188957,0.4563602234241586,0.5375801479379635,0.8458236079786939
0.025082386392568913,-0.3699352278360732,0.06708815861346692,0.13041313859144293,0.306723622476401,0.4218647452377752,0.5037899922020729,0.7685131905065318
0.01629151830920131,-0.36251238319724177,0.06091835599382662,0.11374480282085603,0.28411781736068614,0.4024022443902737,0.4788073932513402,0.6459922570341193
0.012862323628418845,-0.3884063117271686,0.045783651204133274,0.09504569612607734,0.2099260236387399,0.3406170255211182,0.41885690935398345,0.33354846209831024
0.025100438654294437,-0.4035807979989235,0.060030598086241005,0.10819801421144591,0.18822975231220618,0.33000293370612427,0.4051648646848506,0.008954437006287005
0.03163458884743647,-0.40282119380634607,0.07674429899272264,0.1318374132640163,0.22091574019591442,0.38047324827378937,0.4500440959108446,-0.18210149344147541
0.03254551399271477,-0.36521804527446994,0.07219466243064641,0.12467266712951304,0.18807774403372318,0.3338164994083128,0.41512573398811015,-0.2460392247888436
0.020793073065057833,-0.33419043829087225,0.06146016542110283,0.09387112622025229,0.15799359965698592,0.29937207427916157,0.37651923112576485,-0.2517858399042801
0.007051463117047677,-0.31768664141992053,0.03276267365766026,0.07236114209333742,0.12168352911827358,0.24319485486043935,0.3065550208624988,-0.31688053071216077
-0.017428875548921426,-0.3341929087589853,0.01395648425891285,0.04379610761024349,0.05159696746335711,0.1833516641871344,0.24526410610601748,-0.36521092249508214
0.005101804226394584,-0.335628351817555,0.04111241984696565,0.08135706242097969,0.12822553839470743,0.26949959332811496,0.33814751388191994,-0.3413316993600589
0.014063325494234676,-0.31303014918693967,0.0461682429966648,0.0900740037681921,0.12605272276869983,0.2727518917580336,0.334308432188216,-0.3115647658402208
0.010922115259834619,-0.31032889570693367,0.03558340990556011,0.06929513214890877,0.11807599657668943,0.2441870058605034,0.30392493083912486,-0.2997316998385715
0.012627728018892358,-0.30620193500535375,0.02010831148166338,0.0409826569218768,0.10372379178560957,0.22823895826202922,0.27440786145468044,-0.29074294813646395
-0.011226535773357343,-0.3020393127263782,-0.007379941707982672,0.02202128687062561,0.03984627801416373,0.1534462092859735,0.20824872390823923,-0.28878798707575193
-0.005284844572005189,-0.33123386634010404,0.008122085153568739,0.04436427859106531,0.08234785901939123,0.1913047700629638,0.24565479205792892,-0.26507398611736066
0.00912021685563927,-0.3110040612115168,0.03176631359386158,0.06742776264478902,0.10134522802354058,0.22546162541525028,0.2961012094886155,-0.27082603685430967
0.004702044221765313,-0.3068952916503706,0.029465334000266328,0.05186433439499014,0.10099852208442894,0.2138776584554551,0.2752230801032907,-0.23872773119283558
-0.009015951975328123,-0.32946313076754463,0.01646229214574717,0.04554201813079577,0.07785842668463316,0.18598363723102995,0.25336011014603815,-0.23900328358311718
-0.010073519937498256,-0.32285157692948974,-0.008688623508175751,0.010647385062626769,0.03950972728922935,0.13661754398410977,0.18883166616251817,-0.23639505175777983
-0.01864795453975658,-0.34878476584031004,-0.0014514794925789393,0.018965689632326938,0.04583285124788133,0.1475322161802261,0.20822879848092743,-0.2761342776321728
0.012728695921502482,-0.3216680991029165,0.023292523586558336,0.07274839642540117,0.10975086132852331,0.2256709419456967,0.2905408754492646,-0.19641482276954703
0.0052643158122794775,-0.2757628181817375,0.025810798012316723,0.05703324843481266,0.08806724923674082,0.21624582654856697,0.2680563670899204,-0.20624161404902894
0.01275495234201442,-0.29309792195196244,0.020036989677492283,0.05504113719908391,0.07844536044976423,0.19805505544878219,0.2592012185696413,-0.2013419498575701
-0.008409184655845961,-0.31471023158886674,-0.0022487295986513083,0.018727009120472152,0.05669308716084165,0.14797410498485217,0.21275109239052886,-0.21084746509646912
-0.017531323340616176,-0.3289224370964099,-0.015313786236909427,0.01279493994267859,0.029635422320514516,0.11333205506129998,0.1810389745636916,-0.23220478809368625
0.008968703137424606,-0.30820466609742725,0.029565513364670247,0.07398907196447933,0.11391858296357164,0.2292088078765662,0.2943533041821107,-0.1776269042421219
0.017976364543461108,-0.31943980099438174,0.03474671635813846,0.0755917201409617,0.10516949794077994,0.23248112242758684,0.2898280619563327,-0.15345212695396726
0.021565766087555265,-0.2912324607475135,0.0333422414311907,0.062959043719008,0.09313753729049243,0.2252662584361087,0.2749709599439563,-0.14166620985531655
0.003658254901746993,-0.3040336364061637,0.010348851780421674,0.04392094616558824,0.07874427711098868,0.18101322392651498,0.233819631935213,-0.18000641257893057
-0.002848224640037854,-0.3096661767883769,-0.010375756162153771,0.008981007641902064,0.029653689422717643,0.13330983578958797,0.17203270144521457,-0.17759891314548581
0.018861620162939116,-0.34348596181519164,0.014905229527992465,0.05468136173263884,0.08630759782390791,0.19595208772849376,0.24958946426234638,-0.15788542151298438
0.03451710934734826,-0.29478913245760324,0.04926676229293589,0.09589017613247747,0.12054017829389227,0.24676542831033468,0.31255188168666387,-0.14133305337190363
0.029791331831871992,-0.2867317353555844,0.04375325879362437,0.08297150835383868,0.11278867259413233,0.23929033124561738,0.3070024757484251,-0.13445048853183553
0.028500776443697345,-0.2921913503540936,0.030742187782971442,0.06309926234720417,0.10683299019064682,0.21394824566672985,0.27690398162225077,-0.09139818289370738
0.007791864523624112,-0.32722326428484044,0.013671810050265612,0.04074081078186286,0.0605270619138441,0.16469736006918645,0.22638208261614232,-0.14343426071690601
0.011616817866472041,-0.31790545295863704,0.006207658936246693,0.040037775398198076,0.0597629801990444,0.17445460998325532,0.22310941196084136,-0.16268712363307883
0.03856682352810552,-0.3092121644821245,0.051833780046478026,0.1019680299753785,0.12889272648116584,0.27357087133231095,0.33760809828823624,-0.12139138994127067
0.03862330996754419,-0.30468371539582123,0.04885228015846167,0.10009220666135508,0.13245769213039688,0.26371559147045065,0.3191700799941999,-0.1099234655484815
0.037413270058892584,-0.3216620246461143,0.05710843451123772,0.09559395780030573,0.12237633387283256,0.25814164301081594,0.3181672548604646,-0.11062392419515395
0.021587478935579836,-0.311814187297325,0.030407795816662975,0.07674781568306933,0.08398412018838705,0.21090565625504296,0.2823851920950402,-0.11736485888543749
0.01632113543796499,-0.32108788259621907,0.005495097567002299,0.046292500001211975,0.05750716413982026,0.16475267203812258,0.22139469833447373,-0.12866022710087877
0.04330064093251389,-0.2953112926913779,0.057828647598458106,0.10954752378030201,0.14034527058916743,0.2691569281700684,0.3227216205245813,-0.08520966059194908
0.04842919524853498,-0.2927884039658461,0.05580853896252067,0.11697094164776595,0.1520384652502124,0.28385489242265405,0.3472376229533177,-0.09372235121340869
0.046999619259233384,-0.2898960952267593,0.05698668054527542,0.10887981292607038,0.13868662238128984,0.2725069800489384,0.34177744875436306,-0.06457191458112001
0.03217796080715263,-0.31132564958089404,0.049143153071017416,0.09385119356436294,0.12073970032923909,0.2518431969748709,0.3001242558792128,-0.09997314090057273
0.02178283645392325,-0.3305936335040607,0.02445809264364551,0.05758000010456429,0.07733101448363225,0.2002511909534784,0.2558326850699578,-0.0792105428171308
0.051096587747278356,-0.3057307125471367,0.05430083826567658,0.0963744077852364,0.12790839521305974,0.2650258404050845,0.33524321543955216,-0.050443929777557156
0.06991585948857229,-0.27871543569953744,0.08763529896134184,0.14013403724375215,0.1831873166137674,0.3273858466023593,0.39574851072035194,-0.03604314367315194
0.06771566895197981,-0.27876217496657124,0.08577728208252611,0.14603468862600413,0.17581037649741799,0.325507877153117,0.38180026465773365,-0.039203947913249965
0.06097785614376597,-0.3010305994446868,0.08222662275293857,0.124734436492866,0.16413579153424193,0.3147133106574341,0.37887976810951246,-0.024942317948715174
0.05303699871365789,-0.3158684219028088,0.05059886936074246,0.09471857811800373,0.1299043138306213,0.2686654111015474,0.32917725329041625,-0.07168309767941773
0.039530664336721276,-0.3156046404655453,0.04343870516981885,0.08690015217204063,0.11269956071471753,0.2458282262286197,0.3130706788071911,-0.03082947068970716
0.07823534987090519,-0.29939238913930605,0.10056096799033759,0.16566020740678578,0.21330775923705794,0.3811909241734349,0.45273980111858064,0.005568826181695828
0.08672634805761804,-0.2822560684943327,0.11240880706632858,0.16169230319211875,0.23507544668304128,0.37760598717510935,0.44744866409081696,0.017903325532937536
0.07837035668255185,-0.2936927808239174,0.10726205522679676,0.1608417301600629,0.21399378136696343,0.3909353355297661,0.4517271345999599,0.009004891719922699
0.06911382628880267,-0.2837044348292088,0.08367559714291875,0.13493699374066756,0.1770025341207577,0.35287845033435733,0.4087212770205132,0.0019806180631033042
0.06068052858549916,-0.30454386739396955,0.058426324053203894,0.10872142412288109,0.1372620907187088,0.2753026282190798,0.34452842481908685,-0.043021631817125476
0.08718105883928771,-0.2698644342522288,0.10478431469725454,0.15189818731645927,0.21285618907204512,0.3859911480385361,0.4483096203796471,-0.008399170658574732
0.09579886321301154,-0.2833804260395577,0.10711985001989353,0.18573202702876057,0.23773754928161553,0.43505713366683835,0.5057039768016537,0.0137946314077589
0.09639395507154684,-0.3016335897128936,0.11194225667800095,0.177907125545857,0.25182418223756614,0.42977237541786534,0.4770990688514696,-0.03374013701765144
0.08148521787165272,-0.2771435080044346,0.11178490233059443,0.1733379384014609,0.23041254622620927,0.41626236560248314,0.4689179385149247,-0.002795705226091445
0.07341123682521204,-0.3162639085511748,0.09972280183442535,0.14642307904193216,0.19317006659490304,0.3675820813406537,0.4226855184809135,-0.004329918397402121
0.07941921921909713,-0.2985161522342351,0.1153168176719407,0.15872657474225724,0.22281383845475358,0.38362764801400984,0.44106087901164887,0.07363891282267734
0.10469232237956666,-0.2925937956317491,0.1571872707734864,0.2336575760927759,0.2911678616636834,0.5096862924351676,0.5637442834085092,0.18890522762571912
0.09494306912381517,-0.3681811892761784,0.15116555870218337,0.22524579541172676,0.2974492162239142,0.4900126529518528,0.554898108942703,0.36842923917480674
0.08363232855055018,-0.3893293038973827,0.13577669855437427,0.21268330497956084,0.3024681260098621,0.49266633717885727,0.547853445025654,0.5628014308084094
0.0689992994116814,-0.39307850536432026,0.10983275795803946,0.17466640899013816,0.2823966494949954,0.4610327557342818,0.5130102300954448,0.7219901109295996
0.053134465646662306,-0.4087007114346625,0.08514621390557964,0.15865225960030874,0.27877566634919637,0.44633087336919713,0.5127723394662976,0.809567365535473
0.08807320571857051,-0.42863740614953,0.14124084311206347,0.2317211064417837,0.39089730379269044,0.5757950279930858,0.6279542435124041,0.8007478001669366
0.07618564623285827,-0.4433179841732237,0.13160155476782318,0.22617891963562917,0.37344340944787957,0.5820759003894287,0.6379932085530176,0.7255949632204495
0.08889156282614587,-0.4216229960700624,0.12680005553666196,0.20809796241087908,0.37104707427358835,0.5673710599724643,0.636424584560855,0.789921775109169
0.05596836307185377,-0.4534497085654826,0.11253623499739701,0.18709435442551778,0.34573918781279467,0.5339051750913675,0.5962885924847983,0.8208014146869446
0.07306627725336191,-0.4428535697239615,0.11757424750680295,0.1996572709997851,0.3715103567002949,0.553446804675194,0.6144708683892843,0.8609491957613785
0.10043414289708871,-0.41930438667968367,0.14502098302555724,0.24877358585133888,0.45380807895055764,0.6635218411565438,0.7212734453782287,0.8599991890993663
0.09036616855965693,-0.4313583930259496,0.1516232161038583,0.24085170769131237,0.43769669198610356,0.6565297645344662,0.7104584639555104,0.9301113395942028
0.08651674262782805,-0.44020152580498956,0.14857102163306526,0.2280478137054146,0.4271296521830963,0.65317289825827,0.7033270204155694,0.9305418026058033
0.06513970144875969,-0.43814573262243284,0.13179079579973305,0.21028972156191464,0.3951010930511883,0.5918056129976147,0.6554575692187431,0.9674136313115457
0.07114737331272407,-0.4093693971870843,0.11410466276769482,0.19651885425714882,0.38803220099777025,0.5895126060582744,0.6472014883047159,0.9684878622728964
0.08684087508668878,-0.43793369491631284,0.16130682365950577,0.2622999326958141,0.46679538790776454,0.6987776806794884,0.7635553861660537,1.0116305981730627
0.08591330726728016,-0.4007325307995543,0.15279792357717384,0.24389753349394455,0.4849699290561185,0.7071810185842832,0.7670859236841934,1.0413612546366524
0.07373976532360141,-0.4666104841117373,0.1473907027531735,0.238996623022555,0.48123754295558174,0.6958198781217747,0.7688384259373485,1.040584103201223
0.06920957232984844,-0.4435679274029565,0.1342280963181259,0.2251121154899118,0.4428921616742312,0.6565962330000492,0.7323156653956717,1.0581089658565113
0.06442272322403596,-0.4017029311898258,0.1212075378251209,0.200191926876277,0.4303106163095089,0.6405814131978033,0.6980540075239624,1.0956247717030005
0.08131558365567794,-0.400921808362722,0.15855149347755382,0.2472754188528549,0.5137809117848113,0.7463763111489455,0.8040038798258907,1.0876397707089431
0.08015605910947972,-0.43594433507221597,0.12168036743540522,0.22292562616285544,0.5123567653013897,0.7328526453864631,0.7991150947669355,1.0682669891485008
0.07197278627366241,-0.4551572731900268,0.11342147917337717,0.21105872671388412,0.5088671259360008,0.7444192736031209,0.8059987794510184,1.0364946094692697
0.05522303560741289,-0.4316755672292872,0.09845990431244737,0.19082406187749762,0.4837323313258351,0.7057383248485408,0.7748446409521642,1.0845646895667491
0.05108227726139009,-0.4142823088198798,0.11608043699882652,0.20540730620379763,0.5100158687602221,0.7270935583702605,0.7893113798813789,1.1108810797574145
0.08495534838947347,-0.3762836273509719,0.12825007524517715,0.23306023574134951,0.5425520188835563,0.8042343246416521,0.849851665115202,1.1692418514915517
0.07523268288272376,-0.4198650712825431,0.13067922821786818,0.22500921673932878,0.5443681902602169,0.7865630324427869,0.8485596193816102,1.1358622848364714
0.06257899658410197,-0.41547611391334943,0.11787859530441257,0.21588238399718843,0.5146816361837541,0.7611511937448494,0.8301610111105702,1.1094974535100874
0.052185928731319546,-0.4111022315303646,0.09613395807024751,0.18346431775469424,0.48211451104423353,0.7155309020872908,0.7734557278942668,1.1315236986789723
0.059492936586609715,-0.4270107385841039,0.12514039770495475,0.22521628059902932,0.532456381963359,0.7567303287747198,0.8268034383022324,1.201607615702535
0.07102002824092157,-0.4508722678411589,0.12605177169964935,0.23604223395866109,0.5490435168681196,0.8154833375441466,0.8946391954131853,1.2147765885878419
0.06137918618617365,-0.4664149029393942,0.12659855153833768,0.23261016010278598,0.5431212224965628,0.8065899039127137,0.8613804631724206,1.191266894794092
0.06126413166431574,-0.4174673323488859,0.11868980647329386,0.21730007006750393,0.5235538901206434,0.7739044421204292,0.8448802815251305,1.1693537659973512
0.03875263108760597,-0.43846751702704034,0.0807839209401844,0.18382351544833397,0.4947820470447833,0.7243653725438253,0.7927620985022116,1.2074481579162517
0.04314968230825219,-0.4160447921786745,0.07657203157892133,0.18574342362307095,0.47087476292375724,0.709051679824631,0.7834248296061593,1.121600636458334
0.052640008118290435,-0.43162223832663094,0.10381002042169651,0.23043641362807482,0.5332170908315256,0.7871637252860141,0.8776629782358398,1.2357827193789956
0.04657347910649341,-0.440721492119371,0.11003413456950382,0.22271664007275466,0.5309426539130911,0.7675550157316984,0.8534575082345792,1.2084128947725048
0.04550196904059064,-0.4358363300455248,0.10658638974843437,0.2027457494184814,0.5139809958649069,0.7602619666799572,0.8386474961402682,1.1701922606313393
0.02955070675390756,-0.45143362589889835,0.07618116350974195,0.16977437359780173,0.47435214565434375,0.7029308906903308,0.7900871473714187,1.1738924289876687
0.012739646858582754,-0.4485906643738677,0.051405890028799146,0.12384353317088573,0.43336154913812797,0.6336885838567627,0.7270254062130992,1.1470357603760828
0.03304467422824273,-0.48211263594983433,0.07117271136535558,0.16683236978241234,0.477013948326653,0.679922607574293,0.775594649970966,1.1301635265510652
0.03689230253062768,-0.45711017861833275,0.08595673199909568,0.17278481880461147,0.48351484555415536,0.7094500753468195,0.8008347957156635,1.139421314420799
0.03427423925060427,-0.45765315034473103,0.08023774358508153,0.1679039139447854,0.45645378880976617,0.6670849798542776,0.7699786593934363,1.058794766913972
0.025808280318052143,-0.4353700819208423,0.0668852524214667,0.1559000796541072,0.4392744524278894,0.6389457009854476,0.7421450006823985,1.0915775754585262
0.013624712699985558,-0.4626484401727725,0.06269559023357836,0.13017912324897798,0.41317057466045953,0.5896693665935947,0.6887210758107527,1.0960619368845765
0.029131513028109755,-0.45129984405573853,0.07845874841411851,0.15964736891590714,0.43717600396108924,0.6441220262875894,0.7475428312950981,1.1405847249257306
0.03589928147915454,-0.4474980011597178,0.07633331630451004,0.1691767146500302,0.47301934744214047,0.6552863065818518,0.7608123199598857,1.174293012019244
0.030403160956167342,-0.4591370090911451,0.07583737049759337,0.15334110020751013,0.4446013559422904,0.6362608141543125,0.7241770823931267,1.0889082595355812
0.02576395352102519,-0.4589968014930229,0.07559604722849082,0.1517172766025084,0.4139716132345031,0.6042844555690438,0.6977826663805079,1.1168153067654483
0.009854319920294785,-0.44429962733643713,0.04917217883528919,0.11285066758072257,0.3766809359747588,0.54313244747017,0.6396975653977854,1.1470254779846654
0.03588076123724643,-0.4117860737650238,0.0804514278184532,0.15013316714003805,0.42094485099699763,0.6105992787811736,0.705445784151014,1.165357357496657
0.04499066734630683,-0.4331691058298569,0.08876495582789354,0.16081189962457718,0.4383427295201356,0.6262070467077961,0.7279945881188487,1.2228723035683686
0.039963529676319526,-0.4156159956748601,0.08036127210791823,0.16013079905357222,0.43849896728508764,0.6089290281797624,0.7163405543726904,1.1983720401029345
0.040843455118345307,-0.46369792641261987,0.07570708626053956,0.1540398095983962,0.41327506913270917,0.5927378612784867,0.7044045460518692,1.1648316690219218
0.01738899317854307,-0.42869603338980006,0.05558494845626959,0.10446846273303295,0.37212208618354203,0.5383617371683016,0.6332773167358524,1.1398045596814388
0.01126550332231893,-0.4426957896729414,0.047931699438335015,0.10106747457269356,0.3725702583253553,0.5224016405259535,0.614890106370154,1.155006254939696
0.030534052253346475,-0.4229072638812298,0.08265878948906037,0.16645133840097737,0.4287636108240251,0.6028544690105209,0.7233337994620757,1.196848311784612
0.031095473661188505,-0.416022435817651,0.07878561096096831,0.17720905725733985,0.43586254588302475,0.601065520991696,0.7087309726454468,1.1650216009860221
0.0329979442526536,-0.4674292779866533,0.08898493186468504,0.16184676935292694,0.4280699240426904,0.5946977378110594,0.6950060472171167,1.1981725255432902
0.028835644918533916,-0.4255036584734116,0.06424243959849854,0.13842121640217078,0.4091696067430969,0.5602384578891205,0.653521071748778,1.191148228767338
0.01422586862343736,-0.46051049186306725,0.046093228334940735,0.11821716487509389,0.3718607119575316,0.5121046426503183,0.6168570590902978,1.172975922355276
0.028680691185481923,-0.4333914952544405,0.08002269864180732,0.16968564549064083,0.438415216360797,0.5791534584863265,0.6876631505484244,1.210312867072465
0.030691475404134163,-0.4510139844870035,0.07219006945748863,0.16753170353500343,0.4310272201582717,0.579304172695593,0.6974795448732601,1.2106204809048926
0.03066653921183306,-0.4384988005951816,0.07619336355048714,0.1642493265155177,0.4292217996219222,0.5790157125209842,0.681836006537976,1.2090494914770966
0.028260364204857932,-0.43553258306277753,0.061740731041438394,0.14565586277460593,0.40750849727682703,0.56130347243885,0.6586253695063897,1.2027116745890052
0.021986772341247542,-0.41519973749998923,0.06795989773696529,0.13639614989898696,0.40452632615584994,0.5397011695076535,0.6463417000115191,1.2467020837577394
0.042883482848849123,-0.4231448196198507,0.0871473240618574,0.1782151283957863,0.45057336733176967,0.6064508255645331,0.7150018514514187,1.2274935782310294
0.0352120097203569,-0.45077678919726494,0.09438660584133358,0.17101727582407686,0.4555937472307314,0.6068132014241979,0.7270506823181115,1.2126947950089546
0.03827870880059885,-0.4595405711419234,0.08756848372340585,0.1725378710012249,0.44767153995097764,0.5966186839824162,0.7039457289510604,1.2438213934662934
0.01675218152095009,-0.4704521035746458,0.06661035404859793,0.14802407257196537,0.41817707099047075,0.568074729741395,0.6597790923622392,1.1421141882652732
0.025317078386848615,-0.4667552423951589,0.07723135062682661,0.14948584875340143,0.4296212682597597,0.5825951869114917,0.6783184316988081,1.1443203096694454
0.04332509406828844,-0.48549020563453127,0.10230960347118032,0.1973315044208406,0.48313801737960915,0.6490083097168738,0.751253649702516,1.1964652152182713
0.04631870939458974,-0.45988492998761976,0.1021885666849551,0.2007199826221456,0.4733380163802058,0.6324306176467989,0.7390563102137097,1.1760755800103222
0.03519534922866353,-0.4609927294621391,0.09976925770192753,0.17843561066113103,0.47556183252691175,0.6251178237905415,0.7319911506806991,1.2295464426606062
0.027112739841139398,-0.4587889932541843,0.07141513753538695,0.15853709826657017,0.4322278115031155,0.5905603976607218,0.6838676810502305,1.2110244709258808
0.0177554480840846,-0.472673580817282,0.07440933470488185,0.17068944349484919,0.4411693343758424,0.6024930811509107,0.6985656422106744,1.2265863995673918
0.048047873711527515,-0.44817534917892066,0.11184685052036819,0.20981562806856008,0.49566952022204547,0.6630839855998257,0.7796988851794644,1.2166318064078305
0.037617811141192836,-0.452255571529219,0.10738075903577007,0.20964059241828753,0.4845976527551405,0.6477487720384121,0.761928114338645,1.2275921313975067
0.03386958045824194,-0.45173042841621036,0.09656871053073729,0.19061695618699265,0.4915007858554576,0.6593160470253823,0.7626574929931339,1.2211917299137929
0.022011321380798764,-0.45976669874891374,0.07342240270659064,0.15733865922719067,0.4701664751737394,0.6155774152209146,0.7185826276113628,1.2871469954692534
0.007065827292941881,-0.446955005158378,0.05230412639004008,0.13460905557840225,0.4300862344174229,0.5831330717959192,0.6880299291785351,1.2803597560026285
0.031000145359266342,-0.45348669051668433,0.0848290291305927,0.17844434416773688,0.49896277245561854,0.6553871021059863,0.7867336172041892,1.358666574910103
0.03777384268274292,-0.45925304354264523,0.07630504131095535,0.16795630932911348,0.49015348909611095,0.6525785075437956,0.7847727344968598,1.451312788178534
0.025000732414426782,-0.463724368106107,0.07984045270360185,0.17850351422784844,0.4802405309179068,0.6595119343188147,0.7679997748054899,1.4361221571333151
0.026474342316952015,-0.47933003210084385,0.06399626244427693,0.16453758961156512,0.47862626080089676,0.6185787264138717,0.7263046745134515,1.4912817527207218
0.015543417650166355,-0.46384546072174143,0.06392984998933639,0.1595050892386115,0.48018175471382646,0.6357102652379283,0.7268917842986052,1.5502549077924805
0.027630255070544483,-0.4518571323665557,0.10303503759837906,0.21031318012776498,0.5148126590633932,0.6886005784502959,0.7966582521432543,1.594601173440045
0.024743263692806633,-0.4519402285086198,0.09565094143998962,0.19157589770307049,0.5206650631787239,0.6804920585546823,0.7901118110170989,1.7373403150257742
0.03382225015599283,-0.42431809327188075,0.08683371827109695,0.17884454273320644,0.5207325776031672,0.6721099899671844,0.7887037379417347,1.7639179076239881
0.021819777062917867,-0.4550435248404995,0.06473170454015999,0.16614729146526044,0.48406205274532216,0.6379612930916553,0.7347783835299627,1.7685246845664582
0.027764531499304988,-0.43339050396814427,0.0935477383907335,0.20799965585559219,0.5209024537961187,0.6769867352337279,0.786825451314272,1.7279382012394562
0.04360299434724282,-0.4354356330854412,0.1019493031585678,0.21038254615865587,0.5370329862097795,0.7185072310776833,0.8364799442412084,1.752058983769741
0.03702276812093232,-0.41911515683255757,0.1000856758836883,0.1995080786818703,0.5316496687622543,0.6956807543403951,0.8241044697342195,1.7253679816050136
0.022964996019026924,-0.43557835593013167,0.08881298454704775,0.18494291071135732,0.5266405468962525,0.6853741881649466,0.8119390296523357,1.788804876061702
0.009454124444529248,-0.4558722927953604,0.063921132946518,0.15161604370100243,0.47926479553363366,0.6401760942393484,0.7512969903744876,1.8232933120498271
0.02054274644561446,-0.4222357186094897,0.07811083400977623,0.1921801308951355,0.518245768840274,0.7056935253398003,0.818740519859272,1.8920543854898713
0.01912312460875571,-0.411291185761158,0.08977465182186896,0.19304971526565534,0.5677969451589584,0.7371867881975153,0.8767979850809048,1.9649206089415996
0.00955120077500135,-0.42439887278926197,0.06359513757232953,0.17427112546667395,0.5440292421937666,0.7302849237110757,0.8650415372112588,2.0029528258671454
-0.011587927312898457,-0.4283769226856895,0.06115580510169179,0.15912962320761329,0.5328863198359044,0.7123767518451923,0.8337466635106429,2.0379608778738927
-0.0054541939980071235,-0.43664494250569486,0.03227395182944169,0.1270755034373088,0.5171368797186034,0.6525863658527048,0.7609193742874382,2.1091703009566594
0.001957720774166831,-0.44880097893955095,0.06753256909065922,0.17703250089203124,0.5292246100044543,0.6739764672468413,0.8078285238235243,2.1466756442507933
0.021341168270177492,-0.43001150285195244,0.07728451287235459,0.20539080709383034,0.5521176019131733,0.7195483323535203,0.847253180898137,2.198415474161517
0.015452106989931177,-0.43362863454280914,0.08419882584718583,0.20625848227304963,0.5551352090324813,0.7119995903183193,0.8358718631126597,2.245059785768165
0.012755056168146752,-0.435403083938423,0.06956320404631416,0.18597424225724485,0.5475686242431792,0.6921526488773349,0.8050244982303097,2.3052339768631738
-8.002997283576786E-4,-0.444179827492244,0.04979479983922125,0.14955858785856022,0.5161084508923348,0.6327451036473765,0.7610035530500868,2.284084392420277
0.004401494243564869,-0.42862439950011255,0.06376943286940916,0.17055602394263092,0.5397327521141476,0.7005269981776485,0.811058342979819,2.3248626712846168
0.009061260433009503,-0.437560090704416,0.06991696978493127,0.19336883719108122,0.5684240583526675,0.7117005573916088,0.8110048437860851,2.256581134843631
0.006822183553833433,-0.4271465512973647,0.06626295133668594,0.17164835919701565,0.5395940457722713,0.6945365838998404,0.7941095101341016,2.2591543732409836
-0.0059074007770505985,-0.4357089997619801,0.04280596333945921,0.15418559661882844,0.5213991864802389,0.655938599796417,0.7717107060862839,2.272639904997115
-0.005504290466246988,-0.42697541197094363,0.03144693157375237,0.12884789742667643,0.5019982384679736,0.6360643994506998,0.7530481232952755,2.2275954535722455
0.004250426585214859,-0.4267691886176092,0.07118055290928187,0.17871824219295196,0.5599751061362107,0.6909135826401149,0.8015191467717141,2.226430122778838
0.01103519414217554,-0.42151431917340115,0.06603843104952915,0.17055088944525926,0.562854791437688,0.6853159777545842,0.7967270466800771,2.2528898656148
0.0011068079352458892,-0.41451159516767117,0.050525239586054115,0.1589066833239909,0.529480696587516,0.671835421430632,0.7738418942772611,2.249035624957369
0.0018894094477185967,-0.44102523041562736,0.03258558391914467,0.12991370653293946,0.5102968341001956,0.6427260787969655,0.7299112434454157,2.2204082718611278
0.0038785941685402854,-0.4411511914969606,0.03930094241879948,0.1390308547980725,0.5017764695350896,0.6278354799121691,0.7146187556914462,2.2507249854242044
0.02310906207785445,-0.41946951570556906,0.0646925123077235,0.18433266813081878,0.5465580920993733,0.7035229368311251,0.7922446670792148,2.1926753279700932
0.01805250380523487,-0.4266191700896545,0.06232051910351977,0.16830351975513372,0.5262798904895339,0.6733934313568607,0.7702778169606167,2.2574793360017393
0.01683966851820589,-0.42100657722492757,0.059947618381177986,0.16396690016063598,0.5303352642506243,0.6601074283715354,0.7641586505836471,2.2398052798746604
0.008185108524264122,-0.422871129655072,0.04081358831299479,0.1332034834935382,0.4995383760506507,0.6308200799959548,0.71034648683564,2.231784764195726
0.0012340438894473855,-0.43892158153398125,0.04533528429846944,0.16392992727814093,0.5288780057109942,0.645429644041125,0.7413183929606103,2.252268061130842
0.02343686091447211,-0.4211680687578937,0.06993350442459854,0.1878249913743678,0.5508741790909821,0.6841259313423088,0.7719798891404176,2.29466969798594
