0.052002713243949096,0.06958201547213769,0.045366048094641905,0.04376721524038629,0.14660844554904162,0.30133550880155735,0.40034756900953566,0.600616104830653
0.04783391636185906,0.06847942291006327,0.02384973015392081,0.01787101263979393,0.12907987015109396,0.25732259254337586,0.3661036302843425,0.5627150083504231
0.04851338700157533,0.056955518657200076,0.03922434256968658,0.030755862290874944,0.1392387731331352,0.2664546857773236,0.368676267149038,0.5750839219090083
0.05807841351597861,0.0671448868196007,0.049485883454423514,0.05189551464430156,0.17045005857281165,0.30128879413636245,0.41551934559979875,0.5735840928018011
0.06197320019883052,0.05421172410741383,0.046710153375143,0.042480313125203534,0.15482616960763804,0.2966007347627284,0.3940606893384999,0.5986609857046334
0.045078100850381705,0.07504518350108028,0.038826214115941685,0.033556387217618125,0.13622526647236305,0.2697646413628658,0.3719381013799583,0.55944921785134
0.038059696141225674,0.04761853863911272,0.011978571238031532,0.0019954494547746865,0.10040948038456604,0.22277328333220384,0.30899765141597246,0.5498863970608514
0.041164862523136295,0.059333894236991924,0.025385015607959173,0.01420932399048283,0.11933300711947144,0.23341695822920475,0.338593274140414,0.5329481609281235
0.05296775858545268,0.07294437801957863,0.03705075002763582,0.0418184125961327,0.1392397633771389,0.288679446302938,0.38410453340957074,0.5925427055870993
0.05443215239088868,0.05722252059733295,0.03761805386270234,0.041899063218937146,0.14239088146643092,0.2712368516592977,0.37366974061473285,0.5809902929201888
0.05045050176848152,0.06025800072742357,0.021772558142121423,0.018298665881615453,0.11149687133181314,0.2524575799356202,0.356111677488703,0.575956367632661
0.027762458630164917,0.049949412038530976,7.183361142157618E-4,-0.011066003951958232,0.08324454167135448,0.21028299349016547,0.30466366141036777,0.5442644028731862
0.02515965238357692,0.036890403070952815,-0.009850116409480046,-0.03477821518884529,0.03918659023323374,0.15661330275391133,0.253268092467797,0.4209439878826846
0.04066027422585113,0.028449152648722328,0.027756502860560514,0.012962282650678364,0.05654762889948679,0.21435736993052623,0.308172746788186,0.2673102620177145
0.03813118440246316,0.031773484016073744,0.034489967986650834,0.024224095007854662,0.030864448452147725,0.1975613178609067,0.28575133140223086,0.07641790198033792
0.05987203533526464,0.1294837662099792,0.07720172701543178,0.06682456258438468,-0.002350361037988642,0.166511730343629,0.2650970448172908,-0.09322276528839293
0.06679861334771316,0.25964079749771857,0.10340576695061275,0.09098170217562132,-0.05545123199177406,0.09809448650944953,0.17993580106314086,-0.07026935394916077
0.07722620014366874,0.3460331622487411,0.11381356164902266,0.07713759591462971,-0.06127580152418621,0.06261742352205442,0.14795065394502,-0.08622422906114881
0.10409557603697459,0.41700065336431,0.13709483488857335,0.1284338558348632,-0.01331169344792386,0.1273580758350728,0.21116233359276,-0.07606596151943858
0.10007611888457814,0.4826853149447591,0.1263904962879198,0.12406255292382722,-0.030277939361598546,0.10076946824124805,0.17519266510707834,-0.06706643224724282
0.11445182196354564,0.5638677448778411,0.1353929194805028,0.11650472863458251,-0.04613309528664754,0.0749999039106603,0.157579526731208,-0.10814466100905448
0.10425072512077174,0.678665223657828,0.12092755092445999,0.08013701020640474,-0.08476871054854476,0.01901877689637245,0.08474492120628532,-0.11721954255364897
0.10774160421463233,0.7178005160214198,0.12779471414336613,0.0928177884689724,-0.05027363163450327,0.05759746602344765,0.13560642303624437,0.04810907441574979
0.11893704283394535,0.7266248951659534,0.13250358157556374,0.11216956510868119,0.0279912661034503,0.12190384200637731,0.20655218078576382,0.07647342547420057
0.11681839549253922,0.7566049034086866,0.1215595131840135,0.09143799286965078,0.01382971660365459,0.11928300440626377,0.19695046748064074,0.05032195555323614
0.114073099832552,0.7065029756390127,0.11329047823178656,0.07015636916710165,0.0028091079553594425,0.10357835862421955,0.17655773197574584,0.030683366633643145
0.09329550552860794,0.7180618632228722,0.08999733599888679,0.04962098459377211,-0.02197220365278879,0.07005848194773057,0.142676837413001,-0.0027936413464688115
0.11344228530364867,0.7530777610893631,0.11810212319747981,0.08757095192841076,0.01628350175719098,0.126636045775105,0.21506567499986332,-0.01651346818606848
0.11237815522548572,0.7814313301700264,0.13763205286757133,0.09271180185681877,0.020706793362846813,0.13251595012979628,0.21257611560884498,-0.05510863768915488
0.12505614066673942,0.789523908684298,0.131236138712524,0.09198947747446894,-0.007156674780886257,0.10856699035701553,0.18422764389648683,-0.10656890808175978
0.10963577898763868,0.7672398461302565,0.11873199232917048,0.07888650718008451,-0.032787801395290465,0.07487505017547891,0.14413585136541338,-0.06500807142264986
0.10706990480657262,0.7403100018784351,0.11746888429244062,0.08526949783342258,-0.018435701888486707,0.08061789741297817,0.14701627358233338,-0.021468557728345744
0.12039933271601633,0.710182283555818,0.13744664043501342,0.10885926180286719,0.03279582752322244,0.12659823254527625,0.19687684400879943,-0.012857350392143842
0.11958817497703472,0.7556192245150156,0.12745347437910504,0.09531380462405627,-7.506028408385528E-4,0.08953630791994642,0.16662348641325722,-0.11614851443010422
0.1022497633631855,0.9102921126615038,0.14256178891740925,0.1074889392090217,-0.03520000529615801,0.03967815300012154,0.12599620914201898,-0.2441147857620243
0.07653452957429062,1.0519350774518932,0.10301967050466375,0.05808596846961893,-0.057276559520726474,0.004625631404428241,0.06382028584069796,-0.14445327690555962
0.10803905737678506,1.1670954209727065,0.13965633534795796,0.10177231416791482,0.022652827100892663,0.07956033829140163,0.1530016379945541,0.0658423274216303
0.12537054007580356,1.1933809597302123,0.1542397558657418,0.11511965739138151,0.037725453975979935,0.11021603734474653,0.18195293151917696,0.10821407511029305
0.12938131212829168,1.2300785349825993,0.1645124526233606,0.12022841586917538,0.03351782763328195,0.10585271890095876,0.17095120496695704,0.19866771495603341
0.12301032013513116,1.256222868781552,0.13808705070067911,0.09162951513599495,0.04104647431000942,0.09486188863306982,0.16729285056610926,0.2648747667140698
0.12801204692827925,1.2806948524270292,0.13774433674109565,0.07747902621628906,0.044826932214374705,0.10318687433381982,0.16628121543505794,0.3145685690385879
0.14420155653144764,1.2737748440290024,0.16632529945861865,0.11494528058020918,0.0858869554763014,0.17090403322186534,0.25243128859142305,0.2943451929842929
0.14911899696110023,1.280378456775888,0.15904101658384323,0.10538771938445343,0.06518196047732042,0.15458722083400953,0.2466154692505653,0.31212299697105467
0.14948196489219637,1.254506389816827,0.15748396276100735,0.09656804640563252,0.07890847723906405,0.16207525317811644,0.2503873492229014,0.40590825386091317
0.1310752958165597,1.1945908957217037,0.14709340300414106,0.09069164292664407,0.08157019777283145,0.1498394265459962,0.24363526785747,0.5251287429465861
0.1330749813658123,1.1142714869144716,0.1753317946727925,0.13688913823803495,0.1754973969257101,0.2248777448334479,0.31395592287515683,0.5663647604772638
0.1362955297922033,1.0763385359096174,0.166802895319984,0.12823279056312292,0.1799560673638486,0.23000211323033393,0.3225574750782046,0.545534034791976
0.13530753591918038,1.104780568030591,0.17825391039255498,0.14636785027044172,0.1742056101859406,0.22315117935290432,0.30098907236694905,0.3727826245802247
0.13961958878090025,1.1121944553335625,0.19862615056055447,0.166772410895215,0.12559109645785055,0.1622140859596905,0.24147379682191178,0.23209955868941376
0.16508476906243774,1.1370783538519476,0.24768090976116694,0.2308896091046639,0.14524846922154125,0.19443100947416722,0.28180338439708097,0.11125743567556301
0.178304792433721,1.1596608241726551,0.25559006226717285,0.23340430088800224,0.1358002738468374,0.19204222309600805,0.27906462089582407,-0.04460175396711828
0.18102557545649353,1.1734506977860457,0.25496273277419595,0.23489186189219627,0.08287879566537223,0.1646331315396719,0.2238095148728895,-0.21861279351821572
0.13205516712228849,1.1888470751572229,0.20201073694605748,0.1975089277947793,0.05579610551700291,0.10696576868030958,0.16588768095905565,-0.23733245267626712
0.07833182183473475,1.2337832898334735,0.1655741664145352,0.19143658592974405,0.10941888900158991,0.15897223367091748,0.23957029485075515,-0.025220420752430542
0.11687188485816413,1.289801983228966,0.20340671729619078,0.21476055176622189,0.1747139136461508,0.22906041353939544,0.3045050268311794,0.19876489518282556
0.12213341019862795,1.3198578117082005,0.19660448863876692,0.19792051459011295,0.16194925221889778,0.21807004286476775,0.2892866322989581,0.30190732718498203
0.12336477216530756,1.320879180369071,0.1964244522370987,0.17872316300182475,0.14177799821121034,0.20398350334244084,0.26720989569115816,0.36261432469381566
0.13165536318484145,1.3215103361036715,0.1942255078264614,0.18151185248146615,0.15414462779021731,0.21211535383494118,0.2812669750740171,0.4043935238431866
0.15440203633016172,1.3417244416966403,0.22588768326729955,0.21870917240023835,0.1927809908735263,0.26901029113334646,0.34607737913482384,0.4188417585987289
0.15041399409706752,1.3573534911239968,0.22444790995714725,0.20612647973407547,0.1414380153082925,0.2218430653700575,0.2915706708792921,0.2419183195608802
0.142651903739965,1.3226933129799743,0.22854658880458523,0.21597388031865675,0.11977060638887779,0.20568218022704438,0.27501818129194017,0.04908108206876631
0.16098469621412614,1.2813278451878558,0.24583739643943428,0.23218472894551334,0.09858516365350306,0.19219097131587864,0.27687950671475925,-0.11264679083352479
0.19743094707520675,1.2139987597800523,0.27918634499418105,0.2744091939663445,0.11432241488168021,0.23904914518876855,0.3106912675431955,-0.19264836699038976
0.1843525972802662,1.0096007255955954,0.23656437608523834,0.21625771068121213,0.0966549129403277,0.20280050419507578,0.2738528873340781,-0.15203896956132312
0.16485589708789142,0.8121421356406755,0.20029496686120649,0.1803893015901166,0.08535910788564233,0.17158779278420047,0.24708559038567357,-0.13050093298425036
0.15535489034991667,0.653979496388533,0.16824016302861647,0.1481438334810911,0.08673978323444256,0.1726161533677797,0.24458985755009335,-0.0382834629634768
0.17657656690227114,0.6199602993210012,0.20344369495681536,0.18013418390472283,0.13279600461269775,0.2517685116692329,0.3384764446023503,0.10116634232678023
0.16670151267312547,0.5485373909594298,0.18329235999282117,0.16486306636254544,0.13476473658395774,0.26654317655745496,0.35552037885754156,0.24941933010131898
0.16200993719904422,0.4595888969154834,0.16534119135342717,0.14518023735779265,0.17617445000759543,0.2789425068420065,0.3784031919649664,0.5973102254828856
0.15841675482747639,0.4696988859127423,0.15873367121579385,0.1333697500686989,0.2209902177249038,0.3116004894872695,0.4105654251224762,0.928994531039866
0.18985823840568788,0.543566142184404,0.20807970338205986,0.19800813521297725,0.2940367759378799,0.3955833196637491,0.510130052312205,1.0387148733545506
0.2126608195727826,0.5998289888160722,0.2197495343524922,0.2011066063768957,0.3054392460774139,0.41262832554805295,0.5335794332100058,0.9246199247271459
0.21688578421039847,0.666055362145841,0.2280585482897297,0.2142011337317435,0.25458482173997743,0.37325876280178294,0.4908932397401143,0.6998318694342961
0.20548725497793796,0.6610257063936146,0.21537859645354357,0.19869899234920613,0.214073389814965,0.32611061386254747,0.42846479478609545,0.5124992426485576
0.22811558600252724,0.706178086760213,0.2564489956030443,0.2463169073492641,0.24180707878009672,0.3612124850211281,0.48140812624521434,0.34692959419661096
0.2325575459990429,0.8505625682755049,0.26775870408910163,0.26840764606393785,0.21169069125888576,0.3549971951972757,0.4562005627129434,0.15886057859730537
0.21376672329391563,1.0036898563953598,0.2769859367156931,0.2754812895242688,0.16672653542300572,0.2855404637743979,0.37768669444953284,0.03753430404274208
0.19072796058927294,1.1613649408449362,0.2525063836355401,0.24206123388450806,0.12082250993674684,0.2203023965822954,0.3149156893071216,-0.04155876499787145
0.18075906381446546,1.2740413385128067,0.27124049972809294,0.27681580788966126,0.16505613245681897,0.2886306542090731,0.38250919254204213,0.28393650953642974
0.18507153854794878,1.3470233953651674,0.2976011384383587,0.2941347109852201,0.23806390076906161,0.34140078806436247,0.43511656603468374,0.5640673062364285
0.18621272827254587,1.391946389800148,0.28787169911694016,0.2811648039058911,0.21024284831367568,0.31083261511086296,0.40828947373082863,0.6424524056726135
0.17895609273398977,1.404844292418525,0.2631239480142539,0.2699394016836631,0.20059156335270173,0.28107892918532007,0.36706469814352877,0.7519079853801092
0.1643041730231453,1.4382211817983395,0.2693998474213597,0.2635070900980169,0.18488715415147977,0.2645527113322761,0.3450408796067819,0.9937719600109705
0.22795118994883537,1.4615260249761919,0.3480490021374101,0.3590188020785834,0.3069150994238726,0.38256992862531675,0.46506369874305986,1.348808351940542
0.2558764371747638,1.4605101337989823,0.4029181621640343,0.42655187709151465,0.34467858849824623,0.4137273245639262,0.49467155530249807,1.6636802606462218
0.2656324347746245,1.498397868400037,0.4395693574322583,0.47066117158916676,0.41541584834507206,0.4227707534893933,0.5172016704474475,1.9828204021630387
0.27170582859030884,1.534805081775729,0.4776119738528662,0.5311444629425096,0.4436364683327151,0.45882121339576215,0.5526508689577001,2.342582530611147
0.3051458340681581,1.57180339838946,0.5357677179785432,0.6348267814644062,0.545541464669665,0.5568895904503637,0.6609061979090146,2.90375383851999
0.3161287955013784,1.5847708683557529,0.5623397310441952,0.6512186667417043,0.6079717250873033,0.6067521779645263,0.7115204231814178,3.1317323896259044
0.32072369744658,1.5690039703397338,0.5559280443198216,0.6655719347590832,0.6328695322536507,0.6253664176461695,0.7382579861019872,3.3358508965402462
0.3140615279799867,1.5861104092711695,0.5398339018830789,0.6517350929667862,0.645336032931012,0.6369793367890246,0.7605377346855672,3.422573704057643
0.33528608982205155,1.6012090774293979,0.5681144803788103,0.6765420310139278,0.7070468370027693,0.7165235578790411,0.8342483981732375,3.431805605759296
0.3380873434393606,1.6009143982548109,0.5498716650749084,0.6720161613113498,0.7258273139344646,0.7569365412263184,0.8822448892357581,3.337624675613148
0.34030804264511716,1.6048111966111462,0.5493977520265368,0.6582416859273792,0.6892796900171007,0.7516036237289399,0.8732347622045316,3.12932412323901
0.3271021800790791,1.5575079802981626,0.527075254834794,0.6295283438116485,0.6457211010299423,0.7209928963505695,0.8508893301419578,2.52221753739392
0.3386983343992638,1.5095884035100675,0.5420816145514036,0.666619801263981,0.6121844441577783,0.7428202281640786,0.8704993577240782,1.887461310150496
0.3679947712452404,1.468357100997916,0.5403225417149452,0.6175411913089458,0.5422907880733084,0.6883040351936474,0.8083592298484734,1.1375389738099753
0.3589265398060501,1.408462870641062,0.4943643553668659,0.5204932908797418,0.3929962992280881,0.5602966214822767,0.6486100743301061,0.2891292245656127
0.33682221193679657,1.3116079962490483,0.4342056339587931,0.4298001772400068,0.2347227009945437,0.41262741540604914,0.4816948067979775,-0.266243057953394
0.3179390367658958,1.225629609514781,0.40528931002816204,0.385846853597225,0.1320586749244472,0.309206308271336,0.3782973211921131,-0.6084626795134205
0.33849218721300284,1.0758082439819188,0.4440096418186919,0.4439078451462723,0.15667653678229818,0.3448335370514735,0.39191383940093977,-0.7460945598461917
0.3266212440444301,0.7965350078373908,0.3888602668423644,0.392919193844903,0.141808361031203,0.3253144294056005,0.3722007608602226,-0.7090189933304897
0.2554717383690082,0.5293160704931044,0.3141541791694413,0.2962075644714469,0.10779550783946197,0.2734952176496856,0.31899946457113215,-0.5524575629464918
0.22640554868888602,0.30601471609748865,0.26273151779681164,0.2599531864987177,0.06445707933154488,0.20304418692515905,0.24629122833893644,-0.29984897086979684
0.18150724990233155,0.1004400959234639,0.23000594221604076,0.23818877360880666,0.068981307528866,0.19500875924769212,0.2327417761923952,0.07792072103103737
0.11785400172962934,-0.14800988070858462,0.1805182231703706,0.19953289110771227,0.159443871780619,0.28098825533032507,0.32320656648505564,0.48147973831092605
0.04150215967855139,-0.3027805803423661,0.07518723687384019,0.07757051279011948,0.11571667457421718,0.22374204001253534,0.2599667612605593,0.48765307400982466
-0.005266481952517596,-0.3620455321989846,-0.02286647080180465,-0.030388637049083324,0.07872058398747325,0.18008491025054243,0.22304196599948295,0.22472884128725937
-0.02944611637137777,-0.3876980250454434,-0.07912099243634849,-0.0960159229492622,0.0767448322390965,0.15653184063893322,0.1955987737045824,0.30839299297302386
-0.02713573734315675,-0.3784288191820493,-0.05653620639077274,-0.07002023426169343,0.08323177063621329,0.1854861889783169,0.23161913806166104,0.28131207090494537
-0.03256255284731397,-0.30367242200605743,-0.0708228112996051,-0.08163285025557443,0.06915671336238055,0.18727863498924854,0.22613803053593973,0.28383362936359574
-0.022421821898027126,-0.24576765216418778,-0.06392626827882074,-0.0750550341509551,-0.011264282017046377,0.11351978493583625,0.16374212491404272,0.0765952488822433
-0.03942757225569557,-0.20171115088066421,-0.06396781516583268,-0.09313554367383774,-0.05477639804354772,0.058140412973357675,0.10699671891313227,-0.04185465815182664
-0.03259569316673346,-0.2050888085299945,-0.06578967064553014,-0.09577971645098357,-0.04795861304443639,0.06573058163129536,0.10190572132390871,-0.03750728019754428
-0.04393180126112406,-0.2519506564310272,-0.07319419271059842,-0.10214884842243374,-0.005011778471799387,0.10763939933093376,0.1400049972595341,0.06001893315245038
-0.07225540846647438,-0.3116842783736227,-0.11231798726010592,-0.14792707572429006,-0.0627701676008339,0.04295067018113285,0.08344820038795359,0.02609565917200858
-0.10599576992498633,-0.3865935698635386,-0.17263152588324232,-0.21418903999158356,-0.07400616957654552,0.019205658883790663,0.05882478715610756,0.1862491616821233
-0.12020493108065619,-0.43303604947352264,-0.19364629930786192,-0.22579755696781745,-0.054356484851219994,0.055745699963277814,0.09178621603039697,0.25651482184946806
-0.10967618852215703,-0.485192357362728,-0.17354720386304262,-0.18795509153624232,0.008186500766980399,0.10421637853509501,0.16092662040583564,0.408354900044838
-0.12420420877623746,-0.5568020214719697,-0.17984274452844973,-0.19483881715176737,-0.037497363628191074,0.0423312110214992,0.07950420586635182,0.4529453559882517
-0.12019707803915095,-0.5802800110745105,-0.17761447939961772,-0.19858727662023362,-0.04701758458799856,1.1609274313088835E-4,0.0329067614411174,0.5350922845056365
-0.1064335877869735,-0.6153982148126087,-0.1598626006214868,-0.17507374680169105,-0.022350549442648852,0.05446789730201318,0.09550091582917761,0.7316432098251533
-0.08778749125367878,-0.5639548709491644,-0.12675586488332802,-0.13049196211330583,0.0423722114188399,0.12666249937451515,0.17568939864456906,0.8800602360821137
-0.09136974458451319,-0.5208511847348726,-0.12580312340724442,-0.13574826868890738,0.004200873534366614,0.0988950274929087,0.1461002133806325,0.918739505767874
-0.10543046050449997,-0.4005147744399156,-0.1468556261726481,-0.16923224107528737,-0.00647979376943373,0.05837926497550441,0.10459019669639685,0.8560574596969974
-0.08343370148829127,-0.27801605114811034,-0.12095071769183224,-0.13766314253974263,0.029063762807678636,0.10661034732967539,0.16984701806480262,0.6748800966690691
-0.06268510548703496,-0.20860724695162491,-0.07500733626205044,-0.10565871397567547,0.051750567368252065,0.14456046387302046,0.19791489465737083,0.49052447515110825
-0.06641160668697932,-0.20093688121256734,-0.11053182014709728,-0.13911129905172567,-0.015128689751353862,0.08677573323954779,0.13580360478316378,0.3449603411934285
-0.074596892359105,-0.15916899856590377,-0.1340579027551369,-0.17176954266692485,-0.037089365781884175,0.057702359846778545,0.11277549526906198,0.3865639940950127
-0.06712621414079592,-0.13439276186607843,-0.12293470119244984,-0.14289565759694856,0.04541582443852327,0.15461326629182626,0.21536667019942432,0.5805384687789337
-0.050774939868588345,-0.16452393986885078,-0.07060675494322247,-0.07440378640023024,0.06993561291062772,0.17801183876145213,0.24270674137957035,0.6204290540844282
-0.0447425399879607,-0.1709084587527031,-0.07328085446493793,-0.08405525784688958,0.04050115915830008,0.12145180898986643,0.17637021700121303,0.5984535743434408
-0.052787172424729835,-0.18346368601625102,-0.08431049225645129,-0.10039350930587687,0.035647276864359756,0.11622037432146812,0.16781580181813377,0.687223455550044
-0.024459501060154584,-0.12962212391283595,-0.032331447192650714,-0.029632808239649647,0.11012635025276513,0.21049789071403519,0.2797398659517256,0.7388708839221374
-0.04058171614115412,-0.13470528229509574,-0.05299257828843945,-0.0685496752554575,0.10426002747098885,0.20332094265025408,0.2612590905055965,0.7707250149949569
-0.0449325535278398,-0.13268393173198137,-0.08276138788517375,-0.10149214166809109,0.09681653813967962,0.17988596834597298,0.24303787908547225,0.7913053128916865
-0.03870640658559346,-0.1376270596404692,-0.07138647355404963,-0.07847330221861841,0.0994507077140325,0.19316763635296452,0.24884099137767823,0.8186966555456704
-0.013934888328195833,-0.13169718449644827,-0.043362904136241685,-0.03780049731872367,0.1724663110666441,0.27462401961730426,0.34153904980720806,0.8966567429934148
-0.013712299917138977,-0.14377212821625235,-0.03762528091837869,-0.051658369189910146,0.16249152391345464,0.23892098729309874,0.30053275404157365,0.9081140808379842
-0.020409416662666366,-0.14245848240019396,-0.05793164587783909,-0.06109225795212401,0.14171592185713697,0.2297629710972647,0.28428799103678615,0.8932576369636309
-0.0026725036207066385,-0.13333509624947745,-0.027012528547109713,-0.02258750577037124,0.1814139548755647,0.26715001184798154,0.33685558645687913,0.9514724574713057
-0.0035977782315878976,-0.11496559838826363,-0.011058263512979498,-0.008130186788517443,0.2076761849414121,0.32752337335219606,0.3910564733576757,0.9998395958837694
-7.732484384095975E-4,-0.16075454975879563,-0.027260257017706842,-0.03138162195727184,0.20895646055478906,0.30473386923536594,0.37178809570296334,1.001559064645981
-0.00932606665735666,-0.15822365929726884,-0.034914010280433484,-0.037321707897824914,0.20085538169688927,0.28968183260988967,0.3685202253452441,0.9940952152061131
0.02101425569958079,-0.13988241183488048,0.007842772354100434,0.01637078034398723,0.2615974446918051,0.380446823230489,0.45359084845180786,1.0637595904281372
0.010408025029388698,-0.1453173390651779,-0.005950268390381763,-0.0035430166793102916,0.2648630384266328,0.39627728110688165,0.4694067316985411,1.1302650754765065
0.0043858599323429795,-0.129210113093735,-0.02277447587407168,-0.028332843814915524,0.2659657634931742,0.37954897669924986,0.4645092357158537,1.1180691371502378
0.0177444111152905,-0.15629447624956003,-0.02798915275869208,-0.025948692152797714,0.2749513888114692,0.3987574078864385,0.47903925533279224,1.0842754396851817
0.03612876056869674,-0.1404705329922678,0.00532521314896927,0.010564291787432158,0.32956104276696163,0.4656729420348701,0.5667925086117369,1.0995889838962885
0.0284889009085783,-0.12404427804321137,-0.014583387402384927,-0.007953940609746149,0.3140330059086343,0.4614584713732479,0.5525645859646411,1.1154857133065403
0.023467984060874428,-0.13037731714502176,-0.025724850926879938,-0.0239687258965205,0.2961610056206903,0.441357990575879,0.5236742712374836,1.0895445792818192
0.034138753594406254,-0.12175323801002795,-0.013235194847394244,4.475333116687741E-4,0.3219035594148751,0.4740168516685102,0.5768678873529764,1.1265787336786974
0.03905268908960256,-0.10610677334637379,2.6920669362170274E-4,0.01321144103883691,0.35550264679009996,0.5145422074710881,0.6242682188435943,1.1264457050501426
0.0369235222521094,-0.10851135361319679,-0.002779356834733626,-0.005684313648281328,0.33754347064470047,0.49682270685302665,0.5861642427861521,1.1192765824163766
0.020327627923928976,-0.13200362681403482,-0.01639035348408023,-0.013804718467849038,0.3154624970170206,0.48232953850868526,0.5869076227631294,1.1325255891364967
0.03792605864793768,-0.1038949223921469,-5.258164764349385E-4,0.013243727964551907,0.3599400269349307,0.5349194663772939,0.6475933084738905,1.1770345631593813
0.025139624873084254,-0.1110026694335208,0.003156885025498643,0.004023892470999393,0.35904500422426616,0.5352639168236735,0.6519975917934683,1.1552328072639568
0.024496452447783982,-0.12690177487596294,-0.009792287888092485,-0.016833213719839576,0.3410836026504123,0.5217048087208835,0.6397433093050122,1.112148618984695
0.020773378304733133,-0.12917026405717255,-0.019616040864872418,-0.01386191119627906,0.3314264739249857,0.505352125896364,0.617327538552561,1.1570286816296103
0.03398005154811069,-0.12727796079131642,0.005161821161333235,0.01099444900380285,0.3771181391243544,0.5718427875727162,0.7026612485889675,1.128725752631399
0.030925716054458978,-0.1177869735270692,-0.0023377160588393883,0.008069488847448389,0.3656508594881803,0.570096052628504,0.6821143370115077,1.1506499328440052
0.02578073670912319,-0.12568841400050673,-0.016789560123301343,-0.022486216075594,0.3415221443538114,0.5372946755110282,0.6614291052053745,1.1377568596648324
0.024337843451615347,-0.13135876024439758,-0.013697218107779817,-0.014297170069603758,0.3445963067861694,0.5359872061107007,0.6646384403837977,1.1582104839666563
0.036070581425352334,-0.1201331513922701,0.007162529734913645,0.01274308620646708,0.38120963481086,0.6040771047581645,0.7228940283586714,1.1841902991475652
0.03120612223717718,-0.12020399272445215,-0.0031462860460562403,-0.0038053201093253275,0.3692715993938895,0.5741085433384594,0.7045691409771854,1.1712375538548658
0.026830972178094242,-0.13231126886455255,-0.01949193675326375,-0.01871857482080483,0.34495572491671167,0.5513934804969088,0.6746544807621877,1.188432421856243
0.018127642597040843,-0.11396538236908699,-0.023409469931148702,-0.005996194714581751,0.35036561348157297,0.5420773964724168,0.6768405493341214,1.1744763013154607
0.025256670630459385,-0.09722255203827675,8.608039239335619E-4,0.02265346832444247,0.39414527596772275,0.5869841724990268,0.7202941534634353,1.222589873190601
0.028984157230199016,-0.11412696772790747,-0.0033125355270070544,-4.8725824263284867E-4,0.37543063377787794,0.5669198346933866,0.7019263099655939,1.180129208477272
0.020581928070186925,-0.1270507567873383,-0.012773127787127678,-0.017026306506091833,0.353002705239311,0.5471257756592272,0.6722068053409913,1.170651736400811
0.023033104419165125,-0.12059698125724308,-0.028003785815522465,-0.019314303921152014,0.344504529242873,0.5316621660919519,0.6584821884891453,1.1593286429532543
0.03299695422487388,-0.09372680674825912,-0.0017550596748035358,0.026632783776045624,0.3814353855203174,0.5863018694412905,0.7109243796942204,1.1888063938608364
0.028991604290045214,-0.12010559249997928,-0.003816700194865519,0.008648282072523217,0.3823220936689562,0.5697498435018897,0.703790693753246,1.1476065153599815
0.012545147682769597,-0.11643288291263838,-0.012176984202544455,-0.003652795043112514,0.3733029624200558,0.5477057369514178,0.6821229842122201,1.1446620063374242
0.0141378828921556,-0.1285629622048393,-0.020821358124740195,-0.010774440289984685,0.34871940800833723,0.5219059575451777,0.6502190695885861,1.1509040290245196
0.0343763201698771,-0.12072173954162935,0.013253501553627936,0.032209449112037644,0.39895472100401835,0.5887868895682883,0.7192649349507535,1.1472429643654267
0.04017824438713426,-0.11672288309306393,0.003342328884214041,0.030411196509491034,0.39599693911011674,0.5743983029469939,0.7137862795366154,1.1659627987523054
0.0360437951869879,-0.12399199870762226,-0.0017578912598527757,0.015179518061795072,0.38854535972843224,0.5665595082330632,0.6841215671463065,1.1373182287213708
0.023226410392364963,-0.12084001030605371,-0.016845698798020434,-0.012593361775978043,0.3659881936039891,0.5271716075075856,0.637338745656814,1.1254724064468562
0.04356623823001321,-0.09905771911066168,0.02380049185589196,0.03280337569664871,0.41651369877092,0.5878970559534289,0.70997256356986,1.1848155997549217
0.05542697898559901,-0.10892786584362088,0.026756530310898474,0.03763008693296775,0.42813535844590817,0.5970043270817925,0.7246914480240676,1.1580346902093583
0.05149689727683116,-0.11847471390765554,0.01728024821233265,0.03446732419609541,0.41325839008319476,0.5880108344066929,0.7104876811493207,1.2031560210731629
0.044163849000146804,-0.11162043044454575,0.008505021610974939,0.005517242678213602,0.3851866099690223,0.5524184172214692,0.6577477247890784,1.1580688640108592
0.04186188313787173,-0.09939480340418877,-0.00288444777001326,0.009335643112448805,0.38319403174830363,0.5405498141766525,0.6500748218039873,1.175421706921262
0.0640191063931011,-0.09246643323090742,0.04026131942124608,0.04988291532516344,0.42624233753138013,0.6066908678626048,0.727491902928924,1.1936683163646555
0.07059127294439684,-0.07930514013635151,0.045762857917294605,0.046630009660312874,0.4203365766578662,0.5991207047851453,0.7171361285057444,1.206218348014295
0.07479850292071855,-0.09167093840556355,0.05288706363714357,0.07914512966831554,0.43300935570190485,0.6115114961934461,0.7372246545172291,1.1471131882851613
0.05557933982507969,-0.09891362993253047,0.05413721336284821,0.06236926714844104,0.38987218322956446,0.5584955135349854,0.6751708863566181,1.1050616104887132
0.04755150095788481,-0.11607507398419944,0.03586383917729383,0.05417907819964729,0.35123073761367557,0.5024161694731999,0.6139998744446435,1.0073724670115975
0.07147195410773506,-0.08130906785532117,0.0741972954785716,0.1055701940297664,0.4133802831283332,0.5663829953835444,0.6777930689101627,1.0079867932666702
0.07621973558884028,-0.10212576574617974,0.07628424306881519,0.09880839655181224,0.40387734786065377,0.559704144096516,0.6594643177268952,1.0109625101980972
0.07579088250228831,-0.10583632185185717,0.060185345330884155,0.08756966784407706,0.38098554123323836,0.5341563537702678,0.630052346394271,0.9982254103805752
0.06399320430818128,-0.12255994256401181,0.04593075334409494,0.06370943646835164,0.3519195514446701,0.4961807088426845,0.5921567277027259,0.9771506609459238
0.04176348238380259,-0.13846815538569562,0.023457781009957088,0.03298435424202069,0.3288040885616494,0.44969348300387946,0.5406754884954466,0.9113055902180189
0.061832477760624095,-0.11220091123468179,0.03683473975795351,0.05454171486015949,0.3652159041939998,0.5097285424875416,0.608851700746935,0.9751001420149253
0.0590061322568681,-0.1155385945007442,0.015908611925798413,0.04173262854160356,0.36611150335282794,0.4996031135362167,0.5889101675655913,0.9505383112833691
0.05403133104060298,-0.13336648978284785,0.0017478872202171952,0.01815373938436403,0.3492589602670213,0.49180252627203214,0.5857510423741711,1.0050172169127656
0.04079434444926869,-0.14634090912673328,-0.01882605173448583,-0.013460427559363483,0.3334519103909175,0.44978982064435197,0.5447085318594239,0.9816442299193161
0.043719104738846735,-0.11786748373180178,-0.014800748567439681,0.0037498042509817447,0.33953078089215954,0.47088102228661527,0.5550469519579803,1.0115567211271252
0.05981974446192881,-0.11963644721674338,0.00836334144406252,0.03265538305665719,0.3712946299446608,0.515177308606159,0.6009993125333518,1.0622694757564446
0.05644718551219801,-0.1358316102887875,0.0024661428245261324,0.018031205437103667,0.3586118500543814,0.4996323326418248,0.5934813850666596,1.0424579365543392
0.046903585676246765,-0.13247612048774848,-0.0062992341221070475,0.003321799621607266,0.32904513452332196,0.47540577388113,0.5753608766194152,1.051203546541831
0.05012835224471825,-0.1395309580247452,-0.0013162926997485613,-4.3780198372127266E-4,0.3406291722188867,0.4751046719814448,0.5768115979024386,1.070558871133058
0.06702178627252378,-0.11083141034203062,0.01634860236474532,0.04336579301831574,0.38009404388928775,0.5388255136814843,0.646022843763283,1.094592984096359
0.066523957546659,-0.11374055015434052,0.015544724771768492,0.029809039726167524,0.37569078626421026,0.5297656921226025,0.6383039052979264,1.0728504568645534
0.05558563951944549,-0.12420025324771675,0.0013049705362406655,0.009353442703713785,0.3524384042822067,0.5111113902803679,0.6225706588054625,1.080299111126319
0.04633819593439066,-0.1352411378583106,-0.013115883547760124,-0.009663663936411951,0.3517471974629432,0.4821050225799858,0.595719357537347,1.1131321955459652
0.06140051312278534,-0.13948939938822028,0.017677712278907506,0.027818044229277597,0.38908483342913347,0.545157073081384,0.6644967584245263,1.0866790101640398
0.07104599565234024,-0.13464113097848135,0.020292034549355353,0.03295301489702772,0.3956190864788486,0.5651023131367041,0.6762039357459969,1.0779277750871088
0.060382961683032796,-0.14976656013285736,0.01121153000491655,0.025714617251521743,0.38939513497829964,0.5440222659657025,0.6659101911007229,1.103278847269751
0.050703261972693855,-0.13125598532225854,-0.008574378262717397,9.651511918438715E-4,0.35163547605509193,0.5029885196950118,0.6311046894635464,1.0938173175664068
0.06409320062329885,-0.13770745152730296,6.367435437706903E-6,0.01735101828317459,0.3860208212701324,0.5431820052054831,0.6693176788367691,1.0784096221468034
0.0647332427447313,-0.12709470257836375,0.01440721288491896,0.03220379432188057,0.4010886108643338,0.5741798895295253,0.692480880903827,1.1325792004688036
0.07173519900602626,-0.14665541816647162,0.01436757372018449,0.02232637616422535,0.39452227104091686,0.5625331147068705,0.6843646888846922,1.1479551942826505
0.04636319240102961,-0.12659467266915003,-0.015104254901717587,0.0027374193827579274,0.3839051568254621,0.5514625459212676,0.6584246679619195,1.132123981264781
0.051336144015769504,-0.14547783278538032,-0.011968379531329454,-0.0021086144776201604,0.36703971586631495,0.5390630111233989,0.6542142194368422,1.1079135105819968
0.07240772618072275,-0.12458203836764334,0.01661301005820233,0.030807818996793357,0.40785556018902897,0.5965614503754005,0.7056783188810726,1.1701805436590815
0.06896599043049965,-0.12443836520617498,0.0165982860152373,0.02397215859652707,0.420070666374748,0.5854121104561673,0.6971909987293544,1.1838646498977252
0.061123058354188645,-0.13284354298691015,-3.0004250226160767E-4,0.007328946101151007,0.3942835500635739,0.5707232727567432,0.6859087765689038,1.1654006969631445
0.03905403541005746,-0.14300578427270388,-0.024303661225148376,-0.017990265357509194,0.36986659439310327,0.5340197103599904,0.6449331674649398,1.158096656439871
0.04741052012642119,-0.13649831779873953,-0.012703009151616679,0.0037987676640494628,0.38195316910444543,0.5472504431073916,0.6646493163396855,1.1493937639663556
0.06716584978859852,-0.11912668078628695,0.007488783281652062,0.018924097388605204,0.41443965375385433,0.595306423175793,0.7101343716822611,1.1889622984246533
0.06586338773912366,-0.13870407680398986,0.005275900226959174,0.0113842816795178,0.4087534066457167,0.5787693155501062,0.6980519956554161,1.1617733266924306
0.051941943439266336,-0.1433936577254648,-0.017551739346568188,-0.015857901596524226,0.3905840022970059,0.5526167967607748,0.6684871132331672,1.1707238807801927
0.02593599750925154,-0.1683676390965173,-0.05010260639852718,-0.04737724164316874,0.35357566229636705,0.5126489804931957,0.6245213654277575,1.1724788005222813
0.011063720221627028,-0.16626361562662317,-0.058252250685035575,-0.06749497038968576,0.33206351100982984,0.48489088241431527,0.5915759300036729,1.1210717380710564
0.03668595539202159,-0.15833652593536698,-0.03582197724557673,-0.024797926552968294,0.37926863824594187,0.5376763494268023,0.6553930270751025,1.1410587523707114
0.03355509821816848,-0.185082161168867,-0.041461062085072165,-0.0322077324737612,0.37765460046223676,0.5227256585750183,0.642515813270423,1.1215639874650931
0.021947590932793797,-0.19621311707387473,-0.060574772658049086,-0.054091895685388455,0.3635716120235372,0.5234235237188196,0.643558947592035,1.1289567181705433
0.010956199423854708,-0.23204572062469014,-0.07931586302727121,-0.08799940111743991,0.3453213301052257,0.4919876948599792,0.5860467906943309,1.12697144159602
-0.0042475916493743965,-0.23671833901922965,-0.093411757766538,-0.09978985382010536,0.3398403104970695,0.48336331423185647,0.574666786225848,1.1544492398049817
0.013509458848676291,-0.20837552471058784,-0.07435383870589582,-0.06236545222629317,0.37023629210530246,0.5230009206110237,0.632916019295577,1.2044962623591786
0.010385866227954281,-0.22620266776559045,-0.07598584317451809,-0.07976315481925815,0.37435534078832483,0.5240366851063225,0.6258794086943295,1.2445778829746428
-0.002453752524544675,-0.2176217079549853,-0.09239536323413351,-0.09308734428645811,0.3641173179078675,0.5033727743527001,0.6137592275088011,1.230113160078604
-0.01586945338396474,-0.23790265761115592,-0.11578721766094514,-0.11509253789428814,0.3227500387023928,0.4605427470038819,0.5789910439677189,1.2482069123658663
-0.0010652026667753445,-0.2261786427019386,-0.0989439649192657,-0.09940299067073924,0.3571342764356965,0.49926971564358785,0.6084087016518034,1.29222295469265
0.009580938921917276,-0.2374593465265395,-0.08065593960955199,-0.07628892000984916,0.3854116494334428,0.5138179231253742,0.6319765741667144,1.331719319407098
0.004208480238488063,-0.26148517959949036,-0.08790457161953233,-0.08796920756484972,0.3691407744200396,0.5119710687379375,0.6139731241086905,1.3281895110816546
-0.012635161494804162,-0.2747485193635818,-0.10694107856430585,-0.10880324128036545,0.34570153005389315,0.48721692673017186,0.5965912369815529,1.367525859510362
-0.03378725728512705,-0.2575435903082482,-0.141837277060733,-0.14862108622878237,0.3227390485272661,0.4454712084685346,0.541973774490746,1.3365711252246897
-0.008850345452789413,-0.2613732338335424,-0.10928324215533969,-0.11086742461909534,0.34859795699579116,0.4806511303428251,0.5929748559638893,1.3697162695470768
-0.011695480572333161,-0.25469506420338794,-0.10997411364283843,-0.10296879993821109,0.3677006377731784,0.5028647378588207,0.6092900711752703,1.4155231664687835
-0.006249837648101428,-0.2697940247151278,-0.10591817172521674,-0.09510619795014408,0.3577536210187783,0.49503588532436005,0.618031473850946,1.3942323691642224
-0.020837644859250333,-0.2805706578815661,-0.11396122203080615,-0.12441225949305493,0.360987929454323,0.4720223844559675,0.5847243540737507,1.3883707228116589
-0.022543951998055922,-0.31071794096259453,-0.12901759588019668,-0.14053870026717044,0.33264174886545206,0.44809047984902,0.5564246133150814,1.3749980431599105
-0.007531765627852613,-0.24835954306219832,-0.10395033417696176,-0.09556069691323926,0.377367463641467,0.5038314134521599,0.6263712605413778,1.3856750112116822
-0.014073201414767221,-0.24146446499017324,-0.1057390887320139,-0.10515944104742814,0.3793103312462496,0.5141417909770056,0.6277006524003201,1.3880766866679317
-0.015583575917984899,-0.29645513796008477,-0.10900730143557866,-0.10745427093464163,0.371654776049224,0.5019607631150272,0.6074482774830624,1.4060342566202693
-0.022617517397178592,-0.2976676471474089,-0.12274642282478741,-0.13881528750515215,0.33964410180453364,0.4704128478114255,0.5874832790586161,1.3573884194025174
-0.01763455928939104,-0.2893213549290133,-0.12232046153552953,-0.13004508740279055,0.3498165064780878,0.4721088265397456,0.5907142631937471,1.3602452723560576
-0.014324320883668432,-0.2793184012354435,-0.09074676808524876,-0.10183323777641949,0.3879163516907378,0.5337117472784879,0.6508104985808848,1.3815653807062824
-0.009629984124695928,-0.3081760817095009,-0.09763850259528646,-0.10129559822271822,0.38125552958473746,0.5121737719065095,0.6483105191859884,1.3627771735155432
-0.016584191469558106,-0.2863771139072165,-0.10159277231368938,-0.11193052598026884,0.3829458285049065,0.5060792275655457,0.6257412146950199,1.3699236804304042
-0.028276930561577047,-0.2733522973766945,-0.13386346579808833,-0.14435816915435704,0.34673326463919807,0.46783436605136425,0.5868821684390853,1.3805274972824477
-0.03315041007087871,-0.2682174017279071,-0.13036881280645723,-0.13178473754478384,0.3465753553179176,0.4705238484398162,0.5961249636747246,1.4078076995639142
-0.008278001804859998,-0.28597043624069074,-0.10304649616077655,-0.10416052821402799,0.39199996944125387,0.5308113615257175,0.6506419036084833,1.382148794476546
-0.01729920766350221,-0.27384216921398724,-0.10869613210568027,-0.11632907915134835,0.3944589109743894,0.5296908211938998,0.6481271814508426,1.4088265873043346
-0.028768227596904672,-0.28487230035962585,-0.1287622738210853,-0.13305020571649606,0.36689844972103774,0.513558269338528,0.6354007846109507,1.4051672589247015
-0.0427936431636811,-0.30716313310492505,-0.1539032749072446,-0.16331842166889643,0.34293406963516604,0.46999039617175714,0.5961108770105119,1.4053193968625028
-0.056314137209982004,-0.31584871571396295,-0.15689645253896609,-0.1663314948252781,0.323986492879179,0.4433114342387934,0.5627797555164681,1.3733465956205597
-0.036832030016689415,-0.3027902538728155,-0.12735628117251147,-0.12421254678674468,0.3706289535966805,0.5071583456901946,0.6274332130539082,1.3839661877864922
-0.039577206678825555,-0.29123008998651845,-0.1352170821440528,-0.13282156559411945,0.3569707459492521,0.5063894871378367,0.6170561432984005,1.4400592378528072
-0.04068660625145566,-0.309904040433589,-0.14241180480998966,-0.13751114987854962,0.3490522466003136,0.49974590039556793,0.6087701803456593,1.403681198941596
-0.055848473013641424,-0.2957795777905781,-0.15830528571922642,-0.17422025859159565,0.32823247842317943,0.45505724480753756,0.5613573355995239,1.3761440266217353
-0.06645363643577773,-0.31300525098276893,-0.17782915961714327,-0.1821954469176164,0.2966837005736046,0.42238679219047587,0.5521953855270015,1.3893428488701471
-0.04573071629144099,-0.3208140913165496,-0.1365173133138238,-0.14855430435039563,0.3369189013121757,0.4854232773856039,0.5962940939138728,1.4013500008793642
-0.04981526476915303,-0.31487807304718546,-0.14278027421531847,-0.14039761959444721,0.3382870434802941,0.4798177592961974,0.5918155527291896,1.3798359113099157
-0.054375963857072315,-0.31512090380131214,-0.14607139045748185,-0.15851145540639083,0.34077933500773283,0.44877480492782756,0.586256298896416,1.3603877943572174
-0.06572434491532225,-0.323339255184988,-0.17677467119194595,-0.18779932876731126,0.29896373417927025,0.4264132969160379,0.5453055421521181,1.3317364273672565
-0.0728927074209811,-0.3151215734026598,-0.1792310664869519,-0.19310185433546317,0.2604579061370473,0.3795198102303427,0.4856977926867352,1.314360958060522
-0.03939225120700133,-0.25761420298963705,-0.10329804081542483,-0.09424333296877194,0.2728999234896174,0.4117441076167546,0.517658013988104,1.2932370289433874
-0.022166617217504472,-0.25406973194159715,-0.06717646583994873,-0.05780642473917738,0.27035548372727947,0.4137008297480532,0.5065939730013385,1.1823866292723608
-0.02127681419257517,-0.24947966550622494,-0.04952388550019837,-0.02421783845312038,0.27218378429102513,0.3957278686478894,0.4917165210156762,1.1488506786232777
-0.020803926033621516,-0.23574021315616536,-0.06758654146968043,-0.04178576263808037,0.23838152935399756,0.3681376672693239,0.45208689486310244,1.097572057217692
-0.04714395885370124,-0.27280591564875356,-0.10130525001818463,-0.09546215315453219,0.21548677492521867,0.3138801194821293,0.40710878360849495,1.0823030803502984
-0.04927080991847079,-0.2568889254243541,-0.09951497760161764,-0.09599767608856591,0.2279776680541552,0.33512305245105006,0.4325844672862651,1.1234589737245346
-0.03835887483179282,-0.2609841833262528,-0.09427707209189048,-0.08330659006236905,0.2596101056961469,0.36918976833296346,0.4664651756753798,1.1112092643324438
-0.045648086716117725,-0.2474738308714294,-0.12723268660959872,-0.12320745770489704,0.25028584472362575,0.3564968196366913,0.4419116161818844,1.1009166290945505
-0.056801848154639935,-0.21996525542344927,-0.13022167165737128,-0.141483034346939,0.21970599714041783,0.3351614422188043,0.4246997925823444,1.005084424264939
-0.05021159154336428,-0.19154387892338878,-0.14013154542146858,-0.15135387655342486,0.17251756230694038,0.2799390082767597,0.3591217672320543,0.9093693316498808
-0.04293361577951056,-0.11454223466106639,-0.12253821616796777,-0.133540129293674,0.18485239894429284,0.29029340192178515,0.3732040030051036,0.7480352153079681
-0.021564513615679595,0.0203236004411783,-0.08325814498366033,-0.08943012147387956,0.19414932138393282,0.3052903511692234,0.3818144645476259,0.5990422037577499
-0.003866321373298065,0.18384798959942641,-0.01848966448601659,-0.0017355320791399703,0.1842309261311788,0.30759175476711736,0.3701847296477926,0.3073334599244702
0.0023237131072889675,0.40962573978927747,-0.006057799851250406,0.019919645166756317,0.17769478751744316,0.31340718784855853,0.35317017442165843,0.03795088198024893
-0.00245414588286089,0.6707307743912425,0.004823757934381279,0.01529091693003623,0.140146015997964,0.24952385029072607,0.2972200757997036,-0.13184800899013305
0.023471462646555537,0.8914853964298921,0.06715644556278151,0.07280969402797417,0.16394155636338004,0.2855118611004806,0.32855865951022856,-0.18970182249991036
0.048705589204032576,0.9948700668840178,0.07846825809639531,0.08727807237915654,0.18232203201268843,0.3010126628657143,0.32025368189936876,-0.17485703504466812
0.046493009529145576,1.0632644646448315,0.07425650065600348,0.07942830799174519,0.19520683623756593,0.2718579615821764,0.3036543184770551,-0.08725748442694946
0.05532273566015165,1.101408869450946,0.07965841466881679,0.07400490642018162,0.18475752298658568,0.24455279119604797,0.2693979129928801,-0.06565505973770408
0.06630805408984425,1.1443695176196476,0.10107521043638155,0.09543341946410114,0.18165373425638237,0.2446457573579691,0.26667521191088733,0.060091084397643144
0.09823221209614352,1.182824649276396,0.15489336016587005,0.17193789685302913,0.24294536098516853,0.31381873504487096,0.33820235680285915,0.18462761036587916
0.10131050508802215,1.203020278137469,0.1597718573071352,0.17253153603812668,0.26981559481749245,0.3110112547076509,0.35302551629051143,0.45258204445371514
0.10857080477994183,1.2333020953333294,0.16053364180062735,0.18439607820317627,0.2993287274142993,0.337168050622512,0.3629316148638509,0.7109080329808285
0.11973050378533844,1.2369871780623036,0.18865788779302972,0.20811172329658392,0.33565690386195407,0.3417039560577721,0.3837842490496635,0.8002345011306867
0.15257868911269168,1.2523276537217651,0.23996353424516054,0.291677500282547,0.38777275704574554,0.42715594177935373,0.4767151190374187,0.9692950721836063
0.17616190436890972,1.286600744407749,0.27239902961978885,0.3304916491915236,0.4455495772333189,0.47561303034224867,0.5487412329882833,1.15078822018569
0.18725353779616516,1.291720868769397,0.2833262141002746,0.3486189299763457,0.47958254433395603,0.5205819663069057,0.5877670221440353,1.1791239537131353
0.17968567399569738,1.2660515836492572,0.28240147519941755,0.3470629997580025,0.4380615672873239,0.4993171033139698,0.5763226101240395,0.9898379009578306
0.18214945787662634,1.256359509631829,0.2974708096512727,0.3921238357363298,0.39960505125830664,0.5088028000335801,0.5869537293743448,0.5642214662983804
0.19148733428250023,1.2096131234672534,0.3387172868396764,0.4595951596400878,0.3649374979767452,0.5330177221106148,0.6221604645897534,0.0691107478815122
0.18276167144563205,1.1897391857330073,0.3346940580208132,0.4587794159029295,0.3092643850192256,0.4869635607559956,0.5403083949360742,-0.23820990870406392
0.17608664442426947,1.1187680816978123,0.30570122925697285,0.4263854141760017,0.25518707028602355,0.4697217124729577,0.5130531908302058,-0.4621836891876288
0.13464268597233403,0.8719577575883316,0.2343381216070868,0.30751500041367125,0.18396415273132416,0.42162347627533975,0.4562292398092668,-0.7747853212175286
0.07383245374727504,0.4700162591445201,0.08622425745523812,0.10854106701327598,0.10803191091196845,0.325505619553353,0.3471335538868535,-0.6088921007903696
0.048957395954393086,0.19229868898088515,0.04851918466202236,0.0835043398272003,0.18663142825112508,0.4085357940820552,0.44019837243066073,-0.2561030146757408
0.013159216030401016,0.01956199646079637,-0.00128167026009747,0.045135423339047256,0.231008301455766,0.4144550121387035,0.44392594404241853,-0.027336512815982247
0.003994506946631629,-0.10054207735248398,-0.034130076261184916,-0.017545894298754805,0.2127710342886933,0.3918621613709404,0.42808818487083594,0.15492607109547593
-0.04188032534532782,-0.2358509899907759,-0.0781297601753397,-0.055635877583909935,0.1881315036358051,0.3410134644123578,0.3872480955169472,0.2048464052657342
-0.05194368056557768,-0.28840955288314896,-0.111378492202857,-0.0903787665197931,0.11524263301884019,0.2802866018312322,0.3281426171642507,0.07175650485585117
-0.053702612321063097,-0.3364696548434522,-0.09978206155477581,-0.07873347739510311,0.1280533110751757,0.2841499378900953,0.3308376802148331,0.012139488382016901
-0.06333198106243738,-0.34594584382673804,-0.10905805096691354,-0.08655008307733604,0.1642804312037491,0.32499891868906444,0.36443905164588436,0.07634669630090583
-0.08756972831891877,-0.3411785957985939,-0.16707355397046586,-0.1476994067296557,0.1501040788990671,0.28866726796510406,0.3284198546653447,0.2065977569552408
-0.10977981957439045,-0.3490514809189058,-0.18902864749540474,-0.1754557687650417,0.1338646243871516,0.26780661625049074,0.31628068093658296,0.31481468324409134
-0.1355004369024633,-0.3657762483267761,-0.222671228469007,-0.22363948472954565,0.11352287361960917,0.2204433931861554,0.2672874566961235,0.3557358450502132
-0.126830510263437,-0.3738559087275629,-0.22482213155905517,-0.21268404121905077,0.10476673057723028,0.22589489066961904,0.2648859533979543,0.43781513113826726
-0.11949270385741614,-0.34556228843065817,-0.20179190413227974,-0.18573814552356321,0.15190415223270068,0.28062659848957966,0.3396058758010687,0.4977346593007353
-0.1316637204417851,-0.33174778324990456,-0.21845025598251466,-0.21753553782158702,0.13927435448902367,0.2539875717284492,0.29325800701180754,0.4948595449888768
-0.13127206876982744,-0.35851366437782173,-0.23077945956434498,-0.2383538373146868,0.12816489286945598,0.24145231431678987,0.2910534267714471,0.40236382123912284
-0.14281708616686273,-0.354736427959428,-0.2462926943197768,-0.25850452176137834,0.09379629759327465,0.19379574246362558,0.23004667731940945,0.34305050482908245
-0.1324488820096099,-0.3079712930697585,-0.21774308628098576,-0.2096170580641493,0.1376607823399339,0.25519846602226803,0.3072752526670727,0.31964253662992476
-0.11743851585067758,-0.29432930957146985,-0.18066961052440705,-0.1662920084469739,0.10012750407313115,0.2233085416900012,0.26921429343688225,0.2754264084759791
-0.1163896635946754,-0.269287726370928,-0.17370276270686832,-0.15410714212974203,0.07713820187942227,0.16731927234812544,0.21035192241023748,0.28648584726136234
-0.1442729271542164,-0.292175842613008,-0.19487895275133266,-0.18305432520614762,0.06993008614027393,0.1312506407965085,0.1720555129163265,0.32688827050582764
-0.13457092741999183,-0.2864543210637946,-0.18920117024541083,-0.1677560023884181,0.10100091835942474,0.16797819278325538,0.2142604929425735,0.35754313889227624
-0.12811998735716537,-0.2706548486268912,-0.17391234599926553,-0.15630561512968935,0.14969380259692572,0.21469285586202014,0.2578260624041562,0.4311480916255053
-0.1307184034317208,-0.28327554652862635,-0.19766271094429613,-0.18583320810613937,0.11965936215017726,0.19289474878982707,0.2240476023319719,0.43569902472880234
-0.1396529569509602,-0.27498266194409865,-0.21547946968074277,-0.2098010785208876,0.12080286137190423,0.16566358644928297,0.19071064836356144,0.4139083126952212
-0.14975203484815858,-0.28728917185602504,-0.22065838098594948,-0.22416625279038502,0.11293152045380148,0.16640892195199314,0.19980431694561906,0.4521641260298024
-0.14407285071252354,-0.2922802205755077,-0.2077105069991032,-0.19919946271213435,0.1701417258365252,0.24950992063949973,0.2804421015332918,0.4651732902299879
-0.14226362015337082,-0.276643311058929,-0.22555044855228168,-0.2222793705390287,0.14505695482178949,0.21129570527489341,0.2428530505750479,0.48081744899453976
-0.14934677016811404,-0.29031982164374526,-0.23329501582489984,-0.22777230185440672,0.12183201979357125,0.19336378527434717,0.23328111955934128,0.45213105683257465
-0.1508739079102946,-0.2906444001654511,-0.246530017507101,-0.25081974866696477,0.11149533960203836,0.17351015146427795,0.2086565731301892,0.4657544416338106
-0.13270739492808145,-0.279738323046216,-0.1960087394473754,-0.18218626431421425,0.17986886387172302,0.26121910344205157,0.304346995429073,0.4478476801336382
-0.11198832537475312,-0.25932692383336636,-0.14936004701986988,-0.11823420692123032,0.1680991400618465,0.2342194752307725,0.2713284502805837,0.49171310583482114
-0.12531678850902314,-0.24266282842047285,-0.1584659396811041,-0.13613506935660277,0.16757382574435825,0.2035070275537798,0.24197206451839798,0.5537329143032308
-0.11967171665752602,-0.22894861332821986,-0.14537751365683976,-0.12111694933218758,0.14606951212448277,0.1866596120101721,0.21246266820375634,0.6239814436901958
-0.08278462779252506,-0.19545246709637212,-0.09763977509359462,-0.0642740194254043,0.22499671240722352,0.2627127997563953,0.29303843242677236,0.5639319160344193
-0.0785801989286251,-0.18405601887667816,-0.11811911441887947,-0.075966847719604,0.19520036306854865,0.24979624647876927,0.28040287676259745,0.492904783811181
-0.07958293983476752,-0.18608924575276026,-0.11327856492839244,-0.08607580859176603,0.1742757119188651,0.22095736948331765,0.24853620891898534,0.4312212259408105
-0.08490099875124588,-0.18204865194044234,-0.12344457428675207,-0.10636855357761221,0.14058124786064552,0.18276851625099938,0.208571981115258,0.3869131300662574
-0.06961043721252405,-0.17352813125022215,-0.1016471460144725,-0.05834792151076146,0.20554914216372003,0.2572381836499219,0.29104522323329596,0.45158020108942887
-0.06353921859938108,-0.1854708800852924,-0.10038851002280365,-0.059077324041553324,0.22620263515071126,0.27182311153777083,0.322144956708064,0.47333533102834735
-0.07027175492606821,-0.17761613397762754,-0.09983066112369712,-0.060182407690262084,0.2074311671026134,0.2662057571992633,0.2941663980086933,0.4747981523754906
-0.0727553807742023,-0.18184873939901575,-0.11718119977563021,-0.08004703588627153,0.19396101250866013,0.23997198309743578,0.2770018754617506,0.4881039429813247
-0.05911026108684372,-0.1755866814788222,-0.09758218428382451,-0.059072321242415377,0.23299324909750416,0.2923787310318521,0.31987264893510736,0.4602943879680489
-0.05718969075356304,-0.16736090943991191,-0.08981741280798132,-0.03831276089211827,0.26432328766191254,0.3310309953109193,0.36606449852974443,0.5260354925558232
-0.05746522653333399,-0.1893364446752871,-0.10895340692025057,-0.06632185369426831,0.24792440225700343,0.3194405338832331,0.3547330493363437,0.5536046101876795
-0.06801567274833535,-0.18038056069492586,-0.11780087721816349,-0.09884797799110857,0.21672822796769392,0.3179327771233654,0.3446721117972734,0.5084377417233172
-0.05179168486479629,-0.186242649939152,-0.11589952324070067,-0.07107296816752652,0.25927628424886595,0.3443635952547166,0.38457919790905926,0.5456046746459821
-0.04458828186563194,-0.18212745633259464,-0.09302278768048203,-0.048112279823111725,0.29163074662791155,0.39509511062358554,0.43303359933082286,0.5964277198199067
-0.042240756179057336,-0.18522287375963217,-0.11427360733863823,-0.07656843191954549,0.27919230482340757,0.3759629445449618,0.4266252597744333,0.5991374760707537
-0.05540805550821968,-0.17958878253627927,-0.12939649002615686,-0.10904404629212316,0.2547485878339184,0.35429182099685574,0.40546904230841674,0.6134197897510502
-0.05403441337744929,-0.19353276906797284,-0.12867858766085138,-0.10471677732023141,0.2729593966394142,0.39017815578112214,0.440869700411488,0.6550236705601464
-0.046512660772212625,-0.2093084593180834,-0.12874123568663837,-0.11182737531052311,0.3175172903086463,0.4441592011149853,0.5021032369215399,0.6710672211054887
-0.044813261317495814,-0.20156041364968377,-0.136224296396282,-0.11841876145803343,0.3112616153717671,0.4401756111904499,0.5065144973258584,0.6651648103563694
-0.04806821290554265,-0.22227841182188124,-0.14289613912770746,-0.12450713809920765,0.3040008174371618,0.4364863000211529,0.5032466641654999,0.6335636704829144
-0.0378504201165122,-0.2236093240711183,-0.1328068124127177,-0.10964981140674121,0.30453566605505955,0.4619698639112131,0.5277381163732802,0.5980268785189096
-0.018668134000507465,-0.20853785124012905,-0.097920349129176,-0.06505840071091415,0.3481424387419346,0.514194272135504,0.5862624087673716,0.6198467922439139
-0.01676522723697812,-0.2212842558674616,-0.09910222961914839,-0.06437845924121166,0.3511305491499158,0.4984664873972878,0.5783964748530235,0.6333184843070683
-0.014534980130807514,-0.21222045156889227,-0.10846620357612574,-0.08563120855363969,0.3290284968113206,0.5004751643478589,0.5740611733291601,0.6355385358620321
-0.037688331698150196,-0.22952598169626398,-0.1017473653683667,-0.08772503183124807,0.33488577111537055,0.4858866327765029,0.570039104072545,0.6296356795016856
-0.019239346112060712,-0.21698600307237587,-0.08020558967375929,-0.04628642556650807,0.38778463666926843,0.5473407953394043,0.6453716862383098,0.6250709895668727
-0.019808425567988328,-0.2163107725393688,-0.09475132465458702,-0.06208224577747629,0.3834578294771508,0.5415295083129755,0.6344028320353321,0.6605666801035303
-0.037186446591756496,-0.2233478247640596,-0.11638489232432445,-0.09708904333112489,0.36688847731325525,0.531325813044319,0.613487379976885,0.6215674769768255
-0.05140215195275291,-0.22298414207713607,-0.1429556897059557,-0.1256757027501999,0.32780170131055175,0.4890183824003588,0.5815649798755835,0.534973840282656
-0.02908324663343991,-0.18771874278236172,-0.11013449551500645,-0.0657565382221601,0.3454602446768205,0.5100743599735464,0.6012732728324153,0.4046452532732148
-0.023635057259977776,-0.15530054449251635,-0.09056686327064728,-0.05840393308809619,0.3389244837140208,0.5186073733867398,0.6159504678530134,0.39321941085944423
-0.031242859895838335,-0.15050488173173862,-0.1029172419136809,-0.08015125289591205,0.31892669229149034,0.49476323869485295,0.5807282428946083,0.3340110506584117
-0.03686087161645571,-0.1795974600045378,-0.12167758687877596,-0.09506987829799889,0.29441358367287185,0.46125477787940583,0.5461421935422942,0.34676317292842396
-0.04162374392053651,-0.17344754040549562,-0.11536630697840095,-0.08485504175627248,0.3113982577018289,0.4879046249285811,0.5710605559787335,0.3570124077361188
-0.04195386072918239,-0.18065720248411762,-0.10929377436219202,-0.07720727516737066,0.3454909782321548,0.5134274645117414,0.5995384229741468,0.37495376191571517
-0.0500285128562351,-0.22415748273333094,-0.1349166812509917,-0.11254521414730395,0.3165491917939722,0.49564696655723445,0.5652388125912065,0.465741242837133
-0.07358268011796332,-0.25504110130348273,-0.16217699802088287,-0.1507696947507733,0.2976815376338069,0.4472200961526071,0.5269509935242274,0.4739024698330028
-0.08617466219477532,-0.2417760982314014,-0.18871500500177252,-0.1732982378238087,0.2688134807468154,0.41824350799701826,0.48761941285441673,0.5263281792530918
-0.0758548938119046,-0.22784612517308694,-0.1570922950415251,-0.13876493066366918,0.29830584938024923,0.46693479211966793,0.5227282660487426,0.5657175859072937
-0.07231073455171501,-0.2194670105270954,-0.1665217698689643,-0.1536038739748017,0.3016433650996918,0.45291695885435423,0.5058053901906331,0.5656872206616388
-0.07524896884052794,-0.23642964529018215,-0.1691637123522831,-0.16990782108630204,0.2952738599945119,0.4332919168381059,0.4895005687980246,0.5558099743869935
-0.09227608796157133,-0.2768611019952916,-0.197771833825316,-0.20456449561264128,0.2750759418533692,0.40132873299208316,0.45705765689795186,0.4751927716808066
-0.08544292729532148,-0.2652397509048622,-0.17936207510929286,-0.176204223858413,0.2872217176160017,0.4185739363521769,0.4673181964961317,0.526384424004324
-0.0836466590590603,-0.2806979448018845,-0.17900958947519507,-0.16959269498366972,0.29336457115688624,0.42481876203546765,0.4850404020923781,0.5817182980246314
-0.07984390303668072,-0.25740677274080576,-0.18677317455766929,-0.18331226685645355,0.2924391563340917,0.4106337168892521,0.45107320487157154,0.5799750620630563
-0.10614805789473157,-0.2719113540277602,-0.219238466108493,-0.21304102602234357,0.2622335548551987,0.36896618162056416,0.4245728379050532,0.5111668901729814
-0.11730668126567709,-0.29372922020975506,-0.22473196505075754,-0.22557563899523772,0.25812412536830515,0.35762475720717823,0.41254957626952204,0.5152238845514084
-0.11632556121699264,-0.2843917917905947,-0.20924336648434425,-0.20866346251025178,0.2923219188411541,0.4121093085203062,0.4633619444577435,0.5588994417873561
-0.10772854307680058,-0.3410543885002498,-0.21595897871800998,-0.22239037157005498,0.2919409775670812,0.4072803377240937,0.44658198056125603,0.5766853634350436
-0.113764475361377,-0.32909095482322415,-0.24207312957400778,-0.23449140883066394,0.2803722713483763,0.39139281814306237,0.44143699391883706,0.592307480756634
-0.12160399480409698,-0.32993211568437764,-0.25249892406841906,-0.2467569706170547,0.27838183736385524,0.371120102818706,0.41653317216606667,0.624670896095209
-0.10839351506310121,-0.34215229095311717,-0.21959216569368212,-0.2208115993639326,0.31857436016868085,0.42141672885276893,0.47137525206746317,0.6703372270952805
-0.09199103876766826,-0.3519216552582076,-0.2141763036204531,-0.21215645079013146,0.31117321812024895,0.425786272482085,0.46725336292928743,0.6905753030294268
-0.09374196497611072,-0.3404351987300394,-0.218408198244376,-0.2094088376720024,0.32325835858181245,0.41156290020881503,0.47073052406794347,0.6775521822937658
-0.10934190667049486,-0.37322454642364283,-0.23569116056461129,-0.24082881121022992,0.2809920693778428,0.38248428015017744,0.44007899316537546,0.6698694333476337
-0.10113023239845269,-0.36127327566720707,-0.2054497393433415,-0.20490000276583847,0.3238945798053629,0.44346823072481295,0.49638931431228905,0.6297722960951709
-0.07572526842523628,-0.3612725915266913,-0.1749101867609263,-0.17018175057653884,0.3264091878333035,0.47609246541724,0.5306642407777198,0.6894435329489839
-0.07121195683598858,-0.3534648090892154,-0.1819209542417183,-0.1740248742889298,0.3400420907825554,0.4401661002468322,0.5071697454949139,0.6531727633523892
-0.07518818283869665,-0.37194012387254916,-0.19639682464778974,-0.1780514579211595,0.29586138726984945,0.4178758219916082,0.47216241409161186,0.6774318438195998
-0.07919591352302352,-0.3694117801302064,-0.1939311161891924,-0.18925864990868335,0.290589459882942,0.4015118473366536,0.4661003596301254,0.6602413049130572
-0.06569351686753924,-0.35478131199408935,-0.16795245005475495,-0.1431894193626135,0.33684681334280014,0.46550289216027674,0.5240116853367283,0.7070128941359515
-0.06512310543656796,-0.35218098489799715,-0.16194300257745986,-0.14846533314885757,0.3253646999771699,0.4515492089005014,0.5166015617092387,0.6685926734846546
-0.06001298861609074,-0.3502252498007206,-0.17336083377996664,-0.15645651765194593,0.3217831425046218,0.43555202888107797,0.49339958990164157,0.6424914943642895
-0.07597859564878687,-0.361686381467027,-0.19412412882594682,-0.18097460473083882,0.2780739956909665,0.3863946796633442,0.4584047393439147,0.5616494742591263
-0.0742031227400616,-0.3621535453763159,-0.18433458011873363,-0.16294290593854655,0.2916946881984962,0.40952638128655117,0.4688423121613005,0.4836346833052093
-0.07262432913092795,-0.38889810312515605,-0.1833294317318659,-0.16083823569259914,0.2877273872983539,0.4049475336622826,0.46372430042253937,0.4279705650562692
-0.07723139914972924,-0.3904274619334378,-0.18244369047519884,-0.1636133327334315,0.26036593134345787,0.3903720894484069,0.44191554037566494,0.3648655621569502
-0.08145553454702106,-0.40255448474353533,-0.19213805565955003,-0.1840833291964063,0.2509817076522967,0.3640663563838983,0.42060172089389347,0.37121349326725056
-0.0904600760873534,-0.39255743948265576,-0.1963564057438666,-0.19231812832508854,0.25478598992646595,0.35611098445852807,0.41290767829717473,0.389134241452321
-0.08715651603663971,-0.3805031202673619,-0.18648700894321166,-0.17083300407585497,0.2759946745885862,0.4054407356730706,0.4661242959521208,0.42319097020127217
-0.08129451559401497,-0.40267303464919846,-0.18824683083780883,-0.17030434737795386,0.2666004987462664,0.3900220830910882,0.45056816760625074,0.40331638024728333
-0.08817915708952959,-0.38504177383818133,-0.18376178892946055,-0.17790287714217282,0.25272770224005203,0.3743637370206523,0.4233882683605963,0.32555754656844627
-0.08505049797847207,-0.3776079253787187,-0.18674259087627418,-0.17565744702331454,0.2275179529479705,0.3587712867846554,0.41722370581323864,0.3037726937312808
-0.08332809707623348,-0.3763155674755378,-0.1722477806500739,-0.16283966752649517,0.2588482107466493,0.4047340838037709,0.46487026732789405,0.3358008786892638
-0.09045524403714823,-0.3583010966352778,-0.18879238191335548,-0.17371361346958625,0.2584238510177099,0.3839552717480645,0.4461282619142467,0.3667999451132166
-0.09349602796179697,-0.35761044737063064,-0.19570858090412435,-0.18443745045788135,0.23657406328627884,0.37357102147645094,0.43323500720605734,0.3718427920434855
-0.10166196922336673,-0.38282865535433824,-0.20183788503664318,-0.20028415206873587,0.22687082337886663,0.3534241582882752,0.40850170988979184,0.3296524570390503
-0.08535068058965914,-0.38411725519655665,-0.16820239995404826,-0.1568223506107848,0.2556771368142635,0.41007309778749124,0.4641617380606697,0.33461492656961467
-0.08428821640217922,-0.3712222244259902,-0.1718519855356821,-0.15966411406701872,0.25987319662050473,0.39971406326131237,0.4588782771015407,0.329439086380506
-0.10059181620823515,-0.3568736965850463,-0.19572391464359234,-0.18047761296831782,0.2537809150547575,0.3878333161798869,0.44295587307425943,0.3757061381446232
-0.11789425921005395,-0.3647093330618083,-0.22022067524694458,-0.20859705470320813,0.2285675665830716,0.3559039296556492,0.419114266500705,0.43199715245545933
-0.08989200777148154,-0.3459093491150377,-0.18943867050455285,-0.15427406218422118,0.2719597799346701,0.41535084095268265,0.48499641580143077,0.4786645012563133
-0.09199776887175506,-0.32275500329549744,-0.18858373360429898,-0.16219011191752222,0.2805778915995623,0.4328677991371646,0.4882636994431995,0.48510811041863106
-0.10313678393016085,-0.33076671659470125,-0.2066686140160873,-0.1864500725376932,0.27908734532864365,0.41491977482218434,0.4696477087398681,0.5814232656293093
-0.11382722861347551,-0.3331049216825994,-0.21533991324924168,-0.19739019183687587,0.272767063507593,0.39948407746941306,0.4438622132899122,0.6261617683259891
-0.09172857828184182,-0.3135318084604902,-0.19575469618572255,-0.17277123244153927,0.29359348741173674,0.43042376839942353,0.49125993054087663,0.7121929315138744
-0.08323773777198701,-0.31872035128542414,-0.17369795097273855,-0.14530748737468682,0.3575391736636345,0.4708322596158672,0.5306089262609991,0.842285642883144
-0.07615479885162826,-0.33153674994324617,-0.1701545573036804,-0.157189538559155,0.3541137024495925,0.47163150973714474,0.5296248708285612,0.803325435864732
-0.08457148273614444,-0.36528759025157975,-0.18965037245850824,-0.16474653223661445,0.34125998726859447,0.44224197250956243,0.49170983267539237,0.8071718734827712
-0.0859191311605759,-0.37091997660502984,-0.18349338399088863,-0.17619746424200897,0.335361509646228,0.4391725097187731,0.48043124181104935,0.8074924636288668
-0.0708336639669918,-0.3608532893082414,-0.16001507134379042,-0.12272336117446137,0.3741291608621343,0.48005331554547975,0.5343057312555317,0.7887564468233733
-0.06396617896664081,-0.36647371825703784,-0.15328453791757563,-0.12411276166977686,0.35917470595927076,0.4828171877829371,0.540219942786215,0.7035021332721602
-0.06499127906194876,-0.3460808812190066,-0.1622113150421153,-0.13269314752825692,0.35315788319830105,0.46240169015757293,0.5194592227632691,0.7022492063063377
-0.07583413457619834,-0.3384785746277722,-0.175441606981514,-0.15606087850763226,0.33707371300520034,0.4428780826707808,0.49662444531714833,0.7522677193727295
-0.05592033770291161,-0.3091154937849249,-0.13553003008814468,-0.1090875617270308,0.37508066263365636,0.5067417129383314,0.5575397062856361,0.7918688045291147
-0.051452341956912395,-0.32223578016993953,-0.13001689690078644,-0.1100639204908325,0.3801237203663196,0.5110270934754583,0.5721867474862848,0.7643497831894047
-0.05008050549888216,-0.3285158518809252,-0.12982972458453423,-0.10475495515783911,0.3848315511803197,0.5037989421159681,0.5549362713134212,0.7130414129064733
-0.05123756736550551,-0.3429116213889759,-0.13816717415197088,-0.11901627236203999,0.3589413074657253,0.46022802470708835,0.5331796520691827,0.7127436298046337
-0.0430336332447319,-0.31882153592855944,-0.12856838238060814,-0.08582825423191634,0.3791408815700603,0.5168861424150297,0.5868026273888749,0.7204952134446139
-0.03969589616944874,-0.3268273266779873,-0.11419869881029554,-0.09201350044748921,0.39855054206385876,0.5428096603830886,0.612348177712746,0.7461432645999705
-0.03769693215386629,-0.3335826981662653,-0.11586226323543486,-0.09095038282224262,0.40479570387618735,0.5405103414462463,0.5973409147782494,0.7173921849053412
-0.039977051572805754,-0.33105177387197604,-0.13018783188662286,-0.11352681912034535,0.38406965989478575,0.5121690630868281,0.5833967114945435,0.6411849694724643
-0.056997382498822746,-0.35009049949103116,-0.13575324341147652,-0.11820214659334317,0.35335875571258485,0.4955069714921963,0.5640471403442167,0.6508873547411851
-0.031209079364305753,-0.32430713381568327,-0.10556862216825179,-0.07729330190289897,0.40597966156208104,0.565828447308877,0.6357080377294653,0.7018522174445574
-0.029268153179636748,-0.3260671919671266,-0.09795058155856655,-0.08221475992412762,0.4093949489264499,0.5546788046891267,0.633352192130024,0.7116193053583837
-0.037825615866746334,-0.32698335811243684,-0.11046168136282189,-0.09171575913530933,0.3953650281231691,0.5513027418426035,0.6221858994688584,0.6786731604894124
-0.050250141399477546,-0.3446894323188225,-0.14135091266418834,-0.1259877613224572,0.35735194621300453,0.5059840744642502,0.5713227327588883,0.6928015665442424
-0.05816203232156004,-0.33639212578756067,-0.14179907545279163,-0.11083171015851359,0.37129421994678163,0.5034546060551274,0.5750543028287184,0.7414665526370909
-0.03555982709306796,-0.3176535585222264,-0.1107440437783369,-0.08268973595853849,0.39671294028991005,0.5611097154038763,0.6278094476216607,0.7627138372532944
-0.03761105556296354,-0.33161880243624664,-0.11275274957169751,-0.08727673320163971,0.39604875862864,0.549459473549091,0.6091889406501023,0.7484770003117213
-0.04465367573844005,-0.32345193792350013,-0.12841225682783047,-0.09786746303372619,0.38689601286810943,0.5285055189402298,0.5983609376231996,0.723593353823053
-0.06697934394831752,-0.35451911429808775,-0.15116974045662138,-0.13151229785452034,0.3445026492908379,0.4822435166837683,0.5437997641517945,0.7082193141017157
-0.06457390436016333,-0.34621621980884004,-0.16763552692333852,-0.14741052836923876,0.32989928711422895,0.4631323300175982,0.5277386732233204,0.7119594359482975
-0.05694918700988855,-0.3206988804961914,-0.1329091655172219,-0.10038134421858136,0.36563492397018876,0.5366021351628445,0.6024853102055422,0.7085170662605071
-0.051596909116626066,-0.3307437795720375,-0.14160695459085768,-0.10807411236770287,0.36844551335831904,0.5190222081451549,0.5885289855919562,0.7235654925628754
-0.06416723263741048,-0.33930031072846895,-0.14883853453079807,-0.13031720762212648,0.36716962137822406,0.5098286825378602,0.5722913346907981,0.7276548489708738
-0.07430642177612429,-0.3276701424213615,-0.16619558825301417,-0.16759249642961083,0.33089176196505476,0.46621702693858785,0.5344906012084139,0.7039552321386235
-0.08612329692615663,-0.3644075860345261,-0.19547254349584922,-0.21066550995565397,0.2858333277042176,0.4196827624574837,0.4816989008922198,0.6729193194402221
-0.08421703831430184,-0.3454761968719975,-0.1754696736106021,-0.1730414162091949,0.3219749436562302,0.4667330271730005,0.5359385186645476,0.7131561907218329
-0.0659077402303605,-0.3527701028938111,-0.15944381589918932,-0.14937817609127835,0.35447778422130444,0.49908338577265104,0.5604411793881533,0.6832850830468767
-0.07229952885530962,-0.3670144513336385,-0.16183947487413028,-0.15265908161702219,0.3392128728995807,0.48062278197523334,0.5418220184240622,0.6537411155969918
-0.07697919131205869,-0.37431551065769786,-0.17696235792388454,-0.1788115343551134,0.33184836262919004,0.45945116262947644,0.5386292883451314,0.6490999971877403
-0.09229631952140868,-0.3767562366397776,-0.20688689074848707,-0.21394382612241014,0.29019443189732885,0.4171828565810753,0.4796375882698998,0.6499004525109401
-0.10000970391007426,-0.3788804349520574,-0.2168554008341538,-0.2226888780976418,0.2878139432795066,0.4078002439816132,0.4680521494588184,0.673086215595352
-0.08408747361198374,-0.35164323235909184,-0.1832686850407557,-0.17528696169274302,0.3466841235360237,0.4809628881480586,0.5510035792743257,0.678367379415771
-0.07409607808925092,-0.3760453863858659,-0.193633685305836,-0.1715503919373213,0.343915632075897,0.4667518046829906,0.5538917913907112,0.6698642824931247
-0.07692396239646297,-0.382913640636086,-0.17641745530274439,-0.16477480048985316,0.3212220069317451,0.4619950182107822,0.5387503218267433,0.6371873027972152
-0.09041842656123432,-0.3663569001428725,-0.19172483725596037,-0.18489182747393076,0.3181428267977008,0.4346081877517132,0.5009706410179333,0.6197496076204476
-0.09801884124386472,-0.3699335511593529,-0.2138416881647347,-0.20525490025488985,0.2686878102462302,0.40672005552607565,0.4736048570237458,0.6313773546208928
-0.07516827570900922,-0.36082310608761897,-0.1791123766094659,-0.16119802467534236,0.3422873324172102,0.49236623638845445,0.563251020739117,0.6852929283040684
-0.07264120024014442,-0.35009178213694386,-0.17410940478301068,-0.15922720067758855,0.3542998090532486,0.5045738871824716,0.5680797827568544,0.7225378650743602
-0.07176166753519587,-0.34742013411126194,-0.1727302021687973,-0.15876179716706182,0.33987825444662356,0.5038834699172826,0.5619033662545804,0.6932354242427557
-0.08079298756953734,-0.3606084507986138,-0.1912208667675487,-0.16780627524513447,0.3356259810820621,0.4742019782295165,0.5311808671499373,0.6696956307909433
-0.09810327556488813,-0.3800638535847339,-0.20841340452744414,-0.19797697877553963,0.3031770166724832,0.4259584441886764,0.4904171972700737,0.6686670941528146
-0.0742240728100096,-0.3510408276827229,-0.17071714132154064,-0.15139862365294604,0.37089969685225316,0.5147017997298692,0.5879460781146546,0.7188167777282238
-0.05585205332528458,-0.35815489682684515,-0.15526574228613277,-0.1338753644376643,0.3908447323330012,0.5428091969163304,0.6124092725746019,0.721576324602281
-0.05185521189222494,-0.3700177762225383,-0.14681406414338127,-0.1293503475245322,0.3894732170139692,0.5436977114044318,0.6048863596308103,0.68670324732066
-0.06209030532296137,-0.3636227191919937,-0.16491834371154107,-0.15088387792740762,0.37439447009497817,0.5193937134047564,0.5788637865030782,0.6992752265923259
-0.07773424311556572,-0.36155726467066357,-0.18285569421431327,-0.17184195933613014,0.3488424941967794,0.4789989669719258,0.5300784424444605,0.712920702827682
-0.04513748531034457,-0.3445056527093712,-0.12473373619444547,-0.10864350024880945,0.3903477076759136,0.5315567999253873,0.60699952863242,0.7111305582224947
-0.029391515261761814,-0.3295593359978556,-0.10942349203166066,-0.07575960072234714,0.4041171197254695,0.5702247836305585,0.6277532074567151,0.7157117711064378
-0.030382607422271425,-0.32125204104317395,-0.09183132946111336,-0.060111376510440295,0.40653322897092675,0.5551931776511507,0.6264718039475671,0.6027465977711033
-0.03133979355699179,-0.3106746287370334,-0.09313698503269198,-0.06741356833749582,0.37102563135657707,0.5183223541756734,0.5843103631033686,0.5522750093602768
-0.03734612700913543,-0.3164810156066738,-0.10554803138258984,-0.08285852084873606,0.36050495271884186,0.509360881142909,0.5651747171172669,0.5230683271861057
-0.012211633328365473,-0.3054693480493333,-0.07514305843882174,-0.041660234914324606,0.42696927485849734,0.5768389703020306,0.6442634063826034,0.5638969012050363
-0.02120375079230012,-0.2759118293687153,-0.07048137995829275,-0.05141473377807276,0.4126593733620275,0.5742797690180034,0.6471012643828505,0.6105365560237513
-0.01829414314091457,-0.29639662638419256,-0.07599390737339683,-0.045201434695016474,0.42215024430249515,0.5689382547501929,0.6423105652653734,0.6251557059388649
-0.032366546452050435,-0.3037874645329476,-0.09815283838466073,-0.07052664968117861,0.394833359478001,0.5436667887503934,0.6083412839845828,0.602688957044865
-0.015339437059501526,-0.2807737561188248,-0.062461470457532794,-0.019013971429830412,0.43808520808988727,0.6150856925433322,0.6749766082990979,0.6387306799470295
-0.0054908063360112475,-0.2759401359781616,-0.055100800580012405,-0.01067177066295566,0.46724997791150596,0.6385752790795026,0.7019114405377244,0.6714618741035505
-0.012226063369410248,-0.27052712218459257,-0.06517241346477619,-0.024399240166491948,0.46766517286560505,0.6377801992316752,0.6919274512907532,0.6674767536964379
-0.017800123598523135,-0.29719297258896415,-0.083434636965536,-0.052820803615405726,0.44804523796082263,0.6067629015288056,0.6645298119313253,0.6946242516334353
-0.019576268033052555,-0.27091705826849427,-0.06906158824590532,-0.040008052242554104,0.4630344372164737,0.6295283797057434,0.6964471067259707,0.683196193947432
0.0011708190580159983,-0.266577968897564,-0.04688573712296808,0.0011102112835365552,0.5007868859755307,0.6810284692738194,0.7482578596821059,0.7290064698643512
-7.191561472689595E-4,-0.27268578379562153,-0.04325647032348655,-0.014012968022008937,0.5059034916233272,0.6815690964546678,0.7477901828102256,0.7230209309716162
-0.01394656053777324,-0.2860018999478371,-0.06386277701674303,-0.03081657041438257,0.48428288974594125,0.6576534741228158,0.7292319902492801,0.7507731766519851
-0.023593453481895094,-0.2893486964012705,-0.07616700392676198,-0.04463137986569371,0.4520927576213865,0.6149215465574877,0.6795674177013614,0.7275024160848715
0.005062051760166955,-0.2566305456873486,-0.03927310774117844,0.014109756496818282,0.4950413129522674,0.6836040790624458,0.7506112574789924,0.7248201459618743
0.0033356598123357173,-0.2360232622932443,-0.029045663232607072,0.016646852011543006,0.47460398418296845,0.6862930664307167,0.7492160987887807,0.6844032871820559
0.0014607428110936932,-0.26002051632958545,-0.046250681157408574,0.0031056582188333792,0.4771051842966971,0.6665758466132825,0.7297190618744828,0.683387887152599
-0.02702522591312323,-0.2888459686443342,-0.06704722925397777,-0.044193375070755825,0.4473628946870517,0.6351910967341148,0.6869994833280948,0.6841324867993052
-0.04584719467274134,-0.2713349595648521,-0.10628494832559102,-0.0807375763511581,0.40906993561050015,0.5837036312608872,0.6370625268376195,0.6824480227914824
-0.0303002904642381,-0.31773100302371066,-0.08229070761517569,-0.04121594960057423,0.45154932864976627,0.6281518592854507,0.6945409833387785,0.7355626625153039
-0.032099108191759936,-0.31649010943649863,-0.0787650611251102,-0.03670874058342247,0.4313008841554905,0.6188106701841697,0.6879680771041252,0.75095234929348
-0.04034689203777606,-0.2967677893946998,-0.08768964665148841,-0.054923750062750576,0.4257125337425797,0.6046016726934765,0.6686216337724573,0.7425516976356445
-0.05237280179089126,-0.290117103676405,-0.12013578675722682,-0.08350012357790773,0.4121758409967477,0.567469476308545,0.6397468501256495,0.7299945532668336
-0.05545435327413873,-0.3098916914769069,-0.12132092101949277,-0.09034115854891824,0.39047492001772593,0.5380976183218986,0.5965832711089456,0.7313493770028427
-0.037434301363823703,-0.3060539378445914,-0.08926394574953711,-0.04085630550130262,0.4111055555637905,0.5699767371112623,0.6379645519994265,0.6702233015098319
-0.04231082894994257,-0.2994883002090989,-0.08555121354322805,-0.04773587919613115,0.3853828862487013,0.5278686677662734,0.6090331633486842,0.6251222009247893
-0.04436529373218624,-0.28254464050365435,-0.10091074159091566,-0.04972812736102028,0.3520414199320617,0.5164966932184052,0.580960135867959,0.603554895266041
-0.05641112243986743,-0.29050621151432116,-0.12212754449373314,-0.0891103322279934,0.32459389911573266,0.4771589409252724,0.5272033535077603,0.5873024476297666
-0.051189801773170236,-0.23989476727428852,-0.10753859645555622,-0.06719072924036272,0.3427309432148173,0.5050239725711076,0.5662383951317624,0.6116020511302661
-0.0587181129009936,-0.27342383932753617,-0.10828821289601957,-0.07620063939891132,0.37626957878385875,0.5194591972670655,0.5738383267632942,0.6464607367869848
-0.07072034719427216,-0.30047989418582893,-0.11954298098068088,-0.08951130553500182,0.3461198994915975,0.4924782746980023,0.5625360966323363,0.6991276596849769
-0.07283087671931093,-0.30919351033580067,-0.1432289248051305,-0.1232991777637811,0.34257148571913265,0.4772948755874978,0.5297902116926991,0.7201259644398695
-0.10404736808332087,-0.29677896233157325,-0.16017319246725023,-0.1352811740669831,0.31135900183581333,0.45630860748316227,0.5123947045532776,0.6438770861121059
-0.08083146677635096,-0.3167794327735967,-0.1254897359189552,-0.093883764606347,0.35064775816911414,0.5001917748006324,0.5527084173497381,0.7306247674150553
-0.06985440202149572,-0.28439082728694687,-0.12241709416474705,-0.08022935682793665,0.34750504999604115,0.48691154787432284,0.5297166188845686,0.6810621334407275
-0.0749694891766155,-0.3143978708601059,-0.12313155051664623,-0.10108862860035764,0.32711264582359484,0.44986439279818347,0.5056312304872846,0.7234397252343562
-0.08392107524157542,-0.3193378607700659,-0.13968572832651877,-0.12489516695596803,0.3101025977244888,0.4294075154406214,0.4752338547096375,0.7133287746956258
-0.10206495119199782,-0.3236059774790638,-0.16999508240012348,-0.15145946094134266,0.2784641526996534,0.38621258349992715,0.4381098623607409,0.6991648186852625
-0.09948466148460891,-0.31380376154499523,-0.16070554072290782,-0.13962989827268213,0.30883898966216206,0.41181057689799044,0.4608165038395469,0.7165698982054659
-0.07793912971944857,-0.2878146028471828,-0.12766115210169254,-0.10462233378016444,0.3304022219418573,0.454239595631463,0.5002989732243185,0.7183350622579874
-0.08515573381747246,-0.29117968908770203,-0.1434682051574052,-0.11443210474095322,0.33272126890904763,0.44903409120056925,0.48993654957289906,0.7346001804503574
-0.08824937866449342,-0.31464229525991555,-0.1548067630749348,-0.13121602432199525,0.3272673483330411,0.43772483396568446,0.4803349315410173,0.7125985759241273
-0.11157081351944965,-0.35349638497461877,-0.15689788879855612,-0.12624063003006758,0.30731696508401907,0.42547100014000594,0.4813736087858117,0.6837912487548402
-0.11613035461309279,-0.4323714503829597,-0.12866967527524034,-0.07958777321026429,0.3159747596120166,0.4162119879900601,0.4636633214853269,0.6296461416127639
-0.09868688654085836,-0.4444178056126236,-0.13040767127559486,-0.0697747033110966,0.3018465912408846,0.41546069618891074,0.4413282638450291,0.4765115745865161
-0.06526338573694411,-0.44766225097606177,-0.09605524539789542,-0.03142586438249541,0.2618409857567387,0.3927928910117764,0.41876191203919405,0.3324989623165531
-0.03826637717339911,-0.4654522353290715,-0.07426968658525965,-0.031146398602510103,0.23723642604243786,0.35881864411804204,0.3871715192533326,0.238833885009813
-0.06320722897866085,-0.4353641501354236,-0.13501455126112832,-0.09115315846987733,0.20605630775550215,0.3235307316252072,0.35596716109987364,0.29767351459773567
-0.04868997952074605,-0.42136915804609293,-0.11567416383100097,-0.0756994047007001,0.2851992853198142,0.4219786593543711,0.47013423672190224,0.47219711367297346
-0.06816683922292548,-0.4097577716952412,-0.14590953184950836,-0.09556111340143866,0.3128065311089857,0.43842086759241583,0.4787301028030152,0.505177543830043
-0.08026118485442643,-0.3915761041257177,-0.15747910184388175,-0.10854435906921675,0.31434482807409814,0.4278318252280491,0.47664305690958364,0.5763597561157191
-0.07046940251245368,-0.40178956091117946,-0.15097737792319826,-0.10190382730471,0.27826037694096545,0.38975924188410194,0.430231313622945,0.628770502970212
-0.06394933137577523,-0.3886799200177095,-0.12917522687533337,-0.08834106582956301,0.29627964120573974,0.41536673204434593,0.4481854720380807,0.717140711795132
-0.05226019801297453,-0.366875566658612,-0.10307518414466643,-0.05183090790605173,0.3385568214182906,0.4765417775510806,0.5131349914372998,0.7043782898662562
-0.04998544237520863,-0.3932026356748432,-0.13174914860424197,-0.09058877255666706,0.3414608261577818,0.4678929340184484,0.5046602647829119,0.7234082689840154
-0.06916023077545806,-0.39832317690815106,-0.16118047766365587,-0.1242945105939516,0.3286349712668238,0.4608595749881559,0.49595696075444656,0.7129951178999788
-0.061274440829505505,-0.3937532952186033,-0.15259782978749853,-0.11676785930691919,0.31836018312884895,0.4385409903325163,0.4772895676639635,0.7228829865815096
-0.0447226482745023,-0.3553745229829862,-0.10508846925975182,-0.04444974334929952,0.3746391687934211,0.5066379888433806,0.5517049295739745,0.7694127431513763
-0.05070854431368484,-0.3696245089867588,-0.10924601071730772,-0.048767258831390436,0.36605207355443137,0.4861452641498515,0.5361119769633473,0.8040948706200403
-0.0589064294894026,-0.36243994442593713,-0.11702041553858616,-0.05948848006893928,0.3550426244136523,0.4807217548652777,0.523331335497097,0.8455096585694291
-0.044086243766043504,-0.3406471562742111,-0.08107984743747487,-0.03087917167192754,0.3338768286056672,0.4681431345415058,0.5109985448153476,0.7388132721700864
-0.01971586999775101,-0.28156698288792725,-0.02529766862397606,0.017415228038260733,0.3706146621835064,0.5201339183594673,0.5626713931037596,0.5934008936746475
-0.011766420954792939,-0.21602438995444867,-0.011163385382131796,0.04739621323817429,0.35152863797267425,0.4957569437672601,0.5447882939800995,0.5227955339147913
-0.0020250694130704433,-0.205497588193965,0.008268432779714147,0.062358857807776655,0.33142357820978047,0.4836226517189639,0.532899879762611,0.4638379733256171
-0.008989191552778629,-0.2446388488080859,-0.01768869279336148,0.025148132888445404,0.3225134178512965,0.46646033958273375,0.5058666737414979,0.43265907747779947
0.007047598473461973,-0.25857565557465917,0.01166573646976031,0.06290199967452235,0.3761972613485998,0.5409606329679226,0.5841476798007667,0.3958686674718532
-5.893482997187879E-4,-0.28091760492676554,-0.0047749343316660225,0.05367080785698308,0.37610920297112205,0.5304291043369612,0.5767824397028707,0.3580576858890848
-0.03887966167060421,-0.34391854614696354,-0.055240025499189785,-0.005127253839233348,0.36106055780095714,0.5090141113245927,0.5668169689809713,0.37738683601085654
-0.053241428081685964,-0.3760532166482389,-0.09348739398766782,-0.04056451720840197,0.3360105412187756,0.48983302588095246,0.5438987551459664,0.4066503687824838
-0.03989303746814474,-0.3628094089508515,-0.05934287638875835,0.014724312559402347,0.39370639846566374,0.5666898418385454,0.6134710069432214,0.4955985939705447
-0.023730555661209914,-0.3531045223924799,-0.04023119264874546,0.019757065035921867,0.3827629094203361,0.5498697884154896,0.6091730241529832,0.5542270716748533
-0.03955509715756686,-0.3472318564272992,-0.04699115874323337,8.048977204314633E-4,0.38343021751787654,0.5437156880294083,0.6058628057255092,0.6345605580511624
-0.039875624877005744,-0.35862945105917865,-0.07230014062981,-0.03615393829412221,0.34980313457402534,0.5028223966767361,0.5664843273759054,0.710507635878503
-0.03269628210025687,-0.3223043213666718,-0.06514151095762802,-0.014216311791958619,0.4116610466884588,0.5562560507438723,0.6296391236016948,0.7499933942659404
-0.03780801873836247,-0.33328795422096397,-0.08253671545479407,-0.03622160875760512,0.4179338654828466,0.5719806279581215,0.6363152323141535,0.8383980936500108
-0.043093564549270505,-0.32171293510320276,-0.08394246007984765,-0.04065649996203624,0.4148226613861124,0.5558471771150885,0.6232488963601728,0.8773012089547767
-0.05187323133524142,-0.3100699432772162,-0.10357173742032989,-0.05798137956056394,0.39309754545924747,0.5288776137649605,0.6084276115274294,0.8879238612332496
-0.04316110006334286,-0.30983965194859514,-0.08104509356307316,-0.03156120210496455,0.4423601157604476,0.5917477225927734,0.6650279715020464,0.906075264432119
-0.03612311320805144,-0.3251029678054342,-0.0785560736720876,-0.034013977359339254,0.44672075375330367,0.5919931308160616,0.6869684631983489,0.9365939822871479
-0.0447715985750035,-0.32345332360477297,-0.08872329800985108,-0.047275818359621094,0.4338472352660308,0.5810370562535018,0.6639404357485152,0.9264243259934969
-0.04711806336610734,-0.3210725334555309,-0.10180630246504242,-0.07706741889425935,0.41751297451306946,0.5526870812654918,0.6285512215027522,0.9662628548033881
-0.03410713783628095,-0.3130947714613448,-0.0860819768508757,-0.050298526722086304,0.44580238785573045,0.5973154181707742,0.680108719457271,1.0158441148178106
-0.03766656588496763,-0.32434585508627856,-0.07535848959918306,-0.026462522948320272,0.473136107377908,0.6198667193886229,0.703578545091637,1.04771895014849
-0.03107266746591244,-0.3119714494644321,-0.08844396816233648,-0.04810803419823412,0.4573660495348127,0.6099006426025149,0.6834422713278213,1.014602046411928
-0.046198927579171795,-0.32888312473140796,-0.1109584541593088,-0.07189716199921006,0.43650468425492495,0.5866017278765091,0.6568758509619432,1.0356318647754246
-0.057446003533103224,-0.31195473952883224,-0.12669845826466763,-0.08939443900829623,0.42598480705955016,0.556597900330115,0.6278803549970812,1.0087772074321657
-0.038424949961614434,-0.3210487425799402,-0.10023377666129539,-0.05562371013853329,0.4778282867608118,0.6161630121288773,0.7027392909526109,1.0517462731841367
-0.03881293104135336,-0.32771959013473506,-0.1100517295125622,-0.06885909566073468,0.47051482202453315,0.6135832180532323,0.6983156511143499,1.0269053162646515
-0.045814567195154685,-0.3345713810900824,-0.10628511839089116,-0.06851364722825116,0.47149778217811317,0.6135233949195426,0.6980786446260773,1.0335957273207663
-0.050432884835014305,-0.32901308860301104,-0.09483052240133405,-0.058768284285048836,0.4316539473063337,0.5584615095472165,0.6355850634275182,0.9472435430690891
-0.05738475003232993,-0.33543535299059474,-0.09841283912722235,-0.06411956066352127,0.39101992843028593,0.4963769002380123,0.5550397359390133,0.876815907459327
-0.050474385265118604,-0.33988672309436907,-0.07874805086628872,-0.02526820671686819,0.3945396786615409,0.4990639692906038,0.5618548721288843,0.8778386058771455
-0.04166108727281617,-0.3349423672124566,-0.06219548509866017,-0.005537314209196981,0.4222416969143737,0.543084017278161,0.5943594652644837,0.860593362772949
-0.04890037488887377,-0.3601716684311318,-0.06862208807017206,-0.017264078714872844,0.41726976751300476,0.5135121954407195,0.5651145351870409,0.7971434456408224
-0.05439266658752481,-0.3560298987426581,-0.07340874732707278,-0.03261178994716496,0.39489023376641613,0.49250427619766113,0.5394770490402188,0.694793042595724
-0.04997751182498059,-0.3716978095109661,-0.07934708260792225,-0.03889987498195392,0.3237592139267431,0.43396393295218844,0.47834050776489445,0.4316695056612481
-0.030946781452025802,-0.3683377386821075,-0.0485139343330092,-0.007708838305370294,0.302838258800549,0.42491720686314843,0.4595153014620562,0.17675364669209606
-0.01972503280446397,-0.3617527649332016,-0.024316073253346837,0.02338955113277276,0.33579798630059277,0.4786589288049985,0.5093053542573885,0.026034715693700833
-0.01761434624919611,-0.33020184924701385,-0.03037606668599606,0.011867709532570991,0.3027641284449779,0.43856596958234395,0.4748729709294376,-0.029605439428466995
-0.026248861358959073,-0.31118490133230503,-0.045395587170560164,-0.01621398393116555,0.2718109352103666,0.4020962438910541,0.43583021929935417,-0.04373402245837704
-0.04222478399287705,-0.3014327562053999,-0.07216945384791665,-0.037221629728270075,0.23008034360073068,0.3424988803117822,0.3670685534357785,-0.10526592565894313
-0.06822762327669124,-0.3192374496809631,-0.09177820046766032,-0.06780868478133276,0.16468391822570877,0.28523137010000477,0.3077521270111687,-0.1547666472766815
-0.043571553968306496,-0.3194513135262773,-0.0674182206370178,-0.03327363120474758,0.2397057403190416,0.3696199040688758,0.3992908458970252,-0.12093417535665182
-0.03600696237012091,-0.3018373922279094,-0.06725043315179938,-0.02978499633929084,0.2410557007771238,0.37370692053277493,0.39667163948311135,-0.0975124497866747
-0.04340607373104022,-0.3022069874080808,-0.0816601180849088,-0.0527930753850389,0.22985579819521113,0.3475416399588607,0.37106582741372673,-0.09290442376371544
-0.04680083534361146,-0.30617436575932333,-0.099609209161443,-0.07945600311509189,0.20849088543401106,0.3281920432814197,0.34083748632205446,-0.08691163437584212
-0.06948294376109726,-0.30611761990601283,-0.12548104011866132,-0.10682134523734159,0.1527378616720688,0.26113945544638484,0.2808472669023085,-0.09653666894122187
-0.0629510877288382,-0.32841458004619023,-0.11117421865760937,-0.08118010902844522,0.19410829775786353,0.301883713665171,0.32137883030562286,-0.06558162600868761
-0.04970136679121418,-0.30860531289349197,-0.08941772324725997,-0.06135176224058882,0.21875858370115575,0.3408049287846343,0.3726815123244805,-0.06218913536272572
-0.05131548171599097,-0.3076688163402683,-0.09333092288415464,-0.0750091581387462,0.21785213798392578,0.3234569713379025,0.3547874763409088,-0.04353676534863002
-0.0655966276029687,-0.3279769085711098,-0.10476475754731152,-0.08178433124023092,0.19568631796511238,0.3013362551333564,0.3278424859136658,-0.042362504036670634
-0.07039062148984444,-0.32500899585125725,-0.1311621620664667,-0.11655565737839818,0.15706385608249454,0.24922847473033705,0.27184314962137335,-0.051837818781171136
-0.07468905696018716,-0.3435796593468757,-0.12339584127987772,-0.10763925004979781,0.16806596600431428,0.2649078456762864,0.28866047914643395,-0.07319806211974295
-0.04517436524555452,-0.31780978665101806,-0.09999469750177974,-0.05633923293937364,0.23054671714948438,0.3451417396736774,0.3740736844406314,0.003064538752280327
-0.05129578571187076,-0.28180520545685595,-0.0987984591558147,-0.07137080439437374,0.2123974200300574,0.33668369989393193,0.3608692879800219,-0.006802120054130306
-0.045889404167294034,-0.2975896709324669,-0.10401112098915707,-0.07374845843202779,0.2067883166635579,0.32184297360617053,0.3533472803244686,9.632622649556333E-4
-0.0674066158457625,-0.31405609188212646,-0.12377610597117897,-0.10543504138933045,0.18260881628037876,0.27559970721063304,0.30889003910452967,-0.012995938997341028
-0.07623555529851653,-0.3287214299788791,-0.13674088438813195,-0.11533938794821026,0.15601350691365828,0.24612020793732403,0.2822988334102863,-0.031850228787561774
-0.049127159478170424,-0.30508625639350906,-0.09175896298749936,-0.05583018570620306,0.24353960804923536,0.36189943523647516,0.3956096035055455,0.03393374716275385
-0.03710570310985302,-0.3133992716785362,-0.08843773928722867,-0.05435661134427418,0.23766681454766891,0.36509192923963196,0.3955817561744249,0.0558778653403087
-0.033799850180871796,-0.2907151399992282,-0.08863235899095626,-0.065698769835547,0.22789593890522986,0.3565833056041839,0.38319284642716694,0.062032464451522606
-0.05068762302494338,-0.30414983375224774,-0.11248709241113611,-0.0846326438473942,0.2163847885083086,0.3157800823191579,0.3459367153712098,0.0255459693017962
-0.06245547032812232,-0.3095575153430093,-0.13415541498674785,-0.11819553094591821,0.1619377879401421,0.2684670268009933,0.2894791539154982,0.018046273878279617
-0.04238029321771582,-0.33499079567381124,-0.10970378174617047,-0.07389256820182843,0.2252838722773709,0.3392806697641355,0.3684294651949003,0.05797406459269536
-0.023178886146021024,-0.2938498342448519,-0.07625061132060618,-0.03864732993405773,0.25922380828614494,0.3960959801830163,0.43639263863123273,0.08154049084324494
-0.026093423842734602,-0.2855905610972003,-0.08071700340055796,-0.04996836893507653,0.25597183554621683,0.38664453538204924,0.4285914162763966,0.0851389291482395
-0.029576873831560355,-0.28574784118410773,-0.09314670613232488,-0.0652067233322371,0.24982900394298063,0.36658313662771536,0.4062720129738366,0.11961993637594415
-0.05096838230785693,-0.32051443693408227,-0.11132585948191343,-0.08992982521397119,0.20631134041166396,0.3227103843452037,0.3555312371524064,0.06792273674995195
-0.04747201495127194,-0.3149522233087436,-0.11744401564127087,-0.08921284794128209,0.208441601501558,0.3275899612644381,0.3585233262144322,0.05829786830278458
-0.017634805410299055,-0.30032266055356455,-0.07226780747761594,-0.028699986131682217,0.2849979405770603,0.43457760878807317,0.47181930619575796,0.11006398348867603
-0.015299500005085724,-0.29593439513815256,-0.07396969757710717,-0.03192938879698974,0.2815628182842632,0.42332358686208016,0.4571187210334857,0.11920265757496361
-0.019845040224855066,-0.3117162347913397,-0.06811986850317177,-0.03639412809974614,0.2802935712596919,0.4179318232345316,0.4602050867806225,0.12293260249776376
-0.03453296459522693,-0.30261985651743145,-0.09136843230017817,-0.0550699365810894,0.24184579200258355,0.37580975682913154,0.42315086364335497,0.10992330225595676
-0.04033084980252075,-0.3170439574237078,-0.11263928452673183,-0.08190759752876738,0.21627619261370765,0.334644106046107,0.369635964129556,0.09460412468626167
-0.01412825534165657,-0.28584026943597574,-0.06390899161740796,-0.02237332869431065,0.3011671746236508,0.43790185060176723,0.47510284614101306,0.15053986980225664
-0.005043979942415858,-0.2821661831425115,-0.06472973047628372,-0.01681567225747055,0.3104362067930325,0.4530399680452866,0.4986192698249369,0.14158526264879367
-0.0058967351715136646,-0.28202630651944216,-0.06279357096955301,-0.0223658642877278,0.29692306892172265,0.4391710343811765,0.49313646376015086,0.16959170945061403
-0.018708277921685272,-0.3001220814066789,-0.07071905133382925,-0.03411671479354644,0.28290383854088985,0.42110486095267696,0.4572063255195902,0.1352441524983573
-0.03166360246512513,-0.314748022651942,-0.09459903833269032,-0.06923322943129548,0.2365765386611708,0.36946236032115587,0.40673746197568217,0.14330907436746146
-0.0026120136223953677,-0.2889006799186565,-0.06230323875174995,-0.027018760355235483,0.2910668114553117,0.4383536114235205,0.49027774236069843,0.18549165673860848
0.019978233642691766,-0.26427725864282314,-0.029743102785739772,0.017590844731809385,0.34490103159220153,0.5014847856171464,0.5539639868613182,0.20507121907931508
0.01619280956805292,-0.265509518216748,-0.03265566088182864,0.01593157413346108,0.340737048209095,0.49930642194287733,0.5413113482784137,0.2009993077692349
0.01009216935768209,-0.2855772769418219,-0.0380292888576161,-0.007533805884362033,0.32836419330962496,0.4895004238713027,0.5407613957201731,0.21422532986297405
-0.0036298702047037265,-0.299235268103402,-0.06953730840713537,-0.037540565993214606,0.29572007322685295,0.4464746912285037,0.489288571260849,0.17130933290980394
-0.01245788869884177,-0.2997818125646944,-0.07797723768433763,-0.042133744292870076,0.28444838005317613,0.4270548385281294,0.4800876872002237,0.20347300960433823
0.021923944103041458,-0.2795129251244537,-0.021150067308841974,0.029036786755396643,0.38483180692464786,0.5616301627286078,0.6151161734152174,0.2553567324937324
0.034285185132522204,-0.2640753312949814,-0.01257038456493971,0.025336763809856583,0.3975863330684004,0.5592007420151585,0.6160279744650283,0.2663015639321671
0.0240342355441186,-0.2753031166103668,-0.016763735411842326,0.024920122129946265,0.3869534120558985,0.5681508409479907,0.619218428654655,0.25804150460882547
0.015855558712970078,-0.27136125666948097,-0.037710256508169226,4.6294694679419046E-4,0.3522989050168317,0.5324149377894675,0.574719785001591,0.2469673864674426
0.0019759094517131856,-0.2892241967113201,-0.06440615190283253,-0.029943780010523904,0.3080967208962475,0.46128726493448213,0.5139919650146402,0.201708213889491
0.029002770228880856,-0.2586856446771797,-0.020872396055132955,0.015036338152364825,0.3875217201508699,0.5688785798942618,0.6188095653992147,0.252111372319683
0.03936163037349179,-0.2670074767126138,-0.017287530354151315,0.04437273278169912,0.41086548284050817,0.6200332934287316,0.6798825132249503,0.2741568850181686
0.03952652543479378,-0.2807328488663707,-0.013086453936396514,0.040548921049983505,0.42370249278412353,0.6111303536517169,0.6550180687680052,0.2337863448658299
0.028023250458105553,-0.26488664754359487,-0.013450240541398067,0.03511870437584905,0.40766774025632085,0.5996220459706316,0.6453887147102346,0.2559819135633766
0.018085027224798628,-0.2954933948927708,-0.02541226968424086,0.008967993853962936,0.3691273732770233,0.5503439661195205,0.5987063909024027,0.2514345222927825
0.02986281471301505,-0.275360001802219,-0.002830347648873549,0.028956980374585328,0.39801408062744337,0.5703456623169169,0.6228772127916625,0.317617840509448
0.05309075826292691,-0.261965203596056,0.0432625507289877,0.10602615396531442,0.47314122318711355,0.6978343796257764,0.745876717592318,0.4311148311273968
0.03490523682463016,-0.3309261959359252,0.03570157880548176,0.09199434674590082,0.47857765800645913,0.6787130605925298,0.7331758047233462,0.5755375283571549
0.021708337308720155,-0.35294174777925214,0.01469891592109189,0.07580655794791683,0.482334370673419,0.6767707954138144,0.7246706030537279,0.7294656184286246
0.001027019495817752,-0.3628489196022577,-0.011676513917982731,0.03588935445447783,0.45944702731449066,0.6439199367856034,0.6886696227661635,0.8478844238560239
-0.01715545184601152,-0.382733473091113,-0.04093534942125762,0.01472345856946658,0.45543516983854465,0.6324477773541193,0.6845314149042622,0.9166957916140277
0.014444056331659544,-0.3921494118378294,0.008626253871431705,0.07967400672607597,0.572076488532596,0.7748833787477138,0.8118913098168777,0.9442493962265884
7.154621425451146E-4,-0.4093403971210383,-0.007915987484330783,0.06047410332593603,0.5611603643153666,0.7740712346714264,0.8180826484426407,0.8886335738053643
0.008009882255071557,-0.39398035823797184,-0.01486732691507256,0.04502826151094952,0.5552656327186354,0.7617148536714585,0.8210376607994312,0.9375995475629446
-0.018835104338856164,-0.42400046072792497,-0.02858941618809141,0.023964402760114106,0.5334647136293147,0.7277983341528663,0.7823328400032067,0.9536246450216452
-0.0036797259973576496,-0.41263068042225387,-0.022095498993986357,0.038134058882779404,0.5589190565903576,0.7494100134767505,0.79803014225501,0.9925108246198246
0.022269778572989687,-0.3850718908463553,0.007818498305801058,0.0900509650908442,0.6342631442897732,0.855355232036801,0.9026908149772824,1.0067180957364847
0.01543376192666103,-0.3988296943848921,0.0100611031183577,0.07762065337936808,0.6224928374309823,0.8470059738935622,0.8957813990307212,1.0627703386332479
0.010348359612033065,-0.40535219699539293,0.0109738357096128,0.06932510809406817,0.6175158869560704,0.8423048173655121,0.8862013610763898,1.0604037042229142
-0.005410061534323024,-0.4031506185714505,8.715210251367955E-4,0.05798955779760845,0.5782515522263687,0.7818617994736015,0.8389739939844805,1.0760637011644008
-0.0033952957869967104,-0.380342487723603,-0.015789279967707404,0.0457952667159745,0.5726356071862949,0.7764895773851765,0.8289849358158077,1.0777480902447099
0.015092912177240778,-0.39765107756276163,0.027572879490443236,0.10481669091211138,0.6513941741206158,0.8830092179520868,0.9383298134895501,1.1276958399171362
0.012128981633159772,-0.3713401846622847,0.017571783802439178,0.09000725613287971,0.6682391726290835,0.8890910131009824,0.9463407332489395,1.1537871705807228
0.00456091929236703,-0.4250230328522825,0.01298996431473759,0.08016158676075355,0.6623703712261556,0.8813948807031906,0.9381624800603692,1.148168565074999
-0.0016787723925379833,-0.4084991580998465,0.0038328201928627126,0.06896619463016979,0.6209514570753909,0.8340662171475655,0.8954280430391454,1.1551155283895562
-0.0074503316039041395,-0.3764978976898631,-0.01041282382800389,0.05139758848998574,0.6140491243093578,0.8224559301792373,0.8727561228474563,1.1851900117812117
0.008001028907357169,-0.3737511325533626,0.023582399115840064,0.09094199306468892,0.6943906501462267,0.9269486684056437,0.980103863764207,1.1982396607798178
0.0013601300213747641,-0.40637722774833174,-0.013768262511498486,0.06218754327092438,0.6935569900652585,0.9153306883438541,0.9743313509150077,1.179531310451313
-0.008234019802657172,-0.4258415070525912,-0.026578327568682197,0.049478937415966956,0.6922555536215659,0.9236572985667417,0.976231369810371,1.1572663649680923
-0.02635515781829255,-0.41459429979219214,-0.04498955836317488,0.02458650363220266,0.6697987221684323,0.8833663630411246,0.9421280453885745,1.1880236509154216
-0.03015491017942424,-0.39776515457579414,-0.03236498396962885,0.03226388670035102,0.6895221156802507,0.9045904474768843,0.9628046721112791,1.2147348053833507
-0.0017868727694222153,-0.3654845424709646,-0.019398617237762428,0.06319391206259634,0.7263258291567407,0.9789902551866294,1.026397674208702,1.2690090939350944
-0.006212656867646119,-0.3982838850923397,-0.014652438957689917,0.053687060483350674,0.7208244012859788,0.9582876464080471,1.0174076212842367,1.2353049899710395
-0.019115156394148777,-0.39667267475186774,-0.02710971072967243,0.04693318137281277,0.6943268954958137,0.9321646027390491,0.9986160203276445,1.208657959554285
-0.0307548203531341,-0.3950912349516797,-0.04944364775072323,0.013263698466200652,0.6577012081896869,0.8797913673592823,0.9334344954202325,1.2124034431686328
-0.019741690850829233,-0.40587978062059366,-0.0195590973489094,0.054758690413128974,0.7046648997925461,0.9287106600412982,0.9933738897735014,1.2787247486175923
-0.008004079153851165,-0.42046421311348187,-0.01682946829989504,0.06904113259454048,0.7184113615279661,0.9795846281954269,1.0457739210967796,1.2882239098820465
-0.016780862930021234,-0.4308717706421325,-0.012918851279827281,0.068517522560366,0.7119217788559943,0.9641492509016106,1.0171113881959022,1.265632076263675
-0.01668430957839892,-0.3929072017577488,-0.022044849710564918,0.05246177309566613,0.6889220491392212,0.930091943817912,0.9936423122814131,1.2425766348296503
-0.03829844903743463,-0.42305148547942123,-0.060727417164314304,0.0132227975152448,0.6565307475386849,0.8774538582534424,0.9381951734473872,1.2584916670430268
-0.03481856244758825,-0.3973598120842552,-0.06615995983145385,0.018412795840085955,0.6392320235907667,0.8645567511180522,0.934061682899718,1.1898227540373225
-0.024864287880271424,-0.41144890416435764,-0.03940089650803749,0.058759285449516196,0.6984973899673738,0.9408524255270174,1.0212893176249704,1.2904849355427153
-0.026943529995126822,-0.4159262523014216,-0.03318740573127564,0.05126354047469944,0.6909386459592364,0.9179990580719106,0.9960569575017058,1.2664863751714162
-0.030244523506305764,-0.41476447665052085,-0.037665705613584455,0.03581584834586074,0.6720991578807225,0.9046752939135592,0.9735158269720489,1.224857447329853
-0.04830330984797308,-0.4310296459787098,-0.07171068289208772,-0.004857763222586298,0.6313935572402625,0.8462607131799508,0.924346798752623,1.2168931573178239
-0.06599134598376638,-0.43673763675876126,-0.10063466043301758,-0.05149106682349888,0.5840922026490336,0.7750150543707357,0.85678369121082,1.1805156479385677
-0.04978469497625431,-0.46165160105372904,-0.08467613184690523,-0.015410524843885748,0.6244606632558372,0.823878877602159,0.9073522340462525,1.1803666214708406
-0.04608103548317791,-0.44191296897894944,-0.07301477531546124,-0.011408538649054,0.6322618002260084,0.844865640763111,0.9254849962630615,1.1809856664340037
-0.04187619530082033,-0.4365987703256522,-0.06712598846518071,-0.005287983686021819,0.600077890943685,0.798238104961253,0.8886413218270799,1.107220503699756
-0.051571603350404255,-0.4184126069757485,-0.0776099519721972,-0.01057468795157121,0.5788559055638598,0.7677296363384803,0.852985314780565,1.1248448720679625
-0.059748633423230564,-0.4409520447490618,-0.08431886836206766,-0.035131568335881436,0.549847734158835,0.7181527294009922,0.8013960293314428,1.1158779169500588
-0.04949648842376061,-0.4333443420196995,-0.07210575471009262,-0.01128307327796288,0.5851617876630514,0.7743872105610647,0.8665972614919443,1.1722755909464397
-0.040897078258684105,-0.4280749164601591,-0.07326495169398908,-0.0035064171629119734,0.6075062983733723,0.7808464168517468,0.8741178134610459,1.1949698506121582
-0.046507326828913564,-0.43786233045312317,-0.07012146062228927,-0.013820765060460288,0.5885139356102076,0.7644304129265399,0.8338160206233101,1.1204320253241724
-0.050263880109823036,-0.4353035608718948,-0.07335238708002313,-0.019741574750556462,0.5552848126130827,0.7299886897424608,0.8022772120921073,1.1343804751781603
-0.066981141114091,-0.4294753326950894,-0.10192841630005148,-0.05675014546460605,0.5141063517612188,0.6637403928952549,0.7454661798162828,1.148150000767172
-0.04470007363428727,-0.40008339013175814,-0.07152609849433787,-0.021328395295800495,0.55845937847323,0.7295358656268212,0.81326842896238,1.1762756024929408
-0.0354297085349642,-0.4135245782195589,-0.06319681538513597,-0.009011311977656061,0.5743250986898533,0.7457002298745363,0.8327301862779326,1.2207035929207612
-0.036216992861707334,-0.40015629122452806,-0.06860396696616562,-0.010875839782915647,0.5749703001390484,0.7287980328396468,0.8221525479616466,1.2007321657968617
-0.037092007098091656,-0.440194382331573,-0.07446046400092822,-0.017172474302683538,0.5491143247531161,0.71358399462249,0.8018765991486987,1.1672501726097992
-0.061205173050060194,-0.4152579011854854,-0.09608500508418412,-0.06322902548299489,0.5108482682545592,0.6584065116225786,0.7346380989995924,1.1381610852464168
-0.0668702290580973,-0.4323798578280871,-0.10556095508855663,-0.06757781923491611,0.5106442564676776,0.6433769906719576,0.7190451586432294,1.1506450007804905
-0.04591336277970674,-0.40846166449531984,-0.07000736365078804,-0.00787844654134967,0.5687091889251061,0.7239919249833157,0.8247160877170018,1.1987849585733892
-0.045279969106575,-0.4050548538691961,-0.0713460967388552,-0.001918017711743908,0.5686832558069022,0.7231685213402297,0.807343449214896,1.17164724182865
-0.042306537590757885,-0.4446355017007635,-0.06584769420480435,-0.010967558039884723,0.56584711907339,0.715458901796113,0.7947356661283584,1.1970815663905496
-0.05123880269289972,-0.4127397931503354,-0.08721016719150132,-0.037249439080450863,0.5424444802064584,0.6819063612888742,0.7529460401149498,1.1857288515662872
-0.062122049393905115,-0.4414532907992592,-0.10300803176654558,-0.05335944236568603,0.510587715878924,0.6410119967025456,0.7204164431213786,1.1662083371255265
-0.05159037845128988,-0.41633870656321215,-0.07016151158538585,-0.00338146804669312,0.5785586007857293,0.7066731638506941,0.7919315463225203,1.214175253610297
-0.045617369695166374,-0.4301680063277673,-0.07463543610230167,-0.005965636394505369,0.5718943731197107,0.7087274052906437,0.795389352074985,1.212080857142241
-0.043310583778125966,-0.4177310309273796,-0.07297716850348249,-0.011356556029921056,0.5690722392600358,0.7042214019984773,0.7855845423344879,1.2118118363584802
-0.04940284465520865,-0.41990139153859557,-0.08584739093289875,-0.02667148496879526,0.546994234676202,0.687043382912154,0.7619080630454349,1.203198464316996
-0.053977170996400176,-0.40330294763108393,-0.08148788181423522,-0.030832641770505098,0.540162368746437,0.6685023605964296,0.750525188813723,1.2384030806406778
-0.03396712090622452,-0.4048256251865185,-0.060587439687278644,0.008842103454717282,0.5921014661943156,0.7377705100421805,0.8221097485250164,1.2335038507034795
-0.038496489963156966,-0.4285976883917325,-0.05498191136578258,-9.383741945411528E-4,0.5956512083137495,0.7333213157524414,0.8288865412162035,1.2256867904666924
-0.0366054526525181,-0.4375386394649279,-0.05847183214579481,0.003850202806158942,0.5909580377914055,0.7250242153341213,0.8092694773410107,1.243827812659051
-0.05147354095004371,-0.4416937082092675,-0.07496991503277343,-0.01648971939041416,0.5575178221713133,0.695009538495974,0.7647543394506808,1.1561493863643109
-0.047878231438288024,-0.4421457794593401,-0.06700998067583382,-0.013469970913423529,0.5727041029225027,0.712401682660811,0.7855878718243317,1.1670821387060233
-0.029364171412165824,-0.4512709925686393,-0.04103602220797073,0.033552825259026864,0.6244084644653785,0.7782933921415642,0.8618476981887906,1.2126385389931282
-0.027667812883061936,-0.43086909432664633,-0.04012118232247788,0.03374651169741022,0.6131643160632411,0.7632218488841541,0.8450479262100798,1.1992230526091205
-0.03331820236860342,-0.43123477769860485,-0.04474600259556823,0.013601588656591695,0.6158760251957812,0.7552905669042174,0.8389223849470873,1.2380087585193755
-0.04551922958769541,-0.43260051014608464,-0.07174450038522459,-0.00857433820820197,0.5660961972824896,0.7136876992566589,0.7901285389833554,1.2110511634572185
-0.05204814284231004,-0.44392875475136184,-0.07065129377974559,0.001207494564161471,0.5767155649809952,0.7263161326564794,0.8056470657890394,1.2282844227661105
-0.022468799225284226,-0.4191795174386727,-0.03324541433705089,0.03967369380112562,0.6317083736143008,0.785758289522467,0.8858727681293003,1.229996115994754
-0.03012558985827664,-0.42362572825160405,-0.039501038596502475,0.03819616400272949,0.621298132657248,0.7728296094736974,0.8672610667210153,1.2367186466475495
-0.03491381125110812,-0.4254454118008916,-0.04834293853801416,0.02025890594137747,0.623868299340021,0.7814061007874118,0.8635746615248229,1.2296847598338378
-0.047995050896573466,-0.43875837101163634,-0.07317634088708308,-0.011960188117127929,0.5981073371619247,0.7365166753871945,0.819447831584797,1.2752093826815707
-0.07001303547575664,-0.4325387180796402,-0.10037764763438045,-0.04311187355992466,0.5622196688880492,0.7050056303717851,0.7856324695091819,1.2640437757588636
-0.05148046278552512,-0.44212608219896066,-0.07699250930204338,-0.008786738489332646,0.6315499144107778,0.7762941547334342,0.8803095118594366,1.3410040051082628
-0.04806009245721281,-0.44349284184200516,-0.08210986071680128,-0.016274505377710163,0.6225633396302399,0.773891492423323,0.8723883368440196,1.4094123989132366
-0.05221617733718277,-0.44359848978170185,-0.07666011713621232,-0.004949404785736855,0.612429431746953,0.7774221129031111,0.8583290424216311,1.3947155949331869
-0.05011607625814578,-0.45575083241007813,-0.08381593053540158,-0.008370514294330833,0.5994429442473304,0.7352840881813486,0.8148688982903544,1.4337497011380103
-0.06077306391217173,-0.4415353151884625,-0.08481440000580247,-0.015162085695123173,0.6075236690713383,0.7503890323566105,0.8209221035716895,1.4844970923721772
-0.048225295537148466,-0.43278842873367523,-0.05202185526055467,0.029140468461705593,0.6445903206505593,0.8057239725945591,0.8912198580773182,1.5297555540170744
-0.05053510908330075,-0.43371533312512606,-0.06346261233234712,0.007003207228628822,0.6456249927195585,0.7965342809643161,0.8872889939004622,1.643178127140113
-0.05228728485550639,-0.41570130964937707,-0.07145211896360876,-0.00373419546069248,0.646309646377962,0.7870574751314606,0.8779396807924736,1.661087615597105
-0.05991343538484821,-0.4381529127990328,-0.0896285403709587,-0.016981544414111233,0.6073850646560962,0.7490049326458195,0.8299840882623778,1.6559052399152914
-0.04906412651068739,-0.41781891346443145,-0.05840367877406137,0.024132841678766698,0.6448893972043926,0.7910235107955806,0.8760833887568256,1.6333669800012904
-0.03595376905252556,-0.41857148535154826,-0.05094647405611137,0.03471137042852665,0.6603976408411725,0.8270252249716964,0.9251112926480556,1.654330418375025
-0.04340641926136293,-0.40626187462415553,-0.05771361524876689,0.014544794195443939,0.6550029162837823,0.8071693285602549,0.9077521994397544,1.6291795574863825
-0.06052073854047253,-0.42162937060768124,-0.07265644740939148,-7.675081294728214E-4,0.6425754404539284,0.79499328883129,0.8926616042313007,1.6735421485419506
-0.07216762419425463,-0.44759145152024493,-0.0995993852967958,-0.03381724642992448,0.5992066884286393,0.7502248772675018,0.8358434387006022,1.692876142647777
-0.06614343073472262,-0.41946393821056793,-0.08396953870205667,5.262891612432263E-4,0.6445798713787281,0.8168895437724137,0.9075723885460586,1.762429288856283
-0.0700406894237188,-0.4221977546213206,-0.08431974406162189,-0.009038862057177799,0.6922591814607691,0.8473074279696244,0.9670324378315732,1.8318394583165376
-0.08551135132860806,-0.4429596117505374,-0.11825161720565787,-0.035532875817044784,0.6744133965959805,0.8402055771729106,0.9482260211880211,1.8577055352058984
-0.10780909156474261,-0.45409838093926685,-0.12686252100801093,-0.05295930940827834,0.659137966820176,0.8169951188048032,0.9165441400903125,1.8757779524486795
-0.10015158378844996,-0.46096533674777934,-0.15023960264039,-0.08276518550617404,0.6315772472888606,0.7486335965476015,0.839603471703391,1.9174803554549542
-0.08672017563409395,-0.46230664146464656,-0.11239630415222227,-0.02886743063916175,0.64402789378252,0.7715844734706162,0.8804908918488387,1.9498927747321615
-0.06460483152437999,-0.4392325466424188,-0.09139054933171091,0.010419275319607874,0.6633787711780537,0.8084813404704678,0.9113525616664137,1.9952394305070462
-0.06214771579114752,-0.43366775880379094,-0.07770971448527117,0.016364344501248018,0.6658270049118065,0.7995534581619186,0.8965774838030256,2.029764276931834
-0.06601592232630252,-0.43037961309103945,-0.08681593036197413,-3.969279135826176E-4,0.6551690701426599,0.7819210253695682,0.865905857450805,2.07665146200781
-0.0823001517689487,-0.4428444979975659,-0.11125697501740286,-0.03406759851539204,0.621713526208691,0.7288799900235858,0.8172212578729463,2.0506444560054113
-0.0769264809901407,-0.4308059884415003,-0.10089581471073765,-0.019374633157423438,0.6486397466871295,0.786218984752118,0.8723556996351991,2.0885451600290166
-0.07061370075245152,-0.4357050589516335,-0.09499380791384383,-0.004248820997873604,0.6640430042454094,0.8014237727373176,0.8724403372292462,2.0320755994342696
-0.07386053487900746,-0.4297179352165789,-0.10048341707976835,-0.023979608576056938,0.6425349883085526,0.7782495014446187,0.8547189726877409,2.031119335607941
-0.08851168650585264,-0.4377552164729532,-0.12352884727247623,-0.04204483306172735,0.6232841060883695,0.7417221367126308,0.8266678440507291,2.0356977604904927
-0.09136200171224833,-0.4329919864420868,-0.13742164015293123,-0.06646322691139894,0.6008831241590458,0.7225799000666223,0.8074432135639693,1.9964731567483205
-0.08039065379710468,-0.4281104984306267,-0.10011682192897099,-0.01875843614842082,0.6563803195487273,0.7760124116704322,0.8617470835446621,2.0000544443318122
-0.07183348347968416,-0.4218743717784524,-0.10408379948241041,-0.02771774974558261,0.653606334255842,0.7668545962360239,0.8520089286559015,2.0193729175537274
-0.08059990688163453,-0.42316666380782825,-0.12065910883332484,-0.04206811792238718,0.6262862710554655,0.7542318027052861,0.8320428056807864,2.0146024525884125
-0.08555422796038337,-0.447590859138885,-0.14081403491196018,-0.07144539875990674,0.6013228021891404,0.7216537119073148,0.7874576664063713,1.9788170949125605
-0.08078587534915536,-0.4436001047492157,-0.13273415875014688,-0.06108771031688354,0.5967535675107503,0.7062477120508828,0.7755272728462587,2.006934896774756
-0.061405109196284814,-0.4229834493398703,-0.10542023889704197,-0.0233436755119881,0.6363043538738063,0.7760572662921063,0.8437402933423228,1.9677777095766602
-0.06708360449889467,-0.4279060476068951,-0.10960939386744759,-0.035085371823684014,0.6214539394354026,0.750110879683994,0.8242443604842096,2.0184111386865844
