-0.025494455433218405,-0.012032418671191735,-0.00864086925489844,-0.006577714511510286,0.02655268975224333,0.05504297559801192,0.06992668779378888,-0.25935237395568406
-0.02828552565645821,-0.020870953966719067,-0.009698248033571256,-0.013562249751157992,0.025975138279347224,0.05453929730264777,0.05982333826490483,-0.2702425172733766
-0.02882519960090906,-0.02796438917060795,-0.017304043212451374,-0.011992465331475913,0.02821830249108395,0.05102139360903564,0.06217961020826181,-0.27906052903374984
-0.021709206255814524,-0.010647914634915823,-0.008795945898029671,-0.005310477673035715,0.026840652870585086,0.056649844819005625,0.061059575484803036,-0.263355611124124
-0.02656474074280232,-0.010102148214820448,-0.012207211415891534,-0.015383194475836633,0.022343521952581425,0.04495909899358293,0.07571435395004764,-0.25354490352599884
-0.02633448824507951,-0.020925758729518552,-0.014526584393882366,-0.01513226399580643,0.0278187215494428,0.05473890732601793,0.05586628788275769,-0.26719028744634066
-0.033643256737413176,-0.02405741301342998,-0.022007287090983835,-0.02020922911706755,0.03240141177544096,0.045659624519897905,0.060325116116226075,-0.25797867317110074
-0.02380224450766401,-0.007105616701631875,-0.009918249473406075,-0.010220413953288916,0.02802147163417946,0.045739934981009964,0.06528046546959185,-0.24691694980433374
-0.026371400684281357,-0.00695506238819397,-0.014781428575759968,-0.02172138238283508,0.029637075971610412,0.04501664522774524,0.059252468637466006,-0.2554825889411979
-0.02638840161317053,-0.0183950158355318,-0.018947433956355664,-0.023824697892711404,0.016952095457494078,0.0423727564665879,0.04261926452012353,-0.24149922668449614
-0.03079513868822742,-0.027300324714662844,-0.020473703685242036,-0.02725045122582062,0.02441712659077431,0.043621359036229566,0.052294446875608074,-0.2738964898615643
-0.020513226168621293,-5.49460495348241E-5,-0.013208188665817966,-0.01528159756194439,0.02525120481827066,0.04695073459130003,0.05876384713500501,-0.2536676251110689
-0.02329654698352317,-0.0056259014714945335,-0.014933181602198675,-0.02210833837277359,0.023819350346352925,0.037360521242983426,0.048114297007129436,-0.2633521027045489
-0.027028760241129095,-0.015613493598871158,-0.015596148104457239,-0.01827215947563328,0.02232380044325005,0.038793849332201195,0.0474645881872345,-0.26267842152232734
-0.028207826008256068,-0.02746130798245908,-0.0197749485983038,-0.01767835437066418,0.01902756492853402,0.04170253851800039,0.050865209135933814,-0.2749409294847336
-0.022740813425093202,-0.006478655701679692,-0.006843489301138983,-0.009679568630538937,0.016828297500050517,0.04241520480424651,0.04601984213875361,-0.2660700942123789
-0.025589445332139405,-2.2838498242364047E-4,-0.008448943042361521,-0.012521209964227297,0.020567925013295567,0.03409980776433295,0.039868254101752015,-0.25565052623823104
-0.024567520578340846,-0.00754234370431685,-0.011518839555733948,-0.011023174450128731,0.026366975547602395,0.03110787552037886,0.04182251688610944,-0.27443784983959707
-0.02650278687595021,-0.02071802718538977,-0.011876226904174482,-0.013072472670376969,0.02467025677701986,0.03187589468489959,0.05059026042926208,-0.27703832069383044
-0.023950185500197087,-0.011275366600011884,-0.005790750728956688,-0.00753063696216218,0.021296497428911914,0.04022181556872706,0.058128063016817035,-0.27311298138450935
-0.019110481410934153,-0.0026466682780024865,-0.01005138341608016,-0.0035901104245385975,0.020452095154500496,0.04079334322586865,0.05715327790284228,-0.26392544714003274
-0.022831295499080088,-0.007095418798777621,-0.00906041048311484,-0.008562038286135384,0.01979835582784107,0.04161801489657791,0.05735072798476596,-0.24844067527473668
-0.021922125232897927,-0.020272022045828852,-0.008229593238354302,-0.006440061285186344,0.02784099221236971,0.04595836027215304,0.059574162966273506,-0.28128817272177886
-0.023238323428003346,-0.01813920160512506,-0.004713610699798459,0.0023298255750334607,0.023886686588762706,0.047476852055564116,0.06350968397772556,-0.27525764415514115
-0.01948989406743692,0.006905715316086134,7.099780934604334E-4,0.0030433077434781743,0.018230045147779407,0.05073032273383781,0.06424630844946128,-0.26372708191343724
-0.017879083520686255,-0.0020173308271713075,-0.0022196584917330638,-0.005673893036350855,0.020305106310380124,0.04412137756159009,0.07351890965187884,-0.27703769117330307
-0.028567255468539488,-0.006453854321573753,-0.006058842191654265,0.002349507917636628,0.024916942657783523,0.04783622556842479,0.06487540731928257,-0.2799023138748802
-0.028491424468404795,-0.023114222178433688,-0.00451963847178451,-0.0013822315670948863,0.025904571998962435,0.05244176671313152,0.06692684879094823,-0.2502135885828021
-0.01736143900469149,-0.0013270813001998835,0.002031953440346522,0.01023221093385233,0.023687068545268156,0.05708726239679614,0.08502715615316239,-0.24076310368189693
-0.019436351534475184,-0.0010392424877168748,0.001593862078770895,0.0022065209548695892,0.029225932495695297,0.06239124975156079,0.08199887376072963,-0.2513731184511881
-0.02378675035976362,-0.00535783990637413,0.001664541688153914,0.0013052476848708682,0.030300298187608776,0.059081724898872666,0.0865213018714482,-0.25373426967365686
-0.026362624435446243,-0.016370022919768284,-0.002617661595858848,0.00305459592043221,0.027906227028504982,0.06266954069593494,0.0790507224623881,-0.2672494233060341
-0.026495744138264693,-0.019232864702954863,-9.975995233521503E-4,0.008405466350749962,0.028421307423706965,0.06839457104296838,0.09249692750844375,-0.25867750589462835
-0.01482456247392102,0.0049630512371089345,0.008043408697293537,0.012591875528078564,0.03887320489304661,0.07219341008728426,0.09434183382908454,-0.25590853124278795
-0.019325144452613637,-0.0018476285420626533,0.0015492530355549314,0.009215124806937336,0.033685212454947176,0.06874602892807215,0.0922020360633132,-0.26151137611156416
-0.025109839731150746,-0.006696071820943614,6.671998971801356E-4,0.006441437787989409,0.03200343321489521,0.0712280607490272,0.09806823739690611,-0.25320699827668336
-0.023466702347016435,-0.025796225790436424,-0.0018897761760268803,0.004755388674470925,0.035367384713799466,0.07963416580740931,0.10435552954822387,-0.24067589945739493
-0.019060324596502226,2.4765885644393833E-4,0.009806586495102063,0.01944584741860221,0.0363498951939247,0.08421229608475678,0.10922763073025873,-0.26134550152213093
-0.014965145984065696,1.4275814042211192E-5,0.007649416078994217,0.020379760086717855,0.038711357110743964,0.08407835266744675,0.10493275316047822,-0.2362062903999178
-0.02099763436865265,-0.004839564193567582,0.005956819733432927,0.022311138026086103,0.04025185547802455,0.08698801931716693,0.12808411819026225,-0.2646288135708898
-0.024908339148790655,-0.02170198043614825,0.0017216561838729104,0.01639371552689208,0.0385765845755474,0.08849224405697054,0.12179271733839246,-0.2529644432380205
-0.024608123404183484,-0.01804849125899396,0.006697308114536305,0.027558509554038678,0.04143388825977635,0.08870449982710564,0.12092799275040175,-0.24773103122428577
-0.02065667043473763,-0.0044103839857098735,0.01246177827521743,0.025340351014789493,0.039207022226595556,0.09997889790344519,0.12650084532616435,-0.23552310993130193
-0.02634105584850198,-0.012988835449852059,0.013364956590070148,0.02903765896050349,0.03815761284176974,0.08772794783095038,0.12385659618386799,-0.23720098202068274
-0.02733386737792635,-0.024534854730007733,0.007924653370896999,0.020953302873123615,0.044325640450938536,0.09579118858396005,0.12610408630686362,-0.2533666363087295
-0.027997363723177824,-0.0365265990247222,0.007263352225683763,0.028371651911568253,0.039750524871697425,0.09173608976515589,0.12135854196720225,-0.24468162439150024
-0.025723751234063546,-0.008128578866349752,0.013352018217642253,0.034797371919296646,0.042258066788692566,0.09501711470750414,0.1259554029544276,-0.2544550625736801
-0.02469208493302146,-0.018239459029272657,0.011758693332571526,0.028019830495854818,0.03456042170182639,0.09621908524652388,0.12267283131007277,-0.24039251736789005
-0.022484475422705173,-0.023776618972759272,0.011158045686277259,0.021042098207692643,0.04205724849383255,0.09953044416116386,0.12986350246049644,-0.25328778606454905
-0.027984863200368335,-0.028822950042206807,0.012149935233585476,0.02773301236028053,0.0359890895110764,0.09921831900350499,0.12391142726064425,-0.2633712620533434
-0.023207494981660203,-0.004113926670595807,0.013137967027595666,0.0329220580547117,0.04483305654466535,0.10284746810159218,0.12728405902537304,-0.2422742789615527
-0.025654256022157255,-0.01659395893443366,0.010563034474879744,0.0249992757825783,0.041924374898475794,0.09257222592301882,0.11405135913831448,-0.258636462788574
-0.027640130846259083,-0.02164357659710877,0.007049056533664613,0.01794911964463258,0.038481495570439256,0.08494604099006864,0.11539799120358533,-0.24940090418092498
-0.024546262930631387,-0.008133085080155837,0.013241488761419716,0.022231352980141107,0.041268608015195885,0.09217585656106313,0.12095803943121364,-0.24874748295755603
-0.01761788682198571,0.009855936109600782,0.009509365090612213,0.022553374567008674,0.039507420558367055,0.08627708616590161,0.11129903806760547,-0.24306909594683032
-0.029124059497616556,1.502502018369247E-5,0.01016513838202775,0.020147002592282935,0.036709013558937985,0.08482076201996744,0.10771389105392229,-0.2528771140742945
-0.03231100401847765,-0.015429149765015493,0.002059080370407514,0.010951499328082856,0.0292453031980974,0.08118985508752237,0.10282089762617125,-0.2593693624487304
-0.024911010173354408,-9.513073534228679E-4,0.0076466476260457555,0.015340161947391911,0.04272307125547349,0.0731088695685719,0.10822795927625352,-0.2504382623926653
-0.02113855230524319,0.010404453847221277,0.004394875919010595,0.011713645197240467,0.03009276120960379,0.06524851980895409,0.1000614883907979,-0.25136907057481195
-0.022563011459598676,0.0013343038420878274,6.747597094712617E-5,0.001881018063598454,0.028663686907816833,0.05954808783286665,0.0731045935061138,-0.24632177624960638
-0.03021767651395748,-0.005417455965069482,-0.004872375055631631,-6.190626161389616E-4,0.022673504208954528,0.053231136106763145,0.07614661336751331,-0.26188323305815575
-0.022412182501775197,0.009652157302335342,-0.0018961439324792976,0.003204147189750699,0.023746846696233132,0.05217444971724113,0.07220385665902414,-0.26336133081579877
-0.020538458800597875,0.003204451526869184,-0.005662048659061601,-0.005747322194734627,0.023033990495792876,0.034292578136985497,0.054776743840386215,-0.27237158245346244
-0.026813632075212524,-0.00200260578830197,-0.011887864217373327,-0.01114767041906612,0.011240536921116838,0.037185968996895684,0.03996744820467276,-0.27211809491017647
-0.027183642677596057,-6.06797890232143E-6,-0.010172583994130088,-0.008969279438716674,0.0194599434403298,0.029298993603860693,0.026532421791518178,-0.27870469666683817
-0.027157198085849165,0.011847938924363697,-0.009017873341094907,-0.009303228533989953,0.008950635270571945,0.023707849178630246,0.030669363738690295,-0.2611236233026767
-0.025581988222664137,0.007894022176065775,-0.01494558397691854,-0.018790820261032497,0.010323174828061077,0.018661245823362725,0.0199006772210519,-0.28570796119237724
-0.03356807435825953,-0.0035025756028270044,-0.01636560525202016,-0.020551726871033755,0.01538188856274587,0.008254641041290391,0.010432556155938461,-0.2755301405740176
-0.03057064751101299,-0.016978666349897316,-0.01786750534732714,-0.02484213848240107,0.010006183525189753,0.0059303605101556555,0.008411138193325831,-0.29354469206523315
-0.03074839736153152,0.011460861483444386,-0.013277123870034976,-0.022658533107643146,0.013383968865455703,0.002717229000764755,0.009788897829201991,-0.2851360473475083
-0.028554224053891904,0.002985069168933365,-0.01804234515388002,-0.026270744075887337,0.00902189845839677,-0.005726291677129073,0.0029035791818651582,-0.28469127528580984
-0.028748403771381697,-0.014260036307067625,-0.024317853269874217,-0.03391088592873562,0.0037756196738488413,-0.0033160516939013196,-0.007302887112409855,-0.27212521184323113
-0.033068655872698124,-0.02091227531442855,-0.024510115928186447,-0.0328058423291364,0.002566633249773411,-0.00391114457108846,-0.013313684685068017,-0.30720702719462495
-0.02814012352067579,0.0013975095301897492,-0.02121796298802262,-0.02784496964220922,0.005419541546917723,-0.008660262717730969,-0.0062193572231703294,-0.29114233671535433
-0.027859461395008063,4.0872254264376514E-4,-0.024820679612820418,-0.037238107270823474,-0.007179401629229333,-0.016983122067758996,-0.012554294836452005,-0.29718136971346926
-0.04002225523113519,-0.012068203495285406,-0.028620594491043545,-0.03746745210857737,-0.00958155134045415,-0.016235240186460543,-0.019346841385521122,-0.283356932893229
-0.03905039803695005,-0.01948818940934453,-0.02782681819385196,-0.03606819175100464,-0.0034839235308119607,-0.01903832170456316,-0.013566359230686312,-0.3219836748109095
-0.03411206419935627,0.004853825698868532,-0.025025080219792564,-0.03434832666210445,-0.005005991605631945,-0.016805421838273837,-0.026722143482450403,-0.2907213034203782
-0.03680902560225519,-0.00390477502629336,-0.02561075354754466,-0.038061502066448705,-0.005094194016136287,-0.018639196628453578,-0.018638826931295784,-0.30493465435546996
-0.03534653972256145,-0.0173066490835625,-0.030108679613139965,-0.044611518851812054,-0.01002953904589634,-0.027606844327883778,-0.030040876164044477,-0.30702135843948725
-0.039713646097591475,-0.019586893409246495,-0.02847237831419404,-0.04220246709157799,-0.0072733711959826,-0.030139674304137238,-0.03090941776620297,-0.3007647791724541
-0.033854369171796565,0.005466714330899976,-0.023081380568570543,-0.029569251450342265,-0.009853732585146732,-0.025937502102030545,-0.02877536741701731,-0.2882078094129226
-0.03773548305360202,2.9417572832830206E-4,-0.02885911077432603,-0.03916557454503057,-0.01371296556040713,-0.028724537313155423,-0.033668718303052354,-0.31559165825869084
-0.03689814637292818,-0.006910253365534678,-0.029081858014266437,-0.04188075859976539,-0.012900267921720823,-0.0380069561253604,-0.033170892112939325,-0.3177168446136295
-0.03564769333935565,-0.013625706838205368,-0.029103413117643345,-0.038503405828399416,-0.008210755157773954,-0.03373166384137239,-0.04629362393919828,-0.3084231491950084
-0.029596766572754767,0.007139675646376709,-0.027839694422907124,-0.03468488586902684,-0.020975671209700033,-0.034199344040977055,-0.04088462771654509,-0.31809924136072193
-0.03844573318299839,0.0026191686634004286,-0.02828084118584799,-0.04097524905400677,-0.02096501739489839,-0.043922273030236623,-0.04258883275719082,-0.29867810287249
-0.04359379761360204,-0.004774927479844616,-0.03499288312904275,-0.04228544003400792,-0.024010205594073658,-0.04659460976026366,-0.04794640764586176,-0.3265465802509451
-0.042530377094363456,-0.016758365584070668,-0.035342119486711246,-0.04746324187394965,-0.02084641417922678,-0.04154278050392008,-0.04692585737570848,-0.29212917499752894
-0.03730791242374108,0.007284485321888533,-0.02954580060926833,-0.041083095613228454,-0.011883219076707108,-0.03443605537254513,-0.041918806588697094,-0.314206614716097
-0.04124570592965625,0.002686082282696223,-0.03123914624689475,-0.042144514124725536,-0.023172721894768916,-0.041057427303317955,-0.04903593842087472,-0.3088945880591972
-0.03926948620053402,-0.005652129759575649,-0.03610808835024674,-0.05013810102966535,-0.01609938662292194,-0.04456712843009088,-0.05578894912300357,-0.30481346580633534
-0.050612001721061825,-0.02408095472255903,-0.04209569669430158,-0.05175423704382783,-0.020957720189956744,-0.044758040820798414,-0.04898482745450538,-0.31755017150590376
-0.04360211547460404,-0.013644497068302584,-0.03272178586417406,-0.041336198384203236,-0.020260448194263845,-0.03827955443076339,-0.05177613316890633,-0.3156936827299126
-0.04522601383598431,8.885525355942923E-4,-0.03263673073987681,-0.044319736249893826,-0.01701356032989829,-0.04071267487421128,-0.03799355832951135,-0.30698366951463
-0.03891619842417217,-0.007562176691573361,-0.037807729278483894,-0.0487829794765738,-0.020918131750477475,-0.0517877259092372,-0.046178654616159984,-0.3116407790605801
-0.0469605942256071,-0.0241621743062169,-0.04320240548399916,-0.05268703308508401,-0.01987819858586975,-0.04198697899452456,-0.04449976664220213,-0.3040692787488474
-0.04573149156390378,-0.030017698536076914,-0.03762681438224515,-0.04642871671739295,-0.018656380934705296,-0.04248673501832537,-0.045748642452856265,-0.3080254718302019
-0.04996860073765149,-0.011306909977890613,-0.03761075263358476,-0.04313403373713191,-0.02573933523896354,-0.03958389136204494,-0.03367178865700343,-0.28887697737228946
-0.045637926607214725,-0.018084720896458906,-0.03739822176348253,-0.05145649761341428,-0.023277437192971654,-0.03696082083694878,-0.0393132002530941,-0.3076808615379945
-0.04715801137793235,-0.0320546625760154,-0.04230538021720343,-0.054944813165371094,-0.02084557360346703,-0.033602406809863206,-0.04194024874370552,-0.31479537057221674
-0.04923167618751605,-0.03519920631079715,-0.034549467806932264,-0.0480991990521816,-0.02130788115719978,-0.034116701778591225,-0.037970838345724345,-0.3079740655583492
-0.04695543274271146,-0.010208416383532488,-0.037848318162173156,-0.04364877326732113,-0.019310325481248534,-0.03648502886377245,-0.021575836917073685,-0.30220836438100973
-0.04019337994660134,-0.021418501902961972,-0.038863418164156026,-0.046730912437499106,-0.02258831853181015,-0.03410811331146821,-0.037092750481494234,-0.31938275321317544
-0.04361990446795805,-0.028898025874731396,-0.04089051684341076,-0.054124814157560326,-0.01955778244296467,-0.02817204137997497,-0.030527519504634126,-0.32365768331784495
-0.04599242995283187,-0.02928351184951883,-0.039766437161143316,-0.04062004833390363,-0.013204132727021665,-0.027810824434081612,-0.019785387089186424,-0.2971232752251165
-0.0461968474123901,-0.0046332354444206785,-0.03640506048989911,-0.04686853075160191,-0.014755008401049015,-0.023344296071613212,-0.03208066428906006,-0.29468341027117134
-0.041348465330863615,-0.010316799740401993,-0.03528035458792856,-0.04882759461695423,-0.017821387589468513,-0.02487168760198227,-0.02653680492095795,-0.2954907788124726
-0.04412033963083383,-0.03378098487673963,-0.04136198155768808,-0.053032652729045636,-0.023844036559839694,-0.03202618693012077,-0.02189316913684097,-0.29654265529766954
-0.047858665535238515,-0.03578871066838137,-0.042363064097642164,-0.051921481196985725,-0.015235926069605192,-0.02928972864770768,-0.02476960287366881,-0.3057638358822143
-0.05096308354539475,-0.012542790883608438,-0.03834208757528669,-0.05171264061679575,-0.010526863852107436,-0.0284034342244846,-0.02337405749238313,-0.31516263773114955
-0.04845693371827348,-0.02686153049160533,-0.04094384873115096,-0.05307784411422056,-0.011012725312777112,-0.02564170552413737,-0.04146581091595778,-0.3049132606532337
-0.05254935050178888,-0.04035982514436102,-0.04953844532348069,-0.058485285362929885,-0.021067140822268925,-0.025539884302853404,-0.033526281067304764,-0.30458643648217437
-0.04945926069757813,-0.030568833262207783,-0.03899337771483105,-0.049078200109247044,-0.01826211011918727,-0.018468386917254165,-0.03241517392741131,-0.3056184240098854
-0.049818462556384516,-0.014351439357668718,-0.04526147183945319,-0.05469999811385531,-0.02147842009782235,-0.030500014933362046,-0.032677439133856886,-0.281185849234442
-0.05455972094911217,-0.027708656004576258,-0.0452652752277162,-0.0617072464380567,-0.011741057099007987,-0.02986330016203092,-0.04115362867458669,-0.3002742208924245
-0.052472203799279145,-0.03623695989222294,-0.05028787378723543,-0.06582176377093435,-0.018590029670341922,-0.029665392859433724,-0.03824855149781432,-0.2810248686919408
-0.04635667598632532,-0.02144766300844814,-0.04243830106820044,-0.05997476681531516,-0.01888512333948502,-0.030410652767484926,-0.0349769963170558,-0.3084637046134797
-0.04970999298326229,-0.025428457158552447,-0.04463120470435005,-0.0618043289448908,-0.025229722004713954,-0.03763752037648431,-0.025784554848786643,-0.30805887952345196
-0.056134863705779275,-0.03493095306840325,-0.05101697045695646,-0.06598862387977074,-0.019769223555168292,-0.03812117950825679,-0.03818993622100085,-0.3185515272852886
-0.049562851864316956,-0.038203740325245775,-0.04819719625678973,-0.06192030254824103,-0.022022785904062297,-0.038416008521665365,-0.03911274425900957,-0.3130436157374237
-0.04398497452483155,-0.022173236796807827,-0.04366138593950758,-0.059583660178922235,-0.016971009025329838,-0.028495186615177324,-0.03304627834367885,-0.306348251518923
-0.05433700532702573,-0.02564450673249647,-0.04513212509836113,-0.05977081318179551,-0.016001075593545782,-0.03868164472068209,-0.04520905012550393,-0.3176614029026776
-0.049378159473313,-0.04024216486777694,-0.04823230330186746,-0.06476925727278521,-0.02087057191258286,-0.04089223446192403,-0.03893331672216623,-0.3087434662832721
-0.052578348303738115,-0.040222074668029004,-0.04675285210632287,-0.05830038334037208,-0.02460363685302537,-0.0334950134431132,-0.047690249054749646,-0.3149245053514981
-0.04739481640662229,-0.0203352055265818,-0.04360559523516617,-0.061006271706821,-0.024713678851739886,-0.041081961549171674,-0.040902113701458596,-0.30640301306829165
-0.048507302066787744,-0.02774085484704398,-0.044147760328133445,-0.05913924783776282,-0.026028148031317047,-0.03752290056644668,-0.04337684754489154,-0.32133072377903454
-0.05538314138302801,-0.04428692169012905,-0.05270169194598198,-0.06354534294404109,-0.02459764496430666,-0.03327223156311388,-0.03533919827313952,-0.3068016907139201
-0.050816128397504566,-0.02835920656750076,-0.04307742333344613,-0.05623399572177104,-0.018800923942063938,-0.03282040661743609,-0.04214203468457294,-0.3336416739053613
-0.05238367791866854,-0.026047966479147613,-0.042852081905952646,-0.0573236260726577,-0.02154371301060828,-0.03941539706917968,-0.04625268856469665,-0.3111258825401704
-0.05362120237575522,-0.03125740179757676,-0.044539461842069285,-0.05512713895614809,-0.014212442294510375,-0.036513246939337704,-0.04360575899446465,-0.3197760859360382
-0.05683419300359821,-0.03647356139680936,-0.043583026330036155,-0.05270302024489454,-0.017448914749661266,-0.033388969603182425,-0.041514681663942496,-0.32505666296136565
-0.050699011349208824,-0.014232450212221404,-0.039225641934709655,-0.044258026215823185,-0.020318432684606796,-0.0348120668953429,-0.04063500956848918,-0.2996280560432086
-0.05241502404722253,-0.027916418598003184,-0.03672354491594165,-0.04627658175414409,-0.018451881846814892,-0.04030138166385749,-0.03230593985999027,-0.31544948866462574
-0.049206930549131646,-0.030459605254470112,-0.038582608500156414,-0.055536747885597586,-0.027131422421207228,-0.036826428515310275,-0.04325718687549821,-0.3127186720512682
-0.04861794239352022,-0.032139108964587854,-0.03383639406815392,-0.04476268663972146,-0.017604124903990652,-0.0358460671407896,-0.03249193475463173,-0.3160794687390891
-0.045640798012726476,-0.011131836830302753,-0.034165580281590606,-0.04658316545571699,-0.015480322205398842,-0.03090205137711789,-0.04262607038318472,-0.3092363202969808
-0.0498121246740126,-0.01683811670546393,-0.03547030810915715,-0.04687099694536587,-0.02617518493538748,-0.03881650231844464,-0.035180666242224094,-0.31242745066348737
-0.0481279045939955,-0.020907078521894294,-0.03973941355710823,-0.04564758556893381,-0.024820356154344626,-0.036871313996499,-0.0359575973476588,-0.30756336593390543
-0.04205258838320701,-0.01288231744619763,-0.029186138467497527,-0.03995068862098943,-0.018033567065014366,-0.03204097379889095,-0.024800568124487686,-0.2989779031474241
-0.048575520094818324,-0.002459101696190155,-0.02872814753291373,-0.0396322659537905,-0.023399376133375775,-0.02925526591242124,-0.036418029407800985,-0.30151173049879537
-0.04743098813860769,-0.011691698116475366,-0.03351335136004091,-0.04414612803092328,-0.011220743468151731,-0.03189371607032375,-0.04368205384155077,-0.30902684703980415
-0.046813510418871246,-0.02235292486263188,-0.03531856229552879,-0.04369474820825251,-0.021181385761250296,-0.03358388855335244,-0.036240784437940494,-0.30275694775892126
-0.04669835789723907,-0.003718569375940266,-0.02454554238895971,-0.03393509667744994,-0.02078618952087181,-0.04182015908176499,-0.038443519497526356,-0.3169468770404016
-0.046773831030597866,-0.005397086946974184,-0.03028814077905674,-0.04332776673251127,-0.017829134983829948,-0.032703778692278744,-0.03372491669741612,-0.2941462071341012
-0.044296249460327126,-0.012147297146776797,-0.03070509153066762,-0.04379905901507699,-0.01797935668698618,-0.03566407452656082,-0.04026901889155128,-0.33239915712003926
-0.04754711761767532,-0.01811495516140291,-0.03174258375165073,-0.04460571759720978,-0.015306336993662196,-0.038653666196144944,-0.03872514749434452,-0.29419523662714786
-0.041899722930186255,-0.0013423358334702172,-0.028181147981375602,-0.037822651593991695,-0.022597781135112,-0.028624712492201217,-0.03915260581625592,-0.3040279324439551
-0.04217873421344372,-0.007728479596271885,-0.03308493395464834,-0.03335291328895561,-0.01895309286495009,-0.04157533392275584,-0.04352424031325904,-0.29804619376954145
-0.04934680557512604,-0.018588705897822272,-0.033759987615020526,-0.04235091131324102,-0.018019884964502332,-0.042765952894929446,-0.03405011701143759,-0.3172526651973376
-0.04559444636269394,-0.02169722822393765,-0.0312584655241216,-0.03439835043491283,-0.02550451611780875,-0.04277062035275411,-0.038136990571864884,-0.31953264866285713
-0.0458237711598538,-0.0033756947965075663,-0.023341897005077106,-0.031393711242155335,-0.02355357540514608,-0.03844785153130084,-0.030453157549682405,-0.29452416573074897
-0.04232105324335366,-0.01618442942670521,-0.02706901969297297,-0.0377337232289743,-0.02174106382013148,-0.03726540297527894,-0.03790684556014003,-0.30522976163949733
-0.05207479090510623,-0.022062678591127736,-0.03328844417040822,-0.04252006755936593,-0.024391388058934697,-0.037977054384002645,-0.03972759223439239,-0.31234795878968535
-0.040169972077323306,-0.010599427586506662,-0.022722113216151873,-0.022171632569281258,-0.028768782983367772,-0.03297977060244291,-0.03786564490819249,-0.32576769422386553
-0.040857802876946334,0.005630265540951513,-0.02110392156563444,-0.03363813631788865,-0.01758538826153618,-0.03724353878090763,-0.03183744014886365,-0.30323889676492616
-0.04306197195254364,-0.010120331565094495,-0.024741514597248417,-0.03217895009025607,-0.028983415505655672,-0.041217593500370193,-0.02871109278319039,-0.29093422428142107
-0.04213518622644412,-0.020463056256152197,-0.028729101906641574,-0.034657502303264136,-0.028044298903922547,-0.03378867221473497,-0.035327678896340316,-0.299881475733312
-0.03998010523541916,-0.001371580300684109,-0.02009333135080759,-0.023939008166842562,-0.02213940124625805,-0.030554826927113348,-0.031991576001223654,-0.2994828388195137
-0.04454989791181149,0.005877282719057955,-0.02106214851668155,-0.028390484489956642,-0.02106140799871191,-0.03486669721018336,-0.030733080146951378,-0.29832002827556253
-0.04502954970015846,-0.0027932199743572364,-0.026607454651446365,-0.03689144447800173,-0.014637301429525728,-0.03579071554807487,-0.035373760186719276,-0.302371679081686
-0.043490489255877375,-0.015461367675993829,-0.028214908095228485,-0.036169117717021436,-0.022874622261131017,-0.0330598833015644,-0.027636759709445083,-0.3166017872951834
-0.03695431450528939,0.006620354215769482,-0.016356923010693622,-0.025957794919913235,-0.018205274372943076,-0.03486887753036741,-0.03479589359606753,-0.2959681367924067
-0.04122671524342292,0.005027747288739083,-0.02745282821069721,-0.03850925075345909,-0.024723165566883747,-0.03278053441575176,-0.0412611007409224,-0.30241012116229515
-0.04898620762000136,-0.011644651099575971,-0.029247419358706884,-0.041077159885761404,-0.024896997501265308,-0.037426568278029135,-0.035769034148567816,-0.3117579504991448
-0.045944082523666004,-0.009843190128648222,-0.029960416194812836,-0.0376881918219331,-0.013552720168685844,-0.034780579471189337,-0.0333587475844318,-0.3161863606012306
-0.04239510989264998,0.005777409527181621,-0.026270579894503456,-0.03795411053567622,-0.025257721549087675,-0.034294888233360146,-0.024032754978539003,-0.3160503020696262
-0.04566734670092176,-0.003542126259273271,-0.03101714654322124,-0.03644840678780851,-0.015802080269593264,-0.03588787293583963,-0.030524127358407222,-0.3095557518373358
-0.04730680175705379,-0.018559790249602092,-0.0359434309991656,-0.04706700241286069,-0.012994281514397917,-0.03946293692704282,-0.03504721891362842,-0.3120320257937909
-0.04016451085871777,-0.015069558286744686,-0.033774110299226286,-0.04101411670249119,-0.023253003114535525,-0.031942043739533264,-0.03340841146718733,-0.31162419791379353
-0.04455977104042223,-0.003118112230444328,-0.03250313762352173,-0.03637930923116176,-0.018028878115964903,-0.038918468716523325,-0.0313634311364359,-0.291315341903407
-0.04493315950997288,-0.014477876866360586,-0.03304901367462221,-0.041178047490262805,-0.02906598017077721,-0.04249745673382769,-0.0408824597427349,-0.3079608548454345
-0.04961305167849039,-0.02196702758202408,-0.04013165443241964,-0.04410559435405577,-0.019610187773738685,-0.043414083349487924,-0.03047512289729795,-0.30958561965531145
-0.04241147568058996,-3.402522391606669E-4,-0.030156295220897567,-0.03417698477332607,-0.017587429110130528,-0.04040325580536739,-0.03262778023808873,-0.3002980967033929
-0.048065959268556495,-0.005506252097429948,-0.03536428822773069,-0.04479926879059476,-0.023155427958538147,-0.03747970129413651,-0.03607966494533364,-0.31559158866402853
-0.048318181211079364,-0.01625865928983474,-0.03750058060320592,-0.045475616026728984,-0.029063151632735425,-0.03955233357003968,-0.034061287422377115,-0.3155755212619377
-0.04578038985018526,-0.018149460582249793,-0.03483549737719506,-0.04981833142811627,-0.021837372079842304,-0.032301724229127055,-0.029372510346988078,-0.3279562025135004
-0.03985811879198129,0.004849823804399186,-0.03243192945815603,-0.041102624493872496,-0.02520393683754559,-0.031787588908902424,-0.02489901590925865,-0.29953710653581117
-0.04910648438714295,-0.004387852660454053,-0.03196612232937313,-0.04186359251798321,-0.029092326393528236,-0.040391790278257574,-0.031144313374340624,-0.31087572941487834
-0.05017430269203175,-0.01596943585203212,-0.03880235409785329,-0.050559931195113414,-0.02814929425860418,-0.03988082265351356,-0.028855138971464647,-0.31770784780048295
-0.04019347375479162,0.0028137163622566934,-0.03457861321701969,-0.04242128904023976,-0.02410440735225186,-0.031385196397157984,-0.026615599846553616,-0.30519321561991086
-0.04051085287588735,0.008284264944046082,-0.03288397217554481,-0.045745523884220214,-0.02567503279252936,-0.03628755701425742,-0.032364550428747085,-0.30251458649664187
-0.043575304559844034,-0.002934193863650407,-0.03859903095511145,-0.048005741804002494,-0.02315404969840138,-0.03859125997712697,-0.040191280353036096,-0.3141725670420747
-0.04388817642852333,-0.014769529128206857,-0.04011996764360148,-0.049732998246812904,-0.02771514011499257,-0.040455718895768,-0.038865903538472336,-0.30061949475604477
-0.04053278234026831,0.009554632292882819,-0.03134522749031114,-0.04294712406206959,-0.026097460968460617,-0.038386266108000944,-0.03335418008644563,-0.3046674887043888
-0.04041686453455683,0.001860004181239695,-0.03697088523500104,-0.04785356034214728,-0.02432123785214518,-0.045491902252018095,-0.029846154963989714,-0.2949967862698653
-0.046665384361046544,-0.010146383523307422,-0.0415472453344406,-0.053572029167283396,-0.02396842025430897,-0.04182631047281617,-0.04059045850043883,-0.2944152671290211
-0.047592650391335194,-0.009424325280708619,-0.041631234229300436,-0.04927375709369476,-0.017486557810215284,-0.043179002312389934,-0.04205505292253846,-0.30286256009884344
-0.04473318014654263,0.007540532529513452,-0.0382064056879725,-0.04652653384680284,-0.01924032028622914,-0.04193098869121935,-0.044883446404594456,-0.3014665997991274
-0.05131071714652149,0.0061250118653162705,-0.038998135796528215,-0.05559112319003957,-0.033549025802059616,-0.04510220748917301,-0.04186609411074757,-0.32998966166278226
-0.04731293880045208,-0.013692268682863355,-0.04397133564476216,-0.05774409976980876,-0.028892839349931445,-0.050857906647249734,-0.03491027154761158,-0.32038618156265625
-0.04908081544779964,0.0034684696340363105,-0.03746858114193653,-0.04693767167024854,-0.02341279084310554,-0.040951147022133455,-0.03899209791903733,-0.3155864136347016
-0.047923233881196535,-0.0011346316655532322,-0.04354120002750826,-0.06081312582811615,-0.021712942488893917,-0.05017642962296493,-0.05165345809655735,-0.3112222765319298
-0.051606767963920185,-0.012996999961594737,-0.04330458258042564,-0.059488365183405396,-0.029228133514405518,-0.052130565451597756,-0.044774743561391404,-0.30728428081508935
-0.04944703318887648,-0.023822017906017345,-0.045738284456787036,-0.05533996237450582,-0.028879650636361852,-0.05673261615298778,-0.03728162803532248,-0.30740339691948126
-0.04763964574940284,-0.0025493595678921415,-0.039422525139142184,-0.05626946877543173,-0.02557642325822397,-0.04367269936372092,-0.037688164409905404,-0.3145715862886533
-0.04840493019919788,-0.006011055227982794,-0.04523329961579694,-0.060543004184364646,-0.03915228926846939,-0.047327729055500305,-0.04578677703405194,-0.3014223394381174
-0.052894912683831515,-0.017730733639842164,-0.05234875036549823,-0.0605577378400858,-0.03682199182288016,-0.05102374715065858,-0.05015580570391638,-0.32172253774516263
-0.04842751175672393,-0.009988340775479793,-0.044124824642474,-0.04931512729286749,-0.034952265702240304,-0.04591770655312722,-0.03947251701219988,-0.3280435565664651
-0.04779324903291068,-0.0068084785752805235,-0.04249926949797162,-0.060411172214429494,-0.029280662809706506,-0.04975659412358872,-0.04278644704340012,-0.30565989135733296
-0.04832169977746211,-0.014987199074386502,-0.046550605255729016,-0.058069082753143736,-0.02283968917747426,-0.04915294352483743,-0.039909086133768534,-0.32243714692692005
-0.05348852167729786,-0.026796876054321014,-0.0467631877917883,-0.05523400643957861,-0.02576285503159324,-0.05059764983614296,-0.04274504746569741,-0.310055744184521
-0.04687964314427848,0.003981851191916402,-0.04285075577855359,-0.0489068883838848,-0.03315820668903045,-0.0542903442570497,-0.039560251747260085,-0.3006944671453363
-0.051031798527050455,-0.004341406863274865,-0.04627110292462972,-0.06120967777532545,-0.03398027935389183,-0.04672677886844597,-0.04537908918834228,-0.30906610342213275
-0.05274967105421368,-0.017183754731846357,-0.051311223325944594,-0.06603279691338562,-0.0324270120044515,-0.054482809783441354,-0.03663786405351896,-0.31975888930744223
-0.04992670219721422,-0.005456181716518887,-0.04203071974882429,-0.05740364306473473,-0.02911611669817372,-0.04370854703839568,-0.03080180675451749,-0.32045426527426524
-0.04950429882853589,0.002549496494864574,-0.0477696815130253,-0.058098944509050884,-0.03222263952070986,-0.04552827422255964,-0.03867825114664901,-0.3149957916851864
-0.05075361499111523,-0.00657792331035504,-0.049125217483264344,-0.06447236893104194,-0.037264672644497995,-0.05050312607589104,-0.04018624831822785,-0.3057169333990059
-0.04792441576102363,-0.008700284123738779,-0.049117859488406204,-0.06451280273688832,-0.030153057161642096,-0.04658345680168327,-0.04228408201561706,-0.3126317759206977
-0.04699206733611157,0.008701563943019255,-0.04527393003419285,-0.06406397936712044,-0.035996299890825076,-0.05935284657013555,-0.04682053777913021,-0.31404827135582236
-0.04924969078990602,8.856273076649742E-4,-0.051434864926731966,-0.06747134468382708,-0.032279604795359816,-0.05661057412073094,-0.05617278429398904,-0.3155536555893613
-0.05448007888215448,-0.012066554156826469,-0.05552538623009167,-0.07484631526579182,-0.04043732636584564,-0.06515408969030703,-0.053772438560173434,-0.31557853324205776
-0.042988621904085006,-3.325971501334076E-5,-0.048803430152960244,-0.06595288284368661,-0.031203330770109887,-0.05674230391718014,-0.04566367967323714,-0.3182652377730631
-0.05161468432453491,0.00828519587652656,-0.053688945820657315,-0.07131559732086103,-0.03158426175909471,-0.05951257734806864,-0.05757770916895569,-0.2974420708622546
-0.045404546097015414,-7.216174932220613E-4,-0.05568347359861256,-0.07465852113801222,-0.02540230402109539,-0.06305593611949642,-0.05389324175137048,-0.30469549065610957
-0.046890453821955246,-0.01297012326801341,-0.05729912475662974,-0.07771478641684058,-0.029274856451610883,-0.0679175074766634,-0.059456744804145346,-0.3236101476826089
-0.045645844876303354,0.0029110539839324696,-0.049393302746086616,-0.0694343179852899,-0.031124797367532805,-0.06069163348116758,-0.06058102756986903,-0.3077115531017625
-0.050368648099706974,-0.00331271561313796,-0.052798848442615995,-0.08111645693813282,-0.03799599222695251,-0.06991357206290258,-0.05999028077835593,-0.3154143656525376
-0.055523180261313865,-0.014136992160668365,-0.058795660865768304,-0.07514816183163905,-0.039715244543309575,-0.06485200101692051,-0.07342467645141562,-0.3242159258107321
-0.05034456140715661,-0.005374836887236439,-0.053225493495470434,-0.07426440634692745,-0.036198462712861194,-0.06221032273376669,-0.06354194863858813,-0.3259230028791787
-0.050983247384202214,-0.006833006158661749,-0.05947090342226465,-0.07725544288787005,-0.04524557658343844,-0.0704328227647649,-0.05905635107616011,-0.34448625254243487
-0.048509641893731976,-0.015212655630192525,-0.0559662301671974,-0.07597328014525105,-0.03669936290442446,-0.07614751186168714,-0.06370570758635079,-0.33890250432583796
-0.054150267608081754,-0.017069624590947477,-0.0577540885027503,-0.07529604582104958,-0.03685291142265249,-0.06239178901016035,-0.05391752389253338,-0.3332977096427003
-0.046251027388769045,0.006628930769694203,-0.05219819843270914,-0.07399755194420017,-0.03369878605263466,-0.06279222006036,-0.057674056674145595,-0.32029787192977666
-0.053249215431687244,-0.005162326183774072,-0.057676860895959095,-0.07611270101182023,-0.0409099901097114,-0.0702643497365226,-0.06236774311905717,-0.3260465713028517
-0.05602859093552323,-0.01570972830451048,-0.06039676276268641,-0.08187549332581504,-0.03470603945733783,-0.07191873269264641,-0.06517085890472687,-0.3452166038241287
-0.05130146593156726,0.003056108891034565,-0.05848951188099707,-0.07508278836202377,-0.03480426312806716,-0.05936690921899292,-0.0687013199897218,-0.3289461398966573
-0.05309075616117404,0.0040581934740360716,-0.05921243875978483,-0.08100592593400471,-0.032204375719177156,-0.07257354449868014,-0.07483074536669673,-0.32256156936499936
-0.057282392739359415,-0.014469204218199984,-0.06235387104815325,-0.08292842373937283,-0.03675878488442803,-0.07685085723042043,-0.06813171140162613,-0.32480657279557784
-0.05435365110381326,-0.01741916978207798,-0.0603508881110215,-0.07872114284790406,-0.04407616517292856,-0.06521204784690005,-0.06876671560091321,-0.3201666134573616
-0.05116435355079466,0.004597529396432883,-0.057626646657103445,-0.07916160217960073,-0.04061220359763832,-0.07279808290450511,-0.07342695689941443,-0.32925224420117166
-0.0551284671397966,-0.010593002584148836,-0.06321635930804187,-0.08311587523938381,-0.04640026078340846,-0.07194826662069145,-0.07616799466673164,-0.31201636302235375
-0.05763720445887159,-0.02186529384418495,-0.06670269877249999,-0.08534181368556422,-0.03987054666891422,-0.07551190771534602,-0.06994728912876963,-0.33252461227482843
-0.05531034375573051,9.986224931221013E-4,-0.05863920992959844,-0.0795125308924907,-0.03812286991075656,-0.07157745605630288,-0.06928233686145885,-0.30550885647962744
-0.057958003091323186,-2.715301101789419E-4,-0.06105304973536245,-0.0798259450944349,-0.041415700458143814,-0.07462018988715301,-0.06971500534441849,-0.3124407298312113
-0.06287371369234226,-0.02175084270232026,-0.06733579652873053,-0.08701573841947984,-0.04007077721941274,-0.07801173494526795,-0.06945658713091897,-0.3178585092792725
-0.05706922007561084,-0.024585523214546573,-0.0668632765913981,-0.08227450467011796,-0.04091915518300475,-0.06975605460996338,-0.07020424485899761,-0.30617874171183407
-0.054875823333374096,-0.00482150223581236,-0.0653851478191093,-0.07989248196129796,-0.039786280305852836,-0.07545951317049548,-0.06640112494497392,-0.2898261593106664
-0.057446220321881986,-0.013704376395902872,-0.07133781970765916,-0.08943477826737518,-0.0364472934936805,-0.0809641624596517,-0.08132141026838044,-0.3149695866989329
-0.055558459524936835,-0.02656572687674349,-0.0724659061737524,-0.09264626651462472,-0.04215714725629145,-0.08770321546272587,-0.07338371599051291,-0.31466579270678763
-0.04803768499301217,-0.009948071904294201,-0.06883154933850148,-0.08485682469962039,-0.037620649505645656,-0.07373431783760105,-0.07408453586980819,-0.33925675836846514
-0.049976566063240496,-0.013420803705936984,-0.06905066420779242,-0.08384901659648232,-0.036981383129001066,-0.07673910311596321,-0.07035302807639349,-0.30315308628822824
-0.05398667319213791,-0.01857667190762483,-0.0769187821047119,-0.09198431698202751,-0.04310517772487895,-0.07550211734762213,-0.08231516966014987,-0.34451910495864757
-0.05595414895748358,-0.02083042287777381,-0.07406037487593316,-0.09096580473828254,-0.03298072974863122,-0.0731176127907925,-0.07843797216454801,-0.3420568707256048
-0.04958792033732266,-0.0016167491373431744,-0.07267947247678237,-0.09447587423537891,-0.030082077961730416,-0.07303860606683907,-0.08212826483791358,-0.3176659443612173
-0.05055961137131241,-0.017969659214760084,-0.07599328316004131,-0.09643982414168391,-0.03771779820222085,-0.08021324129308226,-0.08058767351725857,-0.3182031774755909
-0.05540461052281537,-0.026799593495559975,-0.08104360039677916,-0.10020433503254268,-0.03940291225889236,-0.07534938644726738,-0.07852424166919199,-0.3318852756366678
-0.051980065786352295,-0.009229251474341638,-0.07186480498949449,-0.09442437551563417,-0.03577537957293883,-0.06860253984152714,-0.06890797656283076,-0.3237497175703711
-0.056506703589714734,-0.01083091930426108,-0.07813185172353986,-0.09216690385603503,-0.035232397282982074,-0.07683933568397724,-0.08188064423659593,-0.3287867889940283
-0.06172079647684066,-0.020400911432630404,-0.07749837948833255,-0.1022328062244324,-0.041762671995189654,-0.07894410805601762,-0.08531069809530065,-0.33626101728462987
-0.05626895923800921,-0.020543560604435677,-0.07582558006608389,-0.09207842945789634,-0.03475230613815533,-0.07811836174401324,-0.08016566692884139,-0.32859302472264845
-0.055279847102371375,-0.007898776356400967,-0.07797378117865222,-0.08797419778876134,-0.03983947892469742,-0.07425698223811525,-0.07908554710644304,-0.3109659309667927
-0.059449737005127894,-0.011986331563186176,-0.08107291808037444,-0.08819142980608562,-0.039363064325166494,-0.08067412067351863,-0.07667771237165914,-0.3341195492123132
-0.06040850706627557,-0.02851593775409644,-0.08118043452953022,-0.0960831538666292,-0.03376999010304379,-0.0756013228252192,-0.07929285808927139,-0.336251389878131
-0.054499438563397014,-0.00700415151027132,-0.07049492307389717,-0.09040553919538441,-0.039785877370116886,-0.06377500526964398,-0.08125164704212831,-0.3341528728849805
-0.05942762462372702,-0.01688184127776643,-0.07487105572426515,-0.09118530069646005,-0.036380358506548645,-0.06963403760319282,-0.07289461496092708,-0.32415860072617325
-0.05906850147058603,-0.030492750786956416,-0.08273020691336122,-0.09225312723277557,-0.03766094247488364,-0.07584698559090527,-0.07917410528854699,-0.3263230209712011
-0.056716185073721274,-0.021163641793070814,-0.07410264734321856,-0.08367184988112311,-0.03959476907869186,-0.07101435494002854,-0.06409688142175483,-0.3241013192574292
-0.05703519181431782,-0.009158764662671667,-0.073297955411689,-0.08711132848366933,-0.036792156981952824,-0.06739695536370596,-0.06230943579328369,-0.30566620039884074
-0.06203742894546461,-0.02079893720779501,-0.07297859454796138,-0.08839674408777512,-0.03403836251865571,-0.06119004260433662,-0.06391202467052799,-0.3305395635442495
-0.06703870994242499,-0.03590771152868977,-0.0770129500628055,-0.0893291644538684,-0.032494127182274846,-0.07028921046203422,-0.06858434051810484,-0.320592277028835
-0.05578461884808849,-0.013961103432421398,-0.07091068597919321,-0.08934943484316217,-0.03188279568243327,-0.06290698899270622,-0.0606015552181587,-0.31742366278818585
-0.06155191387063412,-0.01574449228930166,-0.07292987114364446,-0.08418937200615326,-0.029368662745614407,-0.0700541068255012,-0.07374283822321215,-0.30267772427753087
-0.05638135671068721,-0.03257683384348314,-0.07802787435759093,-0.08440350470935294,-0.02531723148831071,-0.06941707217058142,-0.0640437760600915,-0.32950043526314343
-0.06251580817437723,-0.027610634019338935,-0.07410539405293808,-0.0842117768578841,-0.019519854219123778,-0.06082039251474382,-0.048625140291504235,-0.3291028895575051
-0.06099062699583259,-0.013326018589720882,-0.07545791280861447,-0.09188370195114043,-0.032477797655467204,-0.060909546935183946,-0.05883366355936763,-0.30507531335071075
-0.06486688495340165,-0.029255531554590555,-0.07731227530765294,-0.08722125334800251,-0.031633370158948425,-0.06281819886453469,-0.06324293965652651,-0.3113142736352122
-0.06077475550781984,-0.03922380112639354,-0.07497846029364627,-0.08200549626718184,-0.034838774254200525,-0.053174187583491135,-0.06012677251083192,-0.3295471177580749
-0.06139935425122326,-0.01760259177226504,-0.06972804393078148,-0.08200844774679249,-0.0332993884053291,-0.05739942216492268,-0.05800910766226988,-0.31486584208322055
-0.06211239119332132,-0.02423759292494185,-0.07288579654145727,-0.08152640102714835,-0.02931892776226377,-0.056456188537438834,-0.06519057611239634,-0.3125775283166662
-0.06865226287202958,-0.031747646376655475,-0.07613104457608798,-0.08529547100199811,-0.026167392092588875,-0.06352569459154915,-0.05419942038475707,-0.3142313658583051
-0.058683638707320414,-0.019910333223981103,-0.06524911181108685,-0.07689831021941973,-0.027362979166459425,-0.04902753085693458,-0.04363635381203858,-0.3259547919334066
-0.06375725214556009,-0.015212775623136724,-0.07027301699166263,-0.07865304505263813,-0.018074727320835537,-0.05798475739821126,-0.047999625407431606,-0.3097112523015508
-0.06544770890315495,-0.028277969745776354,-0.07414516274788803,-0.08408937902181009,-0.03161495519868153,-0.05035696405843803,-0.06609714552067526,-0.3000896577456661
-0.0660772016997895,-0.03732270987247642,-0.07275657117394123,-0.07912592071998908,-0.03148655817195929,-0.05266546476841964,-0.0576327763303332,-0.3029956026294753
-0.05730040149499666,-0.01520850104864821,-0.06872448489600844,-0.07507193151589167,-0.02446275892571766,-0.04387857946345837,-0.05413328205081191,-0.29837459824137796
-0.059089040445135584,-0.02551057706278186,-0.06723974544851381,-0.0802334028449812,-0.03535605127143749,-0.0467947322270686,-0.05311725279971902,-0.3064253332570383
-0.06606818842093821,-0.035345133433420585,-0.07337784597117702,-0.08098224430251992,-0.03367792535271873,-0.048385673436096586,-0.04696405860936197,-0.28926184003054417
-0.06483849105210156,-0.029556215706345323,-0.07182184481906621,-0.07654835899763439,-0.026216739161315308,-0.044408308991037426,-0.03700267199838841,-0.29220613651819694
-0.05872323633947952,-0.017371569982464728,-0.0667490162120695,-0.07498252617908087,-0.020132050587897583,-0.048180693097037146,-0.0575176509701194,-0.3042466582058183
-0.05832440187735361,-0.03064930757492484,-0.07149070027345435,-0.07950296345173485,-0.023069845060288544,-0.04316401110065982,-0.04891123112797816,-0.2968685945381718
-0.06239239043614061,-0.04522604364410586,-0.07286395284054586,-0.07937490757338371,-0.021954853285245525,-0.05440638119945365,-0.05188820898367218,-0.29720832734545943
-0.05802292851209753,-0.012891051662711355,-0.0647477410198421,-0.07047121587185343,-0.022441411971041225,-0.04333732324892149,-0.03422922732920859,-0.27885711915511296
-0.055405583927411864,-0.018777657916532207,-0.06633398829337532,-0.07827957076724441,-0.033058416917945234,-0.04475719386827913,-0.045481404357776915,-0.28675745082307574
-0.06244712457394574,-0.027664552268568,-0.07075165507256578,-0.07503116211645325,-0.02602129336995212,-0.04982423972441707,-0.053899672624864906,-0.30428472805418566
-0.06497870706613937,-0.03736933614509398,-0.06714448470390844,-0.07639070243616553,-0.02707160694677437,-0.052513207431177315,-0.04759363370332695,-0.31589179208024704
-0.06095691930732517,-0.00942482955904293,-0.06378626090565259,-0.06922037735413643,-0.024829444787440987,-0.044984332060580744,-0.036313931124914704,-0.3086765552304353
-0.06315116830124975,-0.02579713454031778,-0.06623747010120498,-0.0751745010764206,-0.02306937294781223,-0.049717709149411315,-0.0436703581795764,-0.3089053422485514
-0.06035016992617478,-0.04109689043877368,-0.07054196067369402,-0.07779558909576768,-0.02194816341540132,-0.04511196655578997,-0.04276216206319009,-0.2882693674347292
-0.05917350771144612,-0.02980264428007011,-0.061136979644348825,-0.0682638731241508,-0.024455257435545896,-0.041364256159349556,-0.03645762102426188,-0.2942470766432776
-0.06098922675133359,-0.02578147816726872,-0.06476008641301285,-0.06622538349447656,-0.02936879473569003,-0.04215344706615466,-0.037867545450257986,-0.280080388931501
-0.06140390505309897,-0.03359312420016135,-0.06538990013321591,-0.0706009072939042,-0.023808238420749108,-0.04223345167584013,-0.0367039560693666,-0.3012320406137343
-0.06486749324155817,-0.04596034768918569,-0.06195355610973044,-0.06805738924005847,-0.031054892709971426,-0.03920437447845695,-0.0383202167069326,-0.31299923252257145
-0.05892553304318361,-0.02098782330756949,-0.06033094640831163,-0.05858937523343374,-0.021682609801620626,-0.03274812732264151,-0.03045811223019849,-0.2935377071776143
-0.0595641084492543,-0.029932711229084915,-0.06057253210882915,-0.06520046905799946,-0.028507254535598547,-0.04236644919742635,-0.03298756191493147,-0.30272377192054334
-0.07035139049781679,-0.04007917753261321,-0.06593666507426746,-0.0646074250137008,-0.029152886529033997,-0.035970843378596615,-0.030825566291141082,-0.31390659813149624
-0.05558777081245285,-0.03402130069741621,-0.05683034386635256,-0.061793537593537874,-0.02581165658332456,-0.0313911083333171,-0.0207809102083317,-0.3119879696046193
-0.057446278721805875,-0.02511026657990022,-0.05817824127044552,-0.06082488209199102,-0.021956564894524525,-0.035718949725023326,-0.03068266687417271,-0.29009051377734946
-0.06226324098165075,-0.03541442199842863,-0.0618901154750874,-0.06272711409278992,-0.023231645888259777,-0.0377603688941029,-0.03325815889302262,-0.29485332805788894
-0.06532302405864907,-0.0513052287053871,-0.05940083524282859,-0.061471504021318304,-0.025496974556299082,-0.03513383782312372,-0.01938365180249951,-0.31326726525488785
-0.06037784094960603,-0.017207452611907578,-0.048118121083619646,-0.0534751701023491,-0.020021259253004593,-0.026418481457526167,-0.024009180541755236,-0.29858515529891144
-0.06002210557737535,-0.02797765413033315,-0.052278388998536214,-0.05976299259307506,-0.023936234596631016,-0.03250530762739286,-0.0259488906040752,-0.2859621866865179
-0.06621234288888786,-0.03686450806462824,-0.05567847775697044,-0.0588819549346071,-0.028995706738237627,-0.03167278711623246,-0.02605124304227931,-0.30905775894944076
-0.05716919888871059,-0.027488380417809884,-0.05083974980950889,-0.049812311410428016,-0.028758753647246442,-0.031314996990572025,-0.026394797788149606,-0.2937801043821309
-0.055463080105539596,-0.01434275164817133,-0.05142217222177147,-0.05722614523160122,-0.0195144538607871,-0.03137108450251665,-0.024677728953315076,-0.28775343123648356
-0.06196032012347333,-0.031454176203621585,-0.05893856347287596,-0.06081986262291517,-0.017401696448675605,-0.03982763894628673,-0.029920055389966612,-0.3026413568657583
-0.06427707122703585,-0.04751904393451009,-0.06261232727080665,-0.06399570913906019,-0.02567741769139878,-0.03812789730369525,-0.026339545598835293,-0.3070957730620352
-0.05878927428924905,-0.012210877947529255,-0.054786300505019925,-0.06111261015802333,-0.018693065218910367,-0.03074847057385053,-0.02997647402443467,-0.2807127428477522
-0.060514533028370274,-0.027131950370438345,-0.061553006050788776,-0.06419484264872445,-0.014270763537425644,-0.03722111823307734,-0.03400876562836639,-0.2835793566593269
-0.06329462708164102,-0.04032692383333595,-0.06160216860194078,-0.07317471693653918,-0.02998125069693308,-0.050105578806898685,-0.03680676762384898,-0.3007919904948731
-0.057135784203422225,-0.04411476362717139,-0.06450366951972479,-0.06279347115215878,-0.027053374711276085,-0.04771776030648895,-0.041845591858659305,-0.31850889016438777
-0.059306669590147854,-0.025719615616084275,-0.06531823225946294,-0.06802007786521416,-0.025558254474066656,-0.03572310245193767,-0.04653050999076115,-0.29835002492156865
-0.06270140897784675,-0.041871313378723386,-0.06777423856054585,-0.06875875658246239,-0.019621933949270323,-0.03913121214145823,-0.04641945439000402,-0.2946472319336617
-0.06495410357192163,-0.05823485038233674,-0.07108976859229055,-0.07312062147496648,-0.02186912469280961,-0.04396522058414246,-0.05597473066992472,-0.31140330123168897
-0.06085123907930099,-0.03657585764541174,-0.06036098658877579,-0.06689827150186527,-0.02250787775487931,-0.03564397763300011,-0.03986104631353223,-0.2790650647449614
-0.06737199126773469,-0.04943725626228917,-0.06830569777318915,-0.06847309640999572,-0.028018776440039573,-0.040702218252016774,-0.053110023699686815,-0.3090568995569764
-0.06734691901176716,-0.05467092234079601,-0.06912267432655952,-0.06740303092351943,-0.018464212234271672,-0.04309257721491878,-0.05066977809874658,-0.30427711938015817
-0.06570403568842335,-0.058058027923439295,-0.0640583328549682,-0.0645009435975014,-0.02390833392186553,-0.03997336007759155,-0.03468179858084891,-0.3038085782719872
-0.06433811402258455,-0.033522240428631174,-0.06666845046513574,-0.06498503438352683,-0.0320720459997301,-0.03169795374743363,-0.03471726104102493,-0.29249574362181824
-0.06370484236492029,-0.04692584540235902,-0.06773558407671637,-0.06953877164649155,-0.02554342881925579,-0.03948963839842429,-0.04857589619306503,-0.3078837436280888
-0.06769030361490856,-0.07121814237424898,-0.06996866991723837,-0.07271192230389875,-0.027604940471373407,-0.03850423538739837,-0.04865992544706771,-0.28518185221481823
-0.059043832548684415,-0.03579159481019148,-0.05817050331329684,-0.06866180332562738,-0.018713166126531424,-0.03719980272222891,-0.029480069211021455,-0.29436622669351936
-0.06160585191670346,-0.035546395025058346,-0.0631758256564935,-0.06892955874160885,-0.02597194650317731,-0.03242636415752806,-0.03493522672745421,-0.3012095608439998
-0.06303385036103284,-0.04563254575340745,-0.06564478087211328,-0.072998773283481,-0.01570041642203723,-0.03044361239181521,-0.03665835778259274,-0.30460837595506296
-0.06198991597371607,-0.047290041594513714,-0.06128748247340379,-0.06808149869329191,-0.02440506463393088,-0.028370916596138794,-0.02698692318855542,-0.30424810197688296
-0.05853410653220033,-0.025259336299365234,-0.06067350076989225,-0.06587052016584675,-0.023474956442796107,-0.029577071019013572,-0.03694222232595202,-0.29773055493126965
-0.05919293835596882,-0.028359054577123514,-0.06540369014835029,-0.07004901475935187,-0.02342162286666666,-0.03463251626845176,-0.036196864197459225,-0.272874382939795
-0.06692954596614666,-0.04746393914552567,-0.06622534121500674,-0.06874934707845538,-0.024268157310875962,-0.034174579074537345,-0.03649246990269471,-0.29261276175795686
-0.05285411450964302,-0.023884570724497647,-0.05791454008201935,-0.05962346840458831,-0.02482515630753286,-0.02551450091168452,-0.0330075899360521,-0.28474379277681194
-0.05396682822755614,-0.021953202145226593,-0.06252010629282322,-0.0631659396225514,-0.025128715566669076,-0.03788825967155533,-0.037161712412451725,-0.28686918299973835
-0.06100029728182585,-0.031672319024968414,-0.06311534646078072,-0.07313986641868067,-0.023613221273377286,-0.028489591941243807,-0.03579083310249534,-0.29015137242407946
-0.05703391414867135,-0.04506690637818104,-0.06528039526787043,-0.06708430208288674,-0.01812052321026154,-0.03165086470097351,-0.041521649774263855,-0.2874757313404231
-0.04889812803983936,-0.017951570671025048,-0.05598991975920012,-0.06086686427943018,-0.020531230890763707,-0.02554346847313175,-0.03198270705714835,-0.2742957055602602
-0.05620770910115087,-0.020680069031683578,-0.05699108098344632,-0.06984753957679991,-0.019799790704761337,-0.030831948944476106,-0.03858321608852141,-0.2713108522848966
-0.05462821505977163,-0.03455069651612202,-0.06417802388960431,-0.07356562291259695,-0.019699056075264582,-0.02651543340510691,-0.03874835086306654,-0.28070216540915666
-0.0549352742560319,-0.04245441862717548,-0.06553465054844913,-0.06897418166802693,-0.01623518958521811,-0.03138915372184394,-0.038785880181796385,-0.2872347407779902
-0.04952351293101878,-0.016740873620556235,-0.06021743776306243,-0.06534201023975082,-0.023021087838559634,-0.03028604643470879,-0.03879003018040721,-0.2723481561833932
-0.054629600548987196,-0.0277645150109996,-0.06353327573183393,-0.06264747186557656,-0.018135559465229906,-0.03204020940759297,-0.0366893546202753,-0.26534160730496853
-0.05458704526176117,-0.036098650759021786,-0.0640975001669776,-0.07413822321214973,-0.02130140111717553,-0.03164549272935063,-0.03653215231075846,-0.2901367299010187
-0.05677583200842958,-0.03690735643224989,-0.060590279364949345,-0.06668897375135041,-0.01789638293330681,-0.028173440523266848,-0.035504337267502135,-0.2981879372972226
-0.049806808080569046,-0.02564706354781608,-0.05839649199251222,-0.06046774880009372,-0.014693032436333707,-0.03355961576916931,-0.03466541660965333,-0.2553800175723195
-0.05968436337953207,-0.028528659278393244,-0.06120746841513466,-0.060868419390415304,-0.02149634119597522,-0.0335344099373244,-0.029654886292385645,-0.2639933257936478
-0.052520271277910625,-0.040507736679762846,-0.06305302505765677,-0.06761324390598232,-0.01960113777255282,-0.02445856746455673,-0.03495283063113733,-0.29037441423427235
-0.05292314508904673,-0.037145145295213046,-0.056287418709435065,-0.05856236311678183,-0.01599193215491301,-0.023753369148541013,-0.039050704878995604,-0.27769600295765823
-0.049182587278755595,-0.027811402681560845,-0.057185898567490796,-0.060108517599094365,-0.019256332072448215,-0.03004959446628286,-0.026742608468272675,-0.2627675703862487
-0.051453624268149166,-0.029884314991657914,-0.05529963994941704,-0.0612775824282834,-0.020922026545771383,-0.023734414500678414,-0.025713304112993354,-0.27587027576186346
-0.05910239915200052,-0.04472508080248898,-0.058460701591631394,-0.06655483034949952,-0.017006050744254656,-0.026891367794690424,-0.031113989456354206,-0.27705689784106025
-0.0508435018161012,-0.028056356775162765,-0.05280070746664315,-0.05285446299958969,-0.011455373998410488,-0.022532115836937178,-0.019087536328234123,-0.25060769659857407
-0.048048944989392335,-0.016701586291620607,-0.0556650686566816,-0.05973507199187039,-0.012630908814069705,-0.023544236553765457,-0.029716796844414695,-0.2524184062072141
-0.05152368481457455,-0.023079793974493473,-0.0590664434890549,-0.06417866596722326,-0.019491854677545897,-0.02920476279433613,-0.026170480671968966,-0.2627442158710351
-0.05497852485027255,-0.04087851812580123,-0.061523489274571005,-0.065255576820996,-0.023655143038145005,-0.03303467173325178,-0.0280141137457379,-0.26701082638926044
-0.04706217171039427,-0.018258334725474345,-0.047867545742916316,-0.05138634417670209,-0.014305927563957774,-0.010940142553585748,-0.017781369294082177,-0.24946878492265248
-0.053077244633110865,-0.014568157307799973,-0.055812147218907815,-0.059465296140409296,-0.023952050124997338,-0.02640395012421724,-0.02443632562267773,-0.2612702430972623
-0.05318612859785757,-0.021249023793751782,-0.057547086051176845,-0.06911602831434693,-0.014244947673795312,-0.024944488336429125,-0.02726255813775388,-0.24779848833332668
-0.054641635279012286,-0.03665983741902436,-0.0600107870713565,-0.06899132839772977,-0.011016772310822485,-0.024220144705753285,-0.02692868254831861,-0.27194164176164876
-0.04760695249295453,-0.012742324369467989,-0.05076854198514096,-0.05920493232541003,-0.016676387603217817,-0.0135687309327461,-0.0036169376641691287,-0.2472613634138184
-0.05461369956172509,-0.01822871091557921,-0.055110042115668494,-0.06551417560763341,-0.016815897806708797,-0.020694668088396616,-0.016296592323716115,-0.259571815551038
-0.05495063842119823,-0.026971619737977282,-0.055998279350262824,-0.06594584902007125,-0.009639917377150333,-0.015800797561271524,-0.014331335421570054,-0.2579083152950047
-0.05801279256880897,-0.03852367576774627,-0.053628822167471286,-0.060933016479285076,-0.014901296423881374,-0.02191451694121786,-0.015605208050990766,-0.23656034398229125
-0.05227468658773999,-0.020827062279834364,-0.04357847038292933,-0.04824844166011727,-0.014863977496265782,-0.016262088321080996,-0.019091168261417674,-0.23895528867376364
-0.05206768452312872,-0.01639992332643847,-0.04311861164432655,-0.05928880132367213,-0.016734579120254032,-0.02069832645964311,-0.009811764981837466,-0.25505566297497423
-0.05548856777906956,-0.019558197776101332,-0.0472068633600877,-0.058855307274633124,-0.01343273261603939,-0.01748744486167176,-0.007732192426997306,-0.24299503107804274
-0.059010569818011095,-0.0411164389873448,-0.05386608265809626,-0.0619241364547239,-0.012816870314576642,-0.014697768273674463,-0.021035634369469876,-0.2379788166468368
-0.051395372356434675,-0.024683650909242297,-0.04783235510120547,-0.055001709350039014,-0.0073903037961524625,-0.016353729602638315,-0.013764604847152861,-0.24004041669232734
-0.05282505959306143,-0.020296081436663515,-0.052760808220941036,-0.058490456107022026,-0.0181826723021103,-0.01417678958131679,-0.01614999275859562,-0.24143831797743256
-0.05319557683822866,-0.02234967854699826,-0.05465991047535771,-0.06996342334526619,-0.008419043142495398,-0.013966957547012625,-0.025058165043211414,-0.23573234683654037
-0.06082462354589205,-0.040843896427959284,-0.058265502350059506,-0.06643014883104256,-0.01023662205454834,-0.011287499819103071,-0.026741861095902545,-0.23329863362038528
-0.049711650140878555,-0.0130231938584251,-0.05159307497331691,-0.0584239637169054,-0.019249068347122984,-0.01766420969326899,-0.018499670680337168,-0.25244484376647497
-0.05156503206473871,-0.010478314133606557,-0.055795686616775274,-0.062012315002053967,-0.017069669345849182,-0.02012480772994911,-0.023562589084422034,-0.2563906034789663
-0.047065533922713,-0.01560838994219623,-0.05468395957654288,-0.06444292976711888,-0.015377554096485958,-0.020113795808966085,-0.023307214668289937,-0.24172419741013274
-0.048315552600315906,-0.028887549309947556,-0.05954660364572764,-0.0634428059967312,-0.02114347313096389,-0.022936534742642962,-0.023142279830426264,-0.2526665941595635
-0.0423968247217752,0.008362834528756434,-0.04997192211065005,-0.05935519136335877,-0.02360885487456269,-0.029685060844661024,-0.022056269055308192,-0.23410687738281102
-0.04599915161071988,-0.004489600267404248,-0.051828697489567616,-0.06912185275617064,-0.020650070844673817,-0.02719984704724071,-0.030518588921701412,-0.2500413086025272
-0.04298827320354267,-0.015050267809166356,-0.05232917411452037,-0.06633856461969813,-0.01607717002662166,-0.02388217768951753,-0.024020192006367635,-0.2570091887034187
-0.04380248343646031,-0.01670388912295972,-0.05334215765436186,-0.06759696700290352,-0.01323452625812391,-0.021373136297582952,-0.016735194542464218,-0.24078143836324928
-0.04145226589113652,0.008922478220753545,-0.048507222409614734,-0.062062357888423174,-0.012574477394236238,-0.024837046053486016,-0.01682112948193769,-0.23744323665793718
-0.04283874467686135,-0.0037315916634819094,-0.05284795320387295,-0.06548607810374064,-0.013727410795794833,-0.031214211928252824,-0.021548283138508355,-0.24386924731446594
-0.043422674387540945,-0.009114201119324932,-0.051169524929612624,-0.06594355657804668,-0.010525012440675139,-0.026262948545637193,-0.02847606112832461,-0.25568492085922656
-0.04413294455112008,-0.004339968680884814,-0.04653794425929873,-0.060838219727218215,-0.010964855751118826,-0.02556693805048803,-0.021754500772452452,-0.2529136242107782
-0.03578517747525341,0.0248261959584953,-0.048491117891456895,-0.06184914833187199,-0.01249050793200497,-0.0258546983770552,-0.03476080725534752,-0.24636177074601173
-0.04610032963361986,0.009760187683610175,-0.05172428065935135,-0.06829659273728352,-0.018581691381534045,-0.033468452683523366,-0.018433986882868406,-0.24243752065259286
-0.04374493094693896,-0.004022046765990715,-0.05434899218752148,-0.06950702524732555,-0.01614598323884616,-0.02871376749045457,-0.03226650417997404,-0.2255168407461861
-0.04564754036327944,-0.007527867898708899,-0.05058806293188627,-0.0630492033459141,-0.016659690192497228,-0.027606804858851985,-0.017240134640718958,-0.2393478160113297
-0.03972381133735615,0.017933770745500524,-0.04455763539790038,-0.05891753398353281,-0.014878396218794979,-0.027249316819224406,-0.028310878147938805,-0.23606001400324558
-0.039354609238639864,0.009849897306345978,-0.050699753030311136,-0.06555438169815898,-0.0121254034034984,-0.035071911216998236,-0.02716582273204253,-0.2554114475833903
-0.04879097057542561,-0.005221920058906005,-0.058622191865096394,-0.0728704854743337,-0.013425945859535935,-0.027831377234725257,-0.02579070144124069,-0.2513174263189617
-0.04682505896350431,-0.012724979957531447,-0.05234843676732795,-0.06950966006591788,-0.010310354933113261,-0.02274712918377304,-0.02887803782826108,-0.273712863655157
-0.037801467479832186,0.012423701755313184,-0.044111637303842086,-0.05964361931011687,-0.01974994665785313,-0.032500254174770746,-0.02322246755005351,-0.24098455917112266
-0.043541869262138225,0.0025935473757742558,-0.05009271194611108,-0.061705392218309715,-0.013655826210198795,-0.026497690753109485,-0.021424816805058675,-0.2599847649218658
-0.04278759091993709,-0.005946506107762411,-0.052387668541488776,-0.061039286764735655,-0.017635342030245478,-0.028710004913953632,-0.016851696947708553,-0.261156548424
-0.03991573270089031,-0.021808698613411996,-0.05556512167538896,-0.059691932788995344,-0.014544515245464898,-0.022280857513643424,-0.010937245434589817,-0.26623411761013915
-0.033974277374582904,0.010482938422579458,-0.04410535249280575,-0.05260929081146985,-0.014583593583867014,-0.02019215084808499,-0.020095463325179082,-0.2446539116755391
-0.03859417361459684,0.0072288520359412144,-0.04870424115617239,-0.05500202209163358,-0.02082213274475549,-0.016240196937244173,-0.012957572340691777,-0.2570258882331691
-0.041600580237636804,0.0019531266006135983,-0.04893481873556483,-0.05411525532260816,-0.013870282338815064,-0.022238699079221106,-0.025266196730324413,-0.2737552274010483
-0.04521437858436378,-0.026226186502681954,-0.05108791697674137,-0.057292905417355766,-0.02145857740458114,-0.01267210159915004,-0.009815169925722005,-0.2702957074319307
-0.038123052739380714,0.0031917974444537396,-0.049360987606972204,-0.051029897710624536,-0.013190761984182458,-0.007990074517666083,-0.0014885302978314388,-0.27125590091792284
-0.03989860070717893,9.499146925794456E-4,-0.049105206393104436,-0.058104122551849095,-0.014468405806709739,-0.011673947386946954,-0.0021159206603007606,-0.24679767834215038
-0.04530929786842099,-0.011638677809420081,-0.051912719666805954,-0.059656873181514886,-0.016156961285383332,-0.007549500331342597,-0.008656638131715145,-0.2801845645169467
-0.047563923833824205,-0.019685647855651682,-0.04845975185354423,-0.061015489267805915,-0.014407523172832311,-0.005776380180991786,-0.007461809999981959,-0.27735074280766137
-0.0344873022040914,0.014047627169710154,-0.0411305497523429,-0.05077038120779827,-0.012663661575269245,-6.592105511217866E-4,0.004397691020618893,-0.2415975631805187
-0.04318507285121603,0.00947449692950697,-0.047300109601589015,-0.05576310193663662,-0.008277625116900491,-0.012266605485410684,0.003068075410017524,-0.2613069339385114
-0.04123585572680414,-4.097537270894238E-4,-0.0506380529257927,-0.058950364926194286,-0.01802703024559714,-0.011543618399186084,0.0027237751445877254,-0.2501976523829802
-0.04388736486820912,-0.005481941221013898,-0.04520161961934319,-0.04867397633464125,-0.016027280980323137,0.001178846295920275,0.00403932761013658,-0.26864955442487043
-0.037277478146665474,0.023513474151066433,-0.0405222427948621,-0.051897265105701036,-0.009314637893325395,-0.004267438139150512,-0.0010229434159902452,-0.23412188368991915
-0.03503356423462386,0.016841179949992846,-0.04434268973860066,-0.058200287792590955,-0.011305718906753632,0.0021033495011900773,3.492381749569008E-4,-0.23405229880852577
-0.03429440979913867,0.008257346649239782,-0.0487381838475032,-0.06051490619696238,-0.008738564049169052,-0.00585324727802717,-0.006118583049748733,-0.2509219928682739
-0.0417513730287,0.005160754233110973,-0.04749801506351102,-0.05858137301328643,-0.007571166905005033,-0.002356301379865875,-0.0013427254266472725,-0.25966175075147857
-0.035038641585521266,0.029728712291319823,-0.043424945010103855,-0.057006768268973,-0.008093143595677279,0.001355845728037668,0.007843427444266108,-0.2489785620754411
-0.03769849854255255,0.021286588646697555,-0.04474635532958327,-0.061717886366749436,-0.008577432977985973,-0.010801686667907179,0.0029813620954740033,-0.25358464739819303
-0.03934404741790968,0.010290322815627981,-0.052154063843033054,-0.06401992011941722,-0.008349842372456801,-0.010876371920191166,-0.001413124462262542,-0.24424934461007866
-0.03817254839865556,0.002585176907023756,-0.05574619541830931,-0.06418799976264729,-0.009088868891796654,-0.01676040759040763,-0.008870367775226736,-0.2598479054849218
-0.03656734034472997,0.03266085183957635,-0.042290205630885175,-0.06005471188148269,-0.014458220839196149,-0.014516978695057074,-6.66794076533528E-4,-0.23579398677075195
-0.046017982858571095,0.028117279801178695,-0.05183507178031218,-0.06264691054784854,-0.008152824115396924,-0.014836438975864081,-0.009493183612523796,-0.23893924270598593
-0.035792891405080525,0.019442517660239942,-0.05250581231485367,-0.07239808107660277,-0.017044466616126124,-0.01314790227027746,-0.014367435716746375,-0.25020031420009126
-0.04621638209237999,-9.160753681658162E-4,-0.05699816741730548,-0.06877353890331388,-0.015477952647158597,-0.02902613608181169,-0.022141243971073313,-0.24534596121222624
-0.033417065147411676,0.02472233463345883,-0.0502497427697352,-0.06584436121598249,-0.018435546961562053,-0.02060879078580848,-0.0036933179072179212,-0.2602718780092988
-0.03666605813277088,0.028940051430081323,-0.04793362958450409,-0.06533487023178139,-0.026517532129835198,-0.026213244095989564,-0.0264323728089966,-0.23726317949856918
-0.03802058980734644,0.0252069014486091,-0.05689668140434298,-0.07577614839839436,-0.019040153694295542,-0.030078868965761976,-0.0293951020439687,-0.23832052836810486
-0.04291209321640295,-0.0030542663026597535,-0.06074326375129387,-0.07580183257059657,-0.01884272862587243,-0.031712725341621,-0.014370526947610466,-0.24946860311267327
-0.041319251252574796,0.006670998780662602,-0.05495878772468882,-0.06620286035404138,-0.019031631980765098,-0.02930252090242139,-0.018187335491069635,-0.25879676215921665
-0.03798209355608798,0.019007994056786652,-0.05336424083883648,-0.06870749276156853,-0.019078517500456083,-0.04224740708934646,-0.03233231070323863,-0.2560138857228566
-0.03772794371377704,0.014089061553722635,-0.05308522537971969,-0.06423165917951379,-0.027657563576117487,-0.03968945644011067,-0.03055019424764153,-0.2650896822838007
-0.04308479385217511,3.2551480786629236E-4,-0.06104385754397043,-0.0783339352977569,-0.020286456671141595,-0.033452268935029075,-0.03574031905517053,-0.27562915762884227
-0.041698935491780234,0.0051251730314163906,-0.056263079073644584,-0.06983260569890723,-0.024755319748254137,-0.02641454675433215,-0.0299613329494278,-0.2575718504850045
-0.03898729762542681,0.020234676343500412,-0.05551651914134747,-0.07263681956366097,-0.02674553164575724,-0.043776324213885894,-0.03584391395034292,-0.2606870876603118
-0.0425467238820322,0.014089579463283843,-0.05827564240304752,-0.06614307968173828,-0.019755278900006994,-0.03385912159580513,-0.03492669119495699,-0.27934113296315344
-0.04372737819965532,-0.005976992196803243,-0.059513502458315506,-0.07242494716962596,-0.028242587345395736,-0.03936751564580752,-0.030816013920494698,-0.2682110969552118
-0.03786776566556869,-0.001959146611457905,-0.058940699971753815,-0.06769854555237824,-0.02365164265952513,-0.035437026598287485,-0.031256437898279206,-0.28991265394582066
-0.04145253100755593,0.01747942453267807,-0.05587553194384604,-0.07098571710411389,-0.02612225482268576,-0.037419531373063836,-0.032236760818921115,-0.26157830323310044
-0.04663399759050637,0.010479176900919015,-0.05719072290326377,-0.06644850288800284,-0.025072285473419772,-0.039005835770137075,-0.02777406769041153,-0.2551545219160725
-0.04601419839367877,6.056235975255749E-4,-0.05896332245596624,-0.06605460864426917,-0.02158133181508975,-0.03476663036956024,-0.026957471941775814,-0.2750722074837291
-0.04265947426723926,-0.010166578230560991,-0.058715705035449366,-0.06388405328596995,-0.020599652124253808,-0.02721530788753681,-0.025429312264087418,-0.2779204800094948
-0.038740433224381296,0.017055505303612085,-0.051695651202761705,-0.059215284454329206,-0.022724773969073065,-0.02719272062448284,-0.023698374876269857,-0.25216030353657026
-0.041584942562271104,0.015564819568075414,-0.05421867873052928,-0.06617820003870954,-0.028766500660357613,-0.03276745202668064,-0.02660097002073608,-0.26166329716601505
-0.04444189827578398,-0.0029008565004946837,-0.05404426474860262,-0.06839975509031071,-0.02225704908154548,-0.03434978402651788,-0.02958280975452568,-0.27476447845693325
-0.04419500008488047,-0.014438951556842624,-0.059627348488631826,-0.0711669195068002,-0.02150472547970509,-0.034752486790171566,-0.016435201908404935,-0.2715435448130342
-0.03646991696842967,0.01476203030726243,-0.04976410359393664,-0.05911316945575672,-0.025165993331927653,-0.022687147046168723,-0.021240071561533548,-0.26328524077184956
-0.032261176552547725,0.02094618562539639,-0.05010988321450673,-0.0638504647760043,-0.018440590158544008,-0.031339749636783466,-0.01439054236223145,-0.2669302272510588
-0.03887665966072763,0.006809844851915774,-0.05164726940710186,-0.06487428199125443,-0.022816732032092786,-0.02929123243608821,-0.02231165055859502,-0.2550509195526419
-0.04683287330865214,-0.010041108967074608,-0.057500639771559996,-0.06863326384784628,-0.022628434478908388,-0.02839831461079832,-0.014582759549330627,-0.26107238518016007
-0.045060311143021045,-0.02149652943639707,-0.05584314925614012,-0.06727557455936699,-0.019223771003717628,-0.027845579021720662,-0.00803893970107029,-0.2782866197153258
-0.035058987563812614,0.019608202506607324,-0.05066138802807303,-0.0560689268341018,-0.018860100310494503,-0.019518094973779442,-0.006518200622053121,-0.25658986460270594
-0.03684404308362516,0.011313056017759929,-0.05263664223989198,-0.06687001594664765,-0.009313346968620784,-0.0230808253179071,-0.009421114336443194,-0.2587781763575885
-0.04038416838059524,-0.004423758566373565,-0.05418752673925807,-0.06425138009438473,-0.01582676928964351,-0.023061511245534357,-0.004976927433073999,-0.27990408243852366
-0.04641272015801662,-0.026114257814857655,-0.05968736241785647,-0.07122289575809712,-0.01974232722544441,-0.02054690098437274,-0.010974586514466556,-0.2880020927256826
-0.038773138369034725,-0.01079559999765893,-0.053538551288464534,-0.055797688673744406,-0.01605549228121737,-0.01445793405926271,0.007300268748931163,-0.27324503351660856
-0.03706495669472385,0.009447698481648094,-0.05017237800333682,-0.05652947376372251,-0.00737674237181515,-0.0176600506327149,0.005236863960119085,-0.26427726170885957
-0.03492425481139418,5.445629057328556E-4,-0.05125475748949301,-0.06505279465363273,-0.009655410558109945,-0.017980223925990135,-0.0036058894734567384,-0.2547925296204188
-0.047978418740055394,-0.010957342207633535,-0.05396394073389555,-0.06231486048782923,-0.00856949621979626,-0.011590300172241372,-0.001445046735634805,-0.2703467019881033
-0.04352805563959314,-0.03249388919450498,-0.05589368659952793,-0.06053835213525167,-0.010247615560800437,-0.013387404627243655,0.010950613608724704,-0.2761235651202097
-0.034949389599306886,-0.0036826584545135714,-0.048976020507172965,-0.052114542377866266,-0.00676545865285101,-0.0018331516490324386,0.017576354599990945,-0.2619041189566087
-0.037783204873021906,-0.009570315014021424,-0.05316763569484592,-0.05974674258075796,-0.011375627272488293,-0.01038892546878136,0.004583861815877417,-0.2734967417673037
-0.04275605259185636,-0.021657862013202127,-0.05536833726346836,-0.058732833816573286,-0.00481168042394019,-0.0053716767065220055,0.011616132569972036,-0.2567524131498464
-0.04706556596517857,-0.03665132609839677,-0.057377103593305535,-0.06054576348165331,-0.01307359233903351,-0.008263743809941524,0.017744367376891428,-0.266088119488042
-0.04235195465475238,-0.023650019182507722,-0.04823844554407885,-0.04746666992650992,0.0014522046705551434,0.004450398722804256,0.023604411412965032,-0.26428442320736645
-0.04697471719554485,-0.009532567375270123,-0.048914658850383895,-0.05183841348585824,-0.011314733877325534,-0.002926824344818189,0.023605028220479454,-0.2643665918536602
-0.03771013000917306,-0.02193347720303051,-0.05105837624305104,-0.05644561878383222,-0.007265051244151077,-0.004708481602956713,0.013501133706729942,-0.2756009484412099
-0.05026261428404682,-0.034057252760530635,-0.054561265230381226,-0.05311524577694362,-0.007196927140059488,0.00455332392435956,0.02342881666469049,-0.2898670487667455
-0.0334200288471767,-0.007243262839127603,-0.04501936868285381,-0.04296804087891896,-0.003528802624991551,0.016151874020609292,0.032887293048488156,-0.2627559395983852
-0.03711588732265081,0.0020385214057600997,-0.04822003854581498,-0.04940845326624488,-0.003363222167147012,0.003463746802237,0.030838545890112864,-0.2554996640411077
-0.03946300654160509,-0.011899461915421947,-0.051835584978390845,-0.05092538510760476,-0.006005424006698623,0.00918237218951486,0.023905709458861536,-0.2480612073678571
-0.03930908347704318,-0.02792653479656156,-0.053820400582458315,-0.05694459275314687,-0.0027580464131071072,0.012716882695926463,0.03303668338329868,-0.2551910794560536
-0.0359160511855576,-0.0031461604842271543,-0.04335982174410987,-0.04789291315452391,0.0019482510442695201,0.016011179970948013,0.04019694374844491,-0.2670613835009037
-0.038648606240343636,-0.0028474114444883396,-0.04926385679000686,-0.05133830977831831,0.0027135883587299167,0.015331137117408137,0.036000113821257285,-0.2528069903761676
-0.04432171341425898,-0.010862926932328527,-0.057381710863038796,-0.06006220992540346,0.003635941790017778,0.016127224308745736,0.030115906605731588,-0.2595517432663192
-0.05190715263332465,-0.03691870167927242,-0.059114806416140246,-0.06831045523021574,0.012937700993474415,0.01505869663171938,0.031859983104162444,-0.24560214420339166
-0.0422521263405425,-0.015155773285552534,-0.04779197841222382,-0.052462848537213655,0.015143988468305877,0.028086326092717172,0.0363581412521993,-0.2302810306092101
-0.05281745264948265,-0.00499513137920425,-0.056456944141512345,-0.0588612283389235,0.006281160242705172,0.01527185500865973,0.031190443242914503,-0.22082556385447608
-0.04796599235887217,-0.01618058739743958,-0.055962988317789786,-0.06882170796178048,0.0115617482919852,0.012049224159729132,0.03548662061482513,-0.22408887754540258
-0.05348209720174347,-0.024165655344707923,-0.06338883431656447,-0.07783974730706958,0.0017562716631482453,0.012702083707396712,0.04051141698243916,-0.2300153514111946
-0.045378302910985595,-0.021621999876209254,-0.05732899244875419,-0.06778427895969022,0.006036731842606091,0.01741942944537206,0.03708149702139914,-0.25591738125735347
-0.04757981896211723,-0.00666461152530033,-0.056488826458931114,-0.07354964221455025,7.780062136094102E-4,0.014588522878226663,0.03262432879087569,-0.24376676087523716
-0.049074568059225714,-0.013600717316507664,-0.0612994186913366,-0.07536941071071103,0.0040420651919567605,0.012993494619077752,0.03452158797674699,-0.2415879425242011
-0.050428718359114375,-0.026582353728924247,-0.06554000353446066,-0.08043333932530315,0.006334539851118807,0.0023337382634266482,0.03084184128123517,-0.240959220420347
-0.04606248245464076,-0.024632973807115308,-0.06659112807454218,-0.07926572753716936,0.011380394261548455,0.017606833126687597,0.018186901342351923,-0.22223483648419023
-0.04167647017746228,-0.01262991195637553,-0.06587683582408631,-0.07628338727395086,-2.1086289410935478E-4,0.0050725038259792675,0.023939283736328327,-0.2273814146384764
-0.047716017827699755,-0.022446328433749323,-0.0678370175980816,-0.08105084634689855,0.005010103886468317,0.004761611141598672,0.021822751538546976,-0.22182603875877221
-0.0495934762077706,-0.03484392576381555,-0.07328454501390858,-0.08827577084672716,0.0033696030457366394,0.0014915870736781304,0.020708922125026844,-0.23750112981205224
-0.0515078212439978,-0.03524520133338813,-0.07078087593064188,-0.07794900105232447,0.003956718570287347,0.0047259604424435015,0.015798829466074263,-0.23325240670103106
-0.05229817913312426,-0.024144200725667038,-0.06678257360071929,-0.07717727311585226,0.0070910150671371665,-0.004919456220671268,0.026466177493669887,-0.22473340550053847
-0.05005340977422347,-0.023948850750467467,-0.06819828426277243,-0.08503506633929354,-0.001974875576351412,-4.670509406731273E-4,0.014436828019675406,-0.24037242900710698
-0.05248714060164528,-0.033788340355537586,-0.0748726589678181,-0.08074995975020179,0.008272811116260279,0.004487825935049685,0.012912055278920373,-0.25205408391210427
-0.04634162115967634,-0.027648726320365653,-0.0616384323577173,-0.07311583962823275,0.003346911121673384,0.0024246938366353377,0.019203871575400967,-0.28124663540379474
-0.04615553941182325,-0.019846589400218533,-0.06262285587799078,-0.07766028882163108,0.0038445093806300816,0.001716065187897383,0.016656496581932582,-0.2467498255701019
-0.052531568930785054,-0.030380339574050442,-0.06701624571026246,-0.07896014361011594,0.005750177030169956,-0.005841276904338576,0.014275441731558435,-0.2430597081718198
-0.0505848282574449,-0.04249320718286913,-0.07091765966501133,-0.08172063525912432,0.006484708962829771,0.011349625359549963,0.027163053620388792,-0.24613168097727567
-0.04442661602858336,-0.01867482173222519,-0.06267259112833735,-0.07465540259889294,-0.0022057775727951827,0.0040498773306102175,0.03112060579103443,-0.2272584727777632
-0.0459313964612461,-0.018097201692447523,-0.06372141091984725,-0.07753419572031676,0.0064365145577584895,-1.8365430768074384E-4,0.02455587471518648,-0.23971465364949773
-0.04828242082154335,-0.025096900747136643,-0.06845000053100861,-0.07822265685806534,-1.6106672183665423E-5,0.0016850579783553392,0.012030520023873717,-0.23555607555300814
-0.04984804250419111,-0.032373617712871124,-0.06684190338619317,-0.07848504516832423,0.003228594435074391,-0.0018349983975955817,0.025410791483893757,-0.2383447075626826
-0.0414353105885409,-0.007110327078456242,-0.05607432307015222,-0.06909786970220318,0.006714197054757439,0.005504096168138256,0.02783377908225863,-0.21720477008426603
-0.04389964529628975,-0.006569139603635754,-0.061610156617476125,-0.07369903167388721,-5.963756347168146E-4,0.003961532022072413,0.029627580944983595,-0.22256805525786028
-0.04029798325319589,-0.018984088883677037,-0.06596554721645191,-0.07469417130439111,0.005117470086436695,0.006240500715984698,0.017691697375775667,-0.22771319863828424
-0.039834937991968,-0.022756377135612134,-0.06216143155511239,-0.07041355517840558,0.006391935963485142,0.0015137465201752417,0.015462197212803171,-0.2288864099595281
-0.037273531168669875,0.003555277631602186,-0.05722121787017019,-0.06905223146201493,0.0056894788280665316,-0.0031220109437972215,0.009217425406606894,-0.22935676904445187
-0.04296287388131769,-0.006308675430638128,-0.05825269226529763,-0.07101975059977017,0.006419234594197206,0.003254974318821118,0.015378088523675296,-0.22198751106842887
-0.041796263349018564,-0.012870149605825398,-0.05920679174482681,-0.07775276763863609,0.0026871511812570493,-0.0028947099513807117,0.01746795785421984,-0.23908214183649268
-0.041284831052547835,-0.02284115482909496,-0.05965372799846863,-0.06896303386796405,-1.636413799223976E-4,-0.009397511565038494,0.003331806890096567,-0.25923512789625147
-0.035080325761282324,0.011328677719922233,-0.052179700208207974,-0.061573726103596134,0.0018932107428711086,-0.004690784298147248,0.0012697763661815766,-0.23856851748280694
-0.0389015447034918,0.0013718322220009297,-0.053381000101406555,-0.06782913085379776,-0.00913817017085069,-0.017057553559832097,-7.081389136282199E-4,-0.23133329771773764
-0.036619254975104744,-0.012792080676153679,-0.052300807205362926,-0.06861376631434825,-0.010446187097729884,-0.02279703457047939,-0.005801541462582437,-0.2376179523779466
-0.039207560467375197,-0.03240265540124936,-0.05711766124240715,-0.0671154437073817,-0.006302851136979549,-0.0215004731544778,-0.005377777437724277,-0.27481581491976914
-0.03265075283066754,-0.007533628206672524,-0.04590282608678922,-0.05565520768516667,-0.010742082183402566,-0.011545400034412515,0.003189034265957781,-0.2477146926043199
-0.03659080836041925,-0.0012201370050658675,-0.04748628892078592,-0.05021586529468964,-0.017022800856836117,-0.01959695002537283,-0.0040125048916359,-0.2523983750807105
-0.035719918188300726,-0.008448545136967281,-0.04485397954647196,-0.057146737219153955,-0.009226559886871974,-0.01210548596350594,-0.011031594762828889,-0.2734539669450868
-0.03796719520320815,-0.024185190585475577,-0.050696082528428055,-0.056391058811062586,-0.01217122794506971,-0.023409899583699545,-0.009536585869288591,-0.27588719845765675
-0.03320070303890956,-0.02335558163718482,-0.044431819550492274,-0.04757359731402085,-0.011401646683706343,-0.018732941800660704,-0.0011933562928825782,-0.2589647505182869
-0.039326214531669255,2.0254712364409718E-4,-0.04003939096911028,-0.04946333694490761,-0.006961507097782429,-0.009465794495333022,-4.1867002837858665E-4,-0.2396188296527615
-0.035103574649827954,-0.007624793638730645,-0.04072053517476599,-0.046249264221665386,-0.013409540686262777,-0.018914423723400145,-0.007556304079721728,-0.2564876195296063
-0.040223992587509624,-0.028177014619867814,-0.048498489863251316,-0.04993280610853477,-0.011625117732875407,-0.018481640570072733,0.006134243005686811,-0.2686953732067494
-0.03423541383640763,-0.026735335027248248,-0.04119686568544326,-0.04376075288771321,-0.01082810109967702,-0.011747368828140644,0.0012766151775257355,-0.2553055928733505
-0.03368872520759105,-0.011237156643906957,-0.03740208200708541,-0.04332284014087133,-0.008989140939002315,-0.006374743678999967,-0.008027917431479422,-0.24517328077893122
-0.03500738667683481,-0.016252647849019808,-0.042447533189349865,-0.04234811609302424,-0.013649361032871723,-0.01074642076404099,0.0026127679224494213,-0.26692897835673746
-0.03865524511054736,-0.029567654934330494,-0.04659931835073556,-0.04170231113852999,-0.02239533901668747,-0.0019417712225497507,-0.010389762918229547,-0.27072857492832353
-0.03584583634611572,-0.024265106802367705,-0.03778070283502406,-0.03620454886823066,-0.006576564666083603,-0.009182669082325774,0.007973876060414475,-0.2969405747800179
-0.0314822046964566,0.005999827234346201,-0.03404840971656827,-0.04207541150606375,-0.007700738056046197,-0.005831630846016794,0.006834280122460921,-0.24603994194468726
-0.03339217727007555,-0.004926985402341801,-0.03563622741731559,-0.03930111149429467,-0.006829291737081525,-0.005827647035887966,0.005738178140125659,-0.2584898279433132
-0.03806005428084349,-0.011803457915359226,-0.04381477307945369,-0.04156328539218606,-0.01213301049790542,-0.0022039198486500833,0.010537277168572522,-0.2621081395427222
-0.03551307449455533,-0.006693734352102176,-0.034399560357095356,-0.03644717900651347,3.388002246477534E-4,0.010527199199637429,0.022437439196671106,-0.2634865841650721
-0.03355021248095568,0.00850012529790249,-0.033990788691858724,-0.03894328264949527,-0.0027486865134207557,-0.001115092944776898,0.014692129328232328,-0.2541790676447985
-0.02855750540871198,0.004193952746273101,-0.034019614259218504,-0.04152992815700402,0.00282317926697531,0.004793998570942607,0.019883723061297705,-0.23376182367455375
-0.028762904773168188,-0.0025996868246918963,-0.037618166922796285,-0.041412092434590764,6.152215195042952E-4,0.0010589855820937186,0.024275491124459588,-0.22208769812313076
-0.026611530617923807,0.004635693664366551,-0.03381584627889339,-0.03800512344718278,0.006971526378527584,0.008033908448800253,0.02219164628740044,-0.24008019656682095
-0.033506202060663244,0.008562469420052997,-0.036741558663628694,-0.03740691566598777,0.005717889918717927,0.00266673320991588,0.021740086550219483,-0.24035123584211215
-0.03195278582023903,0.009186716799296274,-0.03925752564181532,-0.04606782287135303,0.0025768279079101323,0.002223354104542265,0.017400489049888765,-0.2393823147163852
-0.035351220842842736,-0.008220431454734105,-0.03956435807024384,-0.045157896499516584,0.007566422820899538,0.0029262387424284306,0.024028908172266383,-0.24196725860388207
-0.029223708814583083,0.010284987866889125,-0.03281338225469886,-0.04010726039740795,7.836301919766192E-4,0.0037617860792032343,0.018834614856782735,-0.22370694116939077
-0.03211058605047737,0.015919206740491913,-0.035895218821398706,-0.050364722735867895,-0.0036785136104335718,0.0014892732174197896,0.0153924401602552,-0.23171768729581269
-0.03361924885955829,0.006735227698144696,-0.03681662024168093,-0.04843807028128833,0.0024721713851859734,0.004492291870981111,0.026353902927957355,-0.2322551471620247
-0.033301247169623044,0.002076233915041407,-0.0390325327160212,-0.04872639998665562,-9.031523178961644E-4,0.0031302956163108756,0.01486808678212228,-0.23527726666357293
-0.02753988518709603,0.021366458855722525,-0.035743240685440894,-0.048295685582617584,-0.0023568696124968663,-9.049706065497597E-4,0.009844293988896077,-0.21564007413606
-0.026562866489070865,0.016581381489418227,-0.03879328305732133,-0.05100488754148927,0.005483136891973517,-0.00279172995740364,0.0013685212220955153,-0.22167098414221217
-0.02966188384624625,0.01229094282771629,-0.042361939541120164,-0.045670657500803,-7.684183090509822E-4,-0.008086112714060685,0.010234431960075495,-0.22308694641345392
-0.02263900058082671,0.01890547862647577,-0.03817816671502616,-0.04924406081748512,0.009111555863821173,-0.0012742966419269622,0.009240661301522998,-0.21540317245588558
-0.03019071775177806,0.01941708900088239,-0.03864575685667769,-0.050201825785411845,0.0012662103187150511,-0.005046165533771869,-5.799695677427574E-4,-0.2261057367244796
-0.022960613617026712,0.014226053956891511,-0.03947769106363044,-0.05776435460950365,-5.819491573645863E-4,-0.011061910512826805,-0.002930826444631841,-0.22925650698430208
-0.034586992950717384,0.01310338679062257,-0.03909220366864069,-0.05549294110667855,0.003125140515611075,-0.009677955787343338,0.0025234925537416892,-0.21739150901953352
-0.024917599747844847,0.02359352911366492,-0.039492352972571386,-0.05057502443249114,4.303199319255913E-4,-0.011131157342062756,-0.007868869827322102,-0.22521969537454187
-0.0318420301157712,0.015038736849683324,-0.038733954901215346,-0.05566584103960677,-0.0034310731300278233,-0.007493594241185514,-0.00943307914578121,-0.22070422883638202
-0.03266165222325893,0.010485121120939798,-0.045253662353901,-0.05890025672362542,-0.0046970277626659784,-0.01548480383315082,-0.01013395305473867,-0.22997527654074504
-0.027887520978708422,0.006411542064953072,-0.041367380921922166,-0.05268659414763774,9.105438562635513E-4,-0.014085248700368213,-0.0029972123552575508,-0.2326228456959816
-0.030120901328201097,0.0220609002675591,-0.0396545692914785,-0.05410113313354275,-0.003869941420426515,-0.01865252233448752,-0.021994366529164294,-0.22099687333305423
-0.02645966391353043,0.017285523991606315,-0.041471666071705465,-0.06029185662445386,-0.003532073239904809,-0.019826242289879857,-0.018097175234120667,-0.22468899075282658
-0.031078522953131456,0.0018596579898616647,-0.04470025268112519,-0.055795063365847615,-0.0050607241290768585,-0.013992418874766578,-0.023078297482626874,-0.24118106700466188
-0.026986666813609242,0.019298090340550574,-0.03725498598791835,-0.05210679782283635,-0.011558201223470621,-0.020751468029697857,-0.013373611192412092,-0.21731507752703733
-0.03127315877603051,0.01508865473700044,-0.04217967719419092,-0.05146605956435554,-0.011943371734524593,-0.027323049555045633,-0.027286279190107527,-0.22337405532233146
-0.028123141109969687,0.006570765387082749,-0.038340840352419185,-0.05377422533280202,-0.0015140885306115818,-0.024083628346283463,-0.023093876489024282,-0.2500969284853543
-0.031920660174246,-0.00589359644763833,-0.03929886742725703,-0.0523073967923692,-0.006970483142931495,-0.029562747521915813,-0.02792764537923474,-0.23492853825472215
-0.025779765710191065,0.028008778715656515,-0.03810136925253035,-0.05074054403310153,-0.006383737813746802,-0.03287130100212992,-0.02335868189631391,-0.22665708405731883
-0.03341055801271817,0.020773624977040005,-0.041352198750511264,-0.05510989927443116,-0.011637535524974195,-0.02884986883883563,-0.02044897688734584,-0.22132173534913316
-0.02523441192555521,0.006117014032297737,-0.04624230679170914,-0.05341569427745447,-0.0067995828903436506,-0.04173619141630295,-0.032510407939905415,-0.23541148186102237
-0.026507583964973092,0.0073965948282628214,-0.04022111654699683,-0.048668389199289216,-0.01605107200325644,-0.03337073072315845,-0.02516438830752827,-0.23152578085432488
-0.027518713109618034,0.02726324923581798,-0.03938591087600674,-0.04930584869209057,-0.014779268268154594,-0.03051071589676082,-0.030402899504590533,-0.23246698570924226
-0.02698528367978757,0.02172888019816262,-0.03902086591804209,-0.05126000106135107,-0.010619715349468347,-0.03701791446680595,-0.03166130295068575,-0.2425558240383235
-0.03129975696250886,0.01548187817000619,-0.04311184381467811,-0.053382927513963646,-0.01606175832412918,-0.04132212112138184,-0.039370262622630964,-0.2544765878939075
-0.03404878424604937,0.006172638279191757,-0.04207330068215076,-0.051243453813930626,-0.006939560767204908,-0.02643012240302504,-0.030230736927458125,-0.2658908947939777
-0.025349341151681377,0.031183222669478403,-0.034741557606649126,-0.04473592790863425,-0.0037726535732509484,-0.02799815944737559,-0.03855883096039171,-0.24818570539300056
-0.029485500493744373,0.025509189947755848,-0.03868874259567872,-0.04696725457360994,-0.006252537022695688,-0.03617261089049846,-0.03922913678762878,-0.24491390162230067
-0.029152887808817713,0.020875433645422707,-0.04437482952754051,-0.04985919588801814,-0.015443996202819268,-0.03586666138071379,-0.04024086707620644,-0.2464913063927918
-0.03702768346863916,-0.004715723239170705,-0.04636457119791049,-0.05846741035141564,-0.016785360807562287,-0.03173903755622822,-0.03480645300917643,-0.2700362801390006
-0.029341742543129493,0.010273178765868515,-0.03951802949897568,-0.044030209779712774,-0.016176188166646135,-0.026962396587966585,-0.037433580221586354,-0.2455751090249315
-0.02965109026711587,0.025169701676038162,-0.04076836948707661,-0.04210392950138564,-0.017456539041649878,-0.03443292715999751,-0.03192656859214155,-0.23844126381916547
-0.029277824592850464,0.015970397658673304,-0.039420639113889024,-0.04925236261906393,-0.012127216877417956,-0.037309733030685154,-0.040993794488683094,-0.25360406380377026
-0.03347863099367131,0.006082198678901633,-0.04511986966519848,-0.05122237054720448,-0.016398740549371228,-0.03373400731970547,-0.03690092351051982,-0.25907145663780795
-0.03578327138095185,-0.014959923607362459,-0.04689057206519075,-0.052626421944290395,-0.011547237078142907,-0.03394786953881043,-0.036755761905626495,-0.25287101275042123
-0.02266806284062726,0.005740817951340318,-0.03584526439094104,-0.042232733639968704,-0.008341776716521138,-0.024775223918401045,-0.036646914542461134,-0.2482846491174508
-0.03168765335466278,0.011236680783999671,-0.036505018243817834,-0.04525277134015704,-0.014998560653879483,-0.021105449306094533,-0.03338622969613943,-0.24266775162120113
-0.03890867004906752,0.0032126497031339037,-0.04117830454332222,-0.04467234934593287,-0.012578649979352725,-0.028062150196135192,-0.032178425121503644,-0.2488865241553049
-0.03568396458128732,-0.0052993037413611105,-0.04069270441875389,-0.0415887185440986,-0.014928899103827928,-0.027899182368595704,-0.02043369584839342,-0.24920650558882723
-0.030303604142682777,-0.014936470878202456,-0.03963257768353238,-0.03922209760971385,-0.016052644848924248,-0.017884919831221455,-0.025118240060795955,-0.2578532484834415
-0.02815771762290444,0.009834552405638323,-0.03191584487044682,-0.03380023138316855,-0.009533891091844758,-0.015030594793447854,-0.01700232009325223,-0.2509051348831626
-0.02698586280089962,-0.0032454351651666083,-0.03370573516788947,-0.033529344917726,-0.011927358153460521,-0.016138395068475742,-0.018161844930751694,-0.25313945782176267
-0.027259827148998588,-0.0043150920624942055,-0.0343478372309362,-0.03196582082822258,-0.007440340377010225,-0.019701741283221882,-0.01946147199493413,-0.25831582183897245
-0.034929083881290075,-0.01811853497399825,-0.036871294759637956,-0.03480022825514246,-0.013009412661284407,-0.0139564976162249,-0.013919109915511447,-0.2633722943639731
-0.029325529777838054,0.006081860470910699,-0.030699712640949825,-0.027661510567185365,-0.011298432709039989,-0.012817343339218844,-0.017003774498209553,-0.24656614529696783
-0.026957711873753697,-0.0021643462196259443,-0.03394393449171678,-0.028347171596829163,-0.011755391109131406,-0.010498003354618183,-0.0181036198812669,-0.2673899946655212
-0.03494185343473827,-0.012304297698973246,-0.0371851429907225,-0.03079619412663163,-0.0016692540842053187,-0.009925510466861045,-0.010877807057437145,-0.2720416035339252
-0.03296083560594728,-0.019667027426782127,-0.032856443636533596,-0.02391429618732472,-0.012903788301679665,-0.005090872106801295,-0.003589081333701896,-0.2789925057394395
-0.022215305194092518,0.01104985498909272,-0.026450196177535325,-0.0155271608890542,-0.00914914471037414,0.0030762251999288262,-0.00224889327820022,-0.24906853000266072
-0.023104732439722022,-3.9757505728178603E-4,-0.028111015687894474,-0.021376293399243157,-0.00610408739761935,-0.003330352767084229,-0.0026665602297126327,-0.23032000314301332
-0.0312531788414863,-0.00596293422044034,-0.03180194560862274,-0.02621619176462471,-0.006621745678584448,-0.00609938726815337,-0.012723412622201105,-0.2708973370507912
-0.02823787317430248,-0.015268913849832607,-0.030319693627507648,-0.022210719387623246,-0.009469976213052508,-0.0018465343344639899,-0.004412372592272262,-0.2482591980990769
-0.026410424338068606,0.017563058057514236,-0.023796443553594664,-0.01824143918849334,4.904598133654315E-4,2.464858928236045E-4,0.005622079011106683,-0.24252511189794462
-0.030350733201005693,0.012327008503021545,-0.026666359916807908,-0.02608231727205344,-0.0010707287709726626,-0.0011820126741556353,-0.003297990004331935,-0.2547127835067525
-0.021866540209052557,0.006388586234624916,-0.029891383336563,-0.03533266519283576,-0.004013708931341141,-0.011518144812392838,-0.0028746158150083486,-0.24603558051963192
-0.030021325160918048,-0.006657697615627015,-0.03274778067687811,-0.030172244303027097,-0.008764535070058073,-0.0031011261605706953,-0.010931936003370495,-0.22396726616814697
-0.021379586597068984,0.01675133123383167,-0.028736800523258603,-0.023311121636626186,-0.00837792591375647,-0.011714262086126727,-0.016662482591144587,-0.25522692710657313
-0.028066096288303383,0.012976297928744012,-0.03100680004331691,-0.03313591178497001,0.003370601708513022,-0.011107185353383637,-0.013788004468078659,-0.23006057815285794
-0.021432747984318157,0.007109472713066083,-0.033635900818463724,-0.03845492564176778,-4.0730210040011944E-4,-0.009586674172475928,-0.01653468114714014,-0.2783688013156163
-0.02673843694493567,-0.009492849682780994,-0.037724434509076255,-0.03999353521141276,-0.006295377486126856,-0.01244493055630162,-0.01754271179497938,-0.2656714015288019
-0.025766162482486994,0.01771837996767514,-0.029069039706799825,-0.037135375383174386,-0.0022965943921090947,-0.010021614065360675,-0.0060836143270420195,-0.2374265971340637
-0.023035305983609828,0.016140122929932037,-0.034854671594363104,-0.03829602025550461,-0.0051216942130265005,-0.01780334837671924,-0.012744449195531988,-0.2335253045599295
-0.023862754350194807,0.008038418802077165,-0.03900809267387972,-0.042792537236421756,-0.002682033567378174,-0.01599660793928152,-0.012330117136559024,-0.23618911931388178
-0.028360097007031536,-0.010156990410061089,-0.04103853351762461,-0.046257850245936746,-0.0146208026824195,-0.017882803993544687,-0.01943067214845404,-0.23679053435921418
-0.01798342756736967,0.016360960004902354,-0.034944609324204554,-0.03631489945612283,-0.0018365080221930264,-0.01668282465176888,-0.025041176231338936,-0.24044500464822446
-0.025770890179408815,0.01162546326805998,-0.039629372386319396,-0.040815520941969885,-0.01127392666426552,-0.022814703737348625,-0.028365170034833322,-0.2705823463366323
-0.02233788935868694,7.544206526585985E-4,-0.04431004396607192,-0.04316242048304723,-0.00957854899414116,-0.034556690618035395,-0.03600189373597407,-0.24898850918100848
-0.026728142822812297,-0.00962491040582345,-0.046389745729493115,-0.05095052955942752,-0.015567213304628853,-0.025421899259874543,-0.03970936286055276,-0.2658035415720342
-0.02008110113517873,0.012397528648112329,-0.037047157893592905,-0.03902434435053675,-0.010448174347512412,-0.028698819341762518,-0.031653105723486875,-0.24230425295090577
-0.022061288973247002,0.007261809112095965,-0.04064609825199381,-0.0484186027620221,-0.016554663089753237,-0.029969141755249177,-0.03200070902680123,-0.2449788183075171
-0.022974632692826267,0.008951950949648863,-0.04550758383608599,-0.05220044513338316,-0.01612003107428421,-0.034861189451023254,-0.0400087205460178,-0.26225215630729243
-0.026327858374303435,-0.009952070361453102,-0.04574336221839969,-0.05531482072486878,-0.011704287789866038,-0.03727216793146948,-0.03984331527501183,-0.26393217062235214
-0.02236544938375571,0.006518107932653123,-0.040875302860296586,-0.04877855630996237,-0.010921811731665482,-0.029817543305048343,-0.036481670915640994,-0.26493486753925755
-0.02196105546132795,0.02001566313608447,-0.04034789786620664,-0.046622764168806924,-0.00589849646186445,-0.037021641015484684,-0.03798932531995818,-0.25565193182518525
-0.026261839640622356,0.009390827762358611,-0.04344157810593719,-0.055441000278899276,-0.01350838389972612,-0.03355948040853382,-0.05067889740846568,-0.24014380247534428
-0.027048284721605056,-5.390485976136923E-4,-0.04951614076145155,-0.05645984674447831,-0.016544807221121973,-0.04068459947226498,-0.06424906270292201,-0.2438354614837365
-0.026350182922421198,0.0013902243956346431,-0.047075813756417145,-0.04702619848362845,-0.01338194892775581,-0.037086140520799685,-0.040719727184771924,-0.2524691857322326
-0.02057369992812685,0.020617316948727853,-0.0442572838802958,-0.05291242649124018,-0.015289078481712067,-0.042198901336898326,-0.048682096947980355,-0.25775512583103116
-0.026944233699320672,0.017281698425668172,-0.047856468266370814,-0.05390561365776441,-0.02089878393874885,-0.05172860266395364,-0.05764137581289207,-0.24584456849466263
-0.027894626889873434,0.003762527900023695,-0.04955678954643284,-0.057838593108055905,-0.02660677549264942,-0.05050647031839629,-0.06979490082528714,-0.26730798397941397
-0.027402885214401745,-0.010619722944988313,-0.05280548455271719,-0.06502333021935978,-0.02005893103024476,-0.04175259634146046,-0.05744069115950827,-0.24982491709110222
-0.019497033964340632,0.018946938069926093,-0.045261700041041304,-0.05664599101008529,-0.008673203845260796,-0.033441560500302836,-0.05343993743002754,-0.2600455442525863
-0.02287658298629457,0.016999642463404952,-0.04619845413286588,-0.05328747294823887,-0.015564293619339413,-0.042224165389222315,-0.06632030659632279,-0.25009225656912953
-0.024136590807070018,0.00686337992894328,-0.04973093469949507,-0.06143701259147732,-0.016978102552454178,-0.046195960680209466,-0.06543530669300346,-0.25613225814223717
-0.027233752918995626,-3.238834599373056E-4,-0.0512649924111461,-0.061706356017408676,-0.015140408601899255,-0.04890331151214387,-0.07047271167954366,-0.25827775489747523
-0.024128475764898363,-0.00867799514852163,-0.05012936359075393,-0.05538742723716685,-0.024210355223002102,-0.042329839913078884,-0.04503274593475414,-0.26840194124050326
-0.021196880811371485,0.01035236905451532,-0.04810308026528484,-0.05380156323720347,-0.029737094561569963,-0.046661206855299245,-0.06331056058735837,-0.2673490400102648
-0.022219381169523454,0.0070731311436801995,-0.05130597781510946,-0.05544056679725661,-0.022988277305654035,-0.04619295356266673,-0.04687160426333786,-0.2751275199775404
-0.026234811193326168,-0.004861643452110614,-0.055032471985041416,-0.05948175194586158,-0.027401810326706317,-0.05082426793559625,-0.06293140092794747,-0.27587000843106296
-0.029200851651871806,-0.013248020095662517,-0.048718763177042844,-0.056113667213235276,-0.024640686641597673,-0.04001970795979144,-0.05422810651527847,-0.2855069158092004
-0.02381253085921481,0.013681385232734062,-0.04037624274398652,-0.04863634495610072,-0.01557783553407741,-0.048958406261714216,-0.04390358011408173,-0.2609689822862246
-0.024443409169934763,0.00291791432859515,-0.04462362564771857,-0.049728218308510486,-0.016798035494415137,-0.04330778334516905,-0.06006538052475356,-0.26080712117119353
-0.02639863025069181,-0.0029856218609714056,-0.04542623812621139,-0.055166918860355574,-0.014822061970220665,-0.042027773105205016,-0.04334249883612267,-0.2561324050258845
-0.029249194556997996,-0.013893201357893941,-0.04903059650296142,-0.045090436837833,-0.015010726613234437,-0.03543704749943265,-0.04254076260191904,-0.27573720269346036
-0.014860131964454322,0.017710020853449776,-0.03597348595669006,-0.036739509367081966,-0.014414195551479096,-0.033437227062971635,-0.031845739262488036,-0.2500352728093941
-0.023839279453660607,0.013574761073087487,-0.03961414886556574,-0.04636159219969408,-0.014498551951989956,-0.03357696036550034,-0.038324528357431956,-0.24805044506040425
-0.024419927311991912,0.001348756854509133,-0.04166538732719084,-0.04298653324369253,-0.008845084565350844,-0.034976554677588687,-0.04296323020685153,-0.25345644866365097
-0.02623333453488811,-0.009835413400019742,-0.04273215891107064,-0.0446567466696035,-0.01900157135890487,-0.029884209994241104,-0.0353716775996016,-0.27066550393153016
-0.015809541456511065,0.019811213246086017,-0.03770577948608913,-0.03757552665922768,-0.007196776173692239,-0.020311683887579556,-0.028520309940774424,-0.25470058916262883
-0.01649144691779796,0.017082450504016508,-0.03339965370344864,-0.037739233309896716,-0.004899343407048279,-0.021888024706787346,-0.03203986113209024,-0.24831419160306328
-0.022326253559627043,0.015067774804543408,-0.034061095906418835,-0.040010763764989604,-0.021092435448648587,-0.02474183807797131,-0.03650627784486139,-0.23884934256785562
-0.023210493733425593,0.0031254470777161442,-0.03798559876775548,-0.036359110077222014,-0.012616473970064181,-0.01781788869196003,-0.027515424781148885,-0.24901232686496
-0.01906524644184983,0.01916319432792713,-0.02961087831636398,-0.03465609345386321,-0.0048191242810402485,-0.011598171014478777,-0.014022204599638419,-0.24789736344092567
-0.018842537528380242,0.026706743834968714,-0.032950468794447005,-0.038309530217839005,-0.006890628984566886,-0.014716063622306211,-0.02295282072621682,-0.2560951492419019
-0.02043928270698987,0.01670911225486212,-0.03387960653492719,-0.03968299601231786,-0.008938127062672654,-0.01584248919234172,-0.022338155818064958,-0.24708555607012986
-0.01697968876697775,0.011767278568743562,-0.03919934064060341,-0.04343817920617637,-0.0038694867416585784,-0.017791873302817684,-0.02069552256681949,-0.2415492464495638
-0.015726098979282264,0.01613563788470027,-0.02970872628307405,-0.03607073009994374,-0.005881992833250117,-0.016135194359825213,-0.0050889562138914,-0.2273773438323737
-0.014177998577750539,0.026308224447370614,-0.032901022484154094,-0.03611795391875174,-0.005692951890834687,-0.01252365113175813,-0.017065021223321056,-0.23858358006742386
-0.016609513658140607,0.01313849145768037,-0.039399082733748474,-0.04224015243751555,-0.008582210828164407,-0.013639904343304655,-0.01685818165780126,-0.24730226952493925
-0.022082141101449366,0.0020190737900666984,-0.042701170043769617,-0.04823183159664837,-0.004729954937204529,-0.014951762862222173,-0.027650183257413058,-0.2560031868073955
-0.023623357496698194,-0.0044273969828083105,-0.03968801420973453,-0.04331049759503945,-0.007959175877052983,-0.02124642515537544,-0.02362290113716553,-0.25206098043676245
-0.020083680751471194,0.015363065707638708,-0.03821019123049509,-0.04457990256894557,-0.005641261335375291,-0.01955778985447511,-0.01870945737386107,-0.23708490427991893
-0.024241895530403304,0.005997085095328514,-0.04229193935651236,-0.04514884859997256,-0.009673258809496479,-0.02014350667972658,-0.023243104230267642,-0.2428235802674649
-0.023177601111345588,-6.445329437194747E-5,-0.04592367048232342,-0.04931716239916814,-0.009676982727768634,-0.028430363503156014,-0.03023983972513238,-0.250734720440547
-0.027509905633252195,-0.007707260014797138,-0.04761554104397071,-0.04904489095983959,-0.011550387805322814,-0.017637952351501136,-0.022109822060098188,-0.259006014842643
-0.02111418511736787,0.011443237691121436,-0.04070382891881101,-0.04676215308374257,-0.0100249799897905,-0.026370821194690097,-0.028041553108769105,-0.2342611001180084
-0.020542212659960406,0.005827727171878438,-0.04354290604677903,-0.05194229390002887,-0.012090311768996642,-0.022482337437618266,-0.03219038873097338,-0.2477666495868854
-0.027677610866389635,-0.004535170526276644,-0.048632760549023435,-0.05614485427355036,-0.009196743552137294,-0.031130267705530797,-0.032980953471549376,-0.27215487767478236
-0.027344721728640314,-0.006631527572385376,-0.048732305563640665,-0.051235681112133724,-0.010146530718310481,-0.027873872112948943,-0.027956841202780743,-0.2538815059681658
-0.02260194898715456,0.019166527549576606,-0.04030293864835399,-0.04535860850394618,-0.010467111297973173,-0.02144822272040835,-0.021716162955362384,-0.23284963313137258
-0.02216449126708138,0.012944730602932004,-0.04681971284974999,-0.04963279333670245,-0.012633643551517915,-0.023474838545267572,-0.027202875367919103,-0.25775980557902106
-0.02542355218608216,-4.9012213649622514E-5,-0.049408103395583776,-0.059552422841290614,-0.013516208275741648,-0.027365518311716745,-0.02490868805799149,-0.26833938323424694
-0.024823829654222494,-0.0031200375839159273,-0.05433922960251345,-0.05490546095880433,-0.004656760723788637,-0.019811629760834143,-0.023632656631227513,-0.25414105958725813
-0.02039044778226842,0.014891419787055443,-0.03938806909235605,-0.04763419944176103,-0.006298121659835744,-0.022320757712363685,-0.015612552726499024,-0.2429988701299388
-0.02196819043452623,0.01273711794736441,-0.04955223074031495,-0.055307659990275135,-0.005001727415396495,-0.029558544905307686,-0.028106103118088668,-0.24516762936957814
-0.026125128389497352,0.0059992245088831804,-0.05151477534786163,-0.06545816768495813,-0.008965180119879249,-0.0321722409882451,-0.01758491610445136,-0.2555392047473485
-0.022250629751282815,-0.006543883752185707,-0.052672961465866135,-0.058632217235942204,-0.002309518013346504,-0.017907069265132896,-0.024609171705245222,-0.25044404534902076
-0.018462423781639543,0.026670153840019327,-0.04705387263479757,-0.05321318756025334,-0.007432900359758867,-0.021394645840216133,-0.02117961886653718,-0.243595007189642
-0.01824405382677492,0.019189974419636983,-0.04835543743181127,-0.05633140308876209,-0.013128280007058348,-0.029506137850683106,-0.023918301704955607,-0.23572052456697104
-0.0211626942788369,0.010003054738155088,-0.052448637445917747,-0.061775094961625136,-0.016771948523338964,-0.02666969794060186,-0.02847995875091395,-0.25742670580286886
-0.019318059044337612,-0.005242019938427667,-0.054001671537257614,-0.06384285228335017,-0.01383372750342468,-0.03509188608088877,-0.033460411601715374,-0.2646647451145029
-0.010090562734792438,0.020745964758496938,-0.04837504903990421,-0.0571110277518413,-0.004053993824097157,-0.02515605492930318,-0.03022375780035387,-0.26007612261038143
-0.022968579168155572,0.021685415289058114,-0.05026498614139539,-0.06328894123645828,-0.019542419961483544,-0.026912818983238766,-0.04171364141203628,-0.25034984336847654
-0.017168177488283292,0.007633357882920082,-0.05013376353545594,-0.0616789320436455,-0.012888722905079468,-0.03443564087206451,-0.040591954660371854,-0.26800551031132386
-0.022731482910587852,-0.0028745129836835292,-0.059592075543892814,-0.06680156790885586,-0.01493917608994441,-0.035418273420202984,-0.03262485261937613,-0.2565925336854442
-0.020662414795405606,0.0042552387952350225,-0.0527485829565154,-0.05534035706329844,-0.004647879555638784,-0.025036864962647485,-0.029217726818503407,-0.24358833853294898
-0.0234338269178835,0.005939183960191518,-0.05138775777555142,-0.058915743555182296,-0.00899358775344412,-0.0265332871046886,-0.0281439463996539,-0.23107572932458129
-0.02590568291329276,-0.0017699666252586528,-0.0525988697758473,-0.06453249242452631,-0.017575105491630362,-0.029537446997830175,-0.03848469212111096,-0.2583271340663023
-0.027339893453410542,-0.0060433476558061855,-0.056384323560886046,-0.0632388405612869,-0.006143100541032623,-0.027822778194735658,-0.03125523199927647,-0.27036880952822867
-0.029097374914617738,-0.007240723604556274,-0.05150273535188508,-0.051477135457334594,-0.011640612886301053,-0.02337353702086245,-0.030610578548034107,-0.2533987218036805
-0.028718443065931167,0.004615529632869605,-0.04710465721855484,-0.055607452985066495,-0.0030535810764280896,-0.027012745661398194,-0.03706824145887743,-0.24069828808106342
-0.02744925698072616,2.0687798549332912E-4,-0.053375986402071376,-0.06542541776011719,-0.014939508686978015,-0.025861538333099,-0.03249794317983982,-0.24701344291693272
-0.03132538020157136,-0.014932076539271179,-0.060558290015904334,-0.06535026084742458,-0.010039055243831928,-0.02389878106553077,-0.042837634534556066,-0.2491635764239687
-0.03232405011431919,-0.01886505750233562,-0.05709827202392764,-0.05916526261251083,-0.010176894609783934,-0.02184176200759347,-0.037947220302070324,-0.24699889040529885
-0.03038335771109169,0.010641573039283493,-0.05329363173904771,-0.05723872874045637,-0.0034634325208657093,-0.030037614199807987,-0.027079922873986487,-0.24144082574464887
-0.03139691993413721,0.0032396943796504326,-0.05581260214945162,-0.062067859408574844,-0.016790372772541175,-0.019521116631369625,-0.036939221156965726,-0.23239735093730854
-0.02477247223508442,-0.00861341964641421,-0.06120587798070648,-0.06917722201867448,-0.006398696061695846,-0.031160511786251028,-0.03043436956660556,-0.2537993792976719
-0.024498520880310883,-0.015228957971813421,-0.06345790245722135,-0.06416651005219116,-0.007791359207952516,-0.017740803153799056,-0.022555740758724154,-0.27615049573390366
-0.02091949037061202,0.017461402576790224,-0.0563649967474678,-0.06171077614694599,-8.071940221520609E-4,-0.022719175193853455,-0.025348201638231434,-0.22364826120147852
-0.021934384387412287,0.0028724679685136366,-0.059739686249870756,-0.06456199833146303,-0.005870189158397371,-0.027546759049111646,-0.03663897362810382,-0.23315656583004535
-0.022905166416991748,4.0225826950806334E-4,-0.06929771624002558,-0.07234298431896537,-0.0024857535753157528,-0.032657064681128056,-0.03889131023119446,-0.257157562359447
-0.027067030151027762,-0.011546669941247416,-0.07048104980013122,-0.07352886543244487,-0.0162525435509545,-0.027370345393063298,-0.038510841762550894,-0.25903708076040594
-0.024091605889397235,0.0020500328307660283,-0.058427448694388845,-0.06489219149531159,-0.0035082752843820287,-0.019980134754828033,-0.03650482185295845,-0.2635610274111673
-0.019535491934195487,0.003474164855411766,-0.057508754545453254,-0.07211165644568432,-0.012899700402640454,-0.032345472944384834,-0.030999250103805494,-0.26161253144203434
-0.0192524819342044,0.0036971155879674915,-0.06348236010019874,-0.07222305834756161,-0.005599812319196146,-0.033403093127232455,-0.030723177182450358,-0.2625068752693848
-0.025025171206412854,-0.017276527247761787,-0.06780928714366882,-0.07235387677550019,-0.00554417962332949,-0.02804986161950542,-0.02565833085749024,-0.25724914416388633
-0.0233456365657701,-0.008352623928525267,-0.06563525461048758,-0.06713590098475537,-0.004303605037557211,-0.020903343627885023,-0.013469391844809546,-0.2674642664236559
-0.018591920743726873,0.004822853503828045,-0.06226286747809521,-0.06542282090863143,-0.0022261712650701727,-0.0204680063754093,-0.031227705084082236,-0.2450635364283278
-0.023385671810323395,-8.719109301863453E-4,-0.05960183388408619,-0.07076098727575485,0.0028099771459398908,-0.019638382257395365,-0.02338740971363611,-0.2571422219809014
-0.02326744171040669,-0.012354378416734431,-0.0693462368549669,-0.06977115708457454,-0.005253571935765154,-0.02252561860453425,-0.023685158550998897,-0.2669812455637184
-0.02758867938868187,-0.020308466375476408,-0.0627377726652082,-0.06573946093301432,-0.0026992453601112788,-0.017323695800966186,-0.02301518112742128,-0.28122330865517126
-0.016960036263755033,-0.0013633918605202148,-0.06188884178829465,-0.056451647239860576,-0.008334276155795125,-0.023029101234763524,-0.018231017366495766,-0.2415720409603887
-0.025577134853833075,-0.002078192857185259,-0.06150243929876949,-0.06896253906431032,-0.004610438501250909,-0.021015755008165285,-0.026907217862149693,-0.27085248835134046
-0.027374972450161687,-0.023381346075699454,-0.06429768563155583,-0.06831270767071783,0.003402049059354601,-0.012644331271094562,-0.017703012367658817,-0.26109806673241126
-0.02439127688524523,-0.018160162191281883,-0.062342013443121645,-0.057615103415454505,-6.89053470312996E-5,-0.00770664787915045,-0.011590776496628794,-0.2587000973243739
-0.021438786660758727,8.838832761333368E-4,-0.0526248182176073,-0.057823400364371905,0.007901124829807711,-0.013911995919135828,-0.0039456021688131955,-0.23915117518184806
-0.027015557906000225,-0.008309457727303833,-0.05674622810312563,-0.056954254325175806,-6.840998017270051E-4,-0.018090575327544264,-0.0143522703681738,-0.2550620361345712
-0.028100084239691396,-0.024486437732847432,-0.06261640139079504,-0.06367651811816863,0.006592513269977738,-0.019144869218440646,-0.007535834254282286,-0.2655848646004805
-0.02260482674478372,-0.022087632163622632,-0.053420730758489056,-0.051861663701898715,0.006837164152694598,-0.009862390114202934,-0.003179710791825671,-0.25492774968458604
-0.023079768819558883,-1.2654206147876134E-4,-0.04597488069905776,-0.052598194239556126,0.006572556217030308,-0.01325404158653471,-0.015309764366552701,-0.24446525583006676
-0.021696973214613436,-0.004909538991204849,-0.049389558889218844,-0.057804788899731806,7.021032844717212E-4,-0.017240605690475308,-0.01602349545645152,-0.2523443889945101
-0.024009690166057068,-0.012451122406854146,-0.05804592848369779,-0.05816390643591481,0.0025255220311631438,-0.019776453644603426,-0.020894503585910076,-0.24466790442847441
-0.020492946017784442,-0.003987964248315756,-0.05160762571640328,-0.05475170282438628,-4.342985005195624E-4,-0.015455446279138325,-0.007877533247172603,-0.2617483849568515
-0.02216879799181652,0.004664600089033014,-0.05353814031713477,-0.05629561085273715,-6.585084158661995E-5,-0.020382136849471502,-0.015073689531969142,-0.2512439004333243
-0.026143564836130853,0.001029070501806884,-0.05563742855095835,-0.05953657808682279,0.0032934223558082057,-0.025112935196229667,-0.027263676675520692,-0.2626646749078242
-0.02294340413102809,-0.016113549842930626,-0.05868765656122703,-0.05859067190482254,-0.004942981000889591,-0.018859358945060547,-0.026830115441900927,-0.2846157781882455
