0.08288513197826247,0.11137801248572302,0.12256759052411693,0.14480292720055485,0.07492412710153301,0.0711414681182598,0.08504527838994362,1.6246153365409168
0.06486320169595693,0.12816634431047977,0.09728438344661504,0.11279254880609292,0.05973481901013473,0.055621368752489415,0.07445418703710913,1.6680315192532316
0.02424775792979698,0.10670020382034202,0.06457865813988876,0.053062023959086546,0.04090459677474802,0.01669829914748283,0.033264724745644236,1.691740109211722
0.094571183041749,0.11143055345848911,0.14524803915678333,0.15033209627374944,0.08300378983009006,0.07551577314197411,0.09172847516843334,1.6624603335879258
0.10345908688760358,0.11424949946016909,0.15125798827159326,0.16575976402776102,0.11183163445041149,0.11598656395732392,0.09757604514049693,1.6454507788494424
0.08535106327277582,0.11868966381284009,0.13010532837779937,0.13562243818634884,0.07892661316738009,0.08517558501684015,0.0972027240740643,1.675969366766828
0.05448953289615546,0.09795576461747788,0.08876189164893189,0.07980040588229544,0.06046123732091916,0.04928365462210026,0.0375907337124797,1.6105741085594742
0.1190991676425018,0.10771170610018779,0.16291204417862917,0.19590824235918994,0.10575382709802132,0.10817097006967337,0.10254608713988317,1.6062246658614436
0.11987208497830434,0.10609297026138441,0.1644290112010868,0.18727186938600476,0.1023261010901129,0.12404880089368883,0.1327517269757645,1.62237464762498
0.09860175051273666,0.12078183637135922,0.13660749905888475,0.15594639623940734,0.1088146057829391,0.11247011583324974,0.13312055248544374,1.5506665749794497
0.0502757602975691,0.11161350267144034,0.08295564907780775,0.09088784495857397,0.083569909640425,0.060820586283512196,0.06072512659500088,1.6856939706256642
0.11971236203379176,0.09528099886415266,0.16362147321786197,0.19474853272286943,0.10556349149010848,0.1265603063351969,0.13852554884075816,1.6133496532487144
0.1185903056458378,0.10410234433652218,0.16854294677061354,0.18864523102205158,0.11738213231090404,0.14755865135908466,0.1586767689195824,1.6670914471920255
0.11453166906760268,0.11490422380233252,0.13697612779353155,0.14308826781217127,0.1028291903809979,0.11741142641239871,0.1253609871222712,1.6333822600690915
0.07052540685100812,0.12038817513445718,0.08754682783690546,0.08341753522424665,0.0864897870174126,0.07618361197639088,0.09035305578718716,1.6613545962666016
0.114134510590259,0.1108195866330727,0.11675240940683591,0.14309006050113138,0.10851071750739283,0.09387929116944303,0.13262834444625238,1.656146428196048
0.14566360526430028,0.09922080152922072,0.148362274859203,0.15732799287378968,0.14025616760568896,0.14624458527730005,0.17523513943563335,1.6162868320241013
0.10337531650577678,0.10094159004166653,0.1397837147980081,0.12945017488533533,0.10646728720468071,0.13767058299286145,0.15041757192877397,1.6759209129274675
0.07146439136773182,0.1319006102873248,0.08997989141985006,0.06584848500061533,0.08506069261081907,0.09917479901323226,0.08721126024575408,1.6635249675643389
0.09849589239202904,0.11995494824259406,0.10070444323451284,0.09137783346707605,0.10282029703343973,0.09150007368651675,0.09088718142381531,1.698867489641403
0.12610074167370397,0.11291461540101301,0.15525250921373612,0.14266294666781473,0.13733400018042843,0.13713326026381603,0.14903478025150915,1.6899571029875955
0.11253076647151244,0.11979575060011331,0.12902011073762087,0.11041463725041817,0.12139904389888194,0.12581800734578064,0.11760438152728611,1.5935890065440226
0.06044097736559093,0.11512103534608886,0.06798047042729274,0.03930388583189529,0.08246731765272375,0.08317285155762442,0.07273502169934569,1.7260316124513264
0.07214064672634056,0.11497742978856532,0.052446952414530255,0.03109118669962598,0.09066706861417448,0.055452874764947785,0.03635333450614523,1.6641706450051679
0.1436828934891055,0.10115055531968187,0.1369829280255797,0.14881377672583102,0.1296152891774207,0.12232097597491795,0.1625861300466486,1.6580189214271133
0.11495232671888789,0.11013967322188563,0.12940688855848936,0.12870336906998733,0.11506834005792559,0.10935430382896924,0.10584413560562804,1.7144447383379062
0.09440476660424685,0.09374104113691682,0.08922483548532946,0.0600842189623304,0.10150992180081095,0.08828728230465496,0.07414665747335003,1.7210591117334737
0.041673150920066036,0.11720304831356333,0.01972142458843886,-0.008270461687299278,0.07823132400359355,0.03734032319599066,0.03088851233550947,1.5877786134233156
0.11969672905729985,0.11337840537480373,0.10880547344752364,0.09990783858886096,0.0953182634127759,0.09598015215438634,0.08258161049586843,1.5970308773640378
0.1267805503376137,0.10127254184045384,0.12646232329004553,0.1200029878033707,0.10392931800550108,0.09679734898467995,0.09738119462154074,1.6484116137794462
0.11008084416142448,0.11319130277820126,0.08527847144222425,0.08545166513354217,0.07255870612587641,0.08413295355736403,0.06801078188834564,1.635476347479941
0.06366321259538994,0.10555442602241225,0.03272483160009395,0.008408369417119886,0.07570037562910052,0.03971004254505715,0.022067357244383343,1.6758784787966752
0.05608435039391897,0.11572229597283999,0.028733286520803012,-0.013843819713897141,0.0551342479527318,0.009284549713212884,-0.01867207774812903,1.632151459605873
0.12480154826612477,0.10345662006584873,0.1029463995096981,0.10907338492845571,0.06865420353622399,0.06625392150636242,0.08528709974872102,1.6727991269690878
0.1078179282986254,0.11295619335630151,0.09816362862139154,0.08398646640036384,0.07073169172471733,0.06841520522877427,0.05599017035406146,1.692708441296847
0.07716549043201296,0.09761925582069582,0.057952918563832556,0.037714731420897575,0.0735881687121123,0.03935150715095841,0.00904456344848954,1.6291687415152685
0.004722369539833105,0.11304084609828301,-0.012544608233230515,-0.050898998849423345,0.04754949124412133,-0.015597161615739916,-0.037365874405192505,1.5782502032985362
0.09983299310231715,0.1052467253239376,0.07305512638677962,0.05068289275880821,0.07276943090283981,0.027649737782978853,0.019506955263153342,1.7133033143303489
0.09348633274832739,0.09805058434832577,0.0778340998024103,0.058047554543838614,0.07935366383777862,0.04764768242186111,0.06312082973312742,1.638772640849849
0.07229619712684093,0.10469052239447099,0.051366993193133995,0.0034641726377801435,0.06300864368818143,0.018935484972048576,-0.0025649817918878986,1.7329358194000322
0.029283918102491677,0.11611338352338776,7.632577654562815E-4,-0.0637561637201606,0.03679376883059344,-0.02381787376653886,-0.04776804126359428,1.6727221741312341
0.009661629443849682,0.11177213676916825,-0.019061231908390992,-0.07731160505220601,0.02736970292694336,-0.056726601277847635,-0.06846799984285647,1.627014880133298
0.07857987715454569,0.11121956686430202,0.07076815448856888,0.03796320719102639,0.07379688095274199,0.022194566634254283,0.033537067862292526,1.62622647400428
0.06617285355946607,0.12412966776410403,0.029464032918610515,-0.005311274204250617,0.08272499954541336,0.01944174629644058,0.01262816324161691,1.6205271919010595
0.01745782613158652,0.12776296106098609,-0.0048903893783513504,-0.06493144197810516,0.04191683515085861,-0.027243850995108836,-0.05737839392815612,1.6457788804859597
-0.022397006833784244,0.1286275049344947,-0.051609686740707636,-0.1142338568512247,0.00490945698621207,-0.06976649044948323,-0.1120731996121474,1.6278220679171682
0.06293212966389633,0.09725908440613182,0.04839901308843235,5.48575841846845E-4,0.05532366126026326,0.01012190596279027,0.007901261962497385,1.7124057428713373
0.03898658934157822,0.12454738656962788,0.02688840582549223,-0.011528367099749566,0.04938149044816276,-0.006327794162078617,-0.014962721285110041,1.5892426657593233
0.010520799106017489,0.1107925268187017,-0.011917913177131121,-0.03933824956445626,0.02340610873631131,-0.04825578066415347,-0.054681040276534996,1.6646521451677105
-0.005615927370349912,0.12739490394674371,-0.03838615793841052,-0.07712155599192107,0.004130962619048705,-0.08172081124413365,-0.09018817303549545,1.6870216295219458
0.0738495341749215,0.10706332595500155,0.05868241087830265,0.035202732214305775,0.011471512834846884,-0.02133543246941268,-0.006116942878223282,1.633281453760612
0.05598862834830277,0.12772558620805574,0.03922930360717875,0.0034350097286568186,0.029942485712386446,-0.015290183171195928,0.0016705858505080143,1.6946490194225252
0.026827589380588594,0.11463928908803886,0.0032153752914518196,-0.028445802925957966,0.031796516634088404,-0.023558834276838553,-0.04328914805413748,1.6149907742490583
0.048955127679823,0.08753092704393013,0.017222016785942897,0.015771305181560964,0.03104067480891618,-0.052709476452821334,-0.04945521131574346,1.6583913643217316
0.10702892760993586,0.08873811185816889,0.11898495753229082,0.08561926248425407,0.05576009113880069,0.034310811382016755,0.05466407615075232,1.6392142563597933
0.11125086843380878,0.09057107102293416,0.09137287049233589,0.07762952417270787,0.05065644155891633,0.019717220833870695,0.029451922673456726,1.6515469111903676
0.07463090970359611,0.11613548162032507,0.05076224451960583,0.031027923132328588,0.04126081743187279,-0.010781940881974934,-0.006405818941315575,1.6525624416399103
0.11940668546280851,0.10855990344492056,0.12264932593208734,0.13138058813965836,0.04773926639768456,0.052751738662346045,0.04630722045380918,1.6653750241049852
0.14650233404491764,0.09005634316585304,0.15286836017458377,0.15314479435909634,0.10368731414713554,0.10613580650065915,0.08928725315510766,1.660489758159976
0.1170161923019561,0.10833610385274658,0.13344386763347807,0.14031795742512107,0.09559676277006583,0.07020202015522,0.07501412420449932,1.5875445920859947
0.0966014217663396,0.11179918284028306,0.10575013183956722,0.09983224514511194,0.09695819249169199,0.05023679606263758,0.03573342754838364,1.62190298401908
0.17093685191580854,0.11384545252520056,0.19736372666882115,0.20656616444389894,0.12836298698056298,0.123135893890259,0.14899819154392363,1.6964432668415934
0.15761310880623963,0.10857683703060582,0.1947793631335064,0.19485098431751605,0.11769578278096594,0.1436465142204786,0.1464893415323211,1.7044178747028749
0.13559913260426645,0.10943093440568041,0.1644987150775024,0.16195956395777783,0.13189155808673148,0.09421259908195645,0.12454895500756981,1.693212426684368
0.11856069059168149,0.0880784406270348,0.13746747809361767,0.14039864044590275,0.11014564106261221,0.10692214465255759,0.12804929348055707,1.7213898459595611
0.20049780738473655,0.10266556611481237,0.21421578914625997,0.23860873337405392,0.16160333117452352,0.18126901929665967,0.20954821640582194,1.6521679408959289
0.17105274293135572,0.08724664616136867,0.20261624481893845,0.21952261395113154,0.15735995331503463,0.1700135441700069,0.1965402984456513,1.749486733519619
0.1472367733041341,0.10118617022244887,0.15705081742614405,0.17496726996550102,0.12941682738147955,0.16375088065120122,0.16412752231071995,1.663011466699243
0.10557366092479058,0.11872406224610882,0.11713859729287991,0.13377725910330496,0.13138379480079654,0.13829219217236438,0.13896285618894766,1.7270658985898406
0.18998426925541573,0.0929365508286281,0.21239651782409458,0.240446560709355,0.16107401392195456,0.22441508284750286,0.24159023426523,1.7572500321796012
0.17272362640061367,0.11056332802735104,0.19899293703434712,0.22806143813807103,0.17618036632961578,0.23467917697362561,0.23012602011496566,1.694444854609198
0.15107708741750078,0.13070730235842168,0.17221911786058344,0.18849480467211005,0.17088261133695554,0.19632108529276157,0.2089104452783827,1.6191194494376255
0.10637565658196287,0.12339998329488332,0.12086298254139004,0.13081931293029067,0.14168387968563942,0.15826721142225353,0.19736588108891234,1.7439273842079974
0.17157638128403258,0.10965889223375509,0.19846046805655057,0.2229507130264994,0.17116822749063043,0.23179936866537856,0.2525976247451903,1.739649921491991
0.1497488566425026,0.0927726688014167,0.18393689220883594,0.20826143474398243,0.18709611962979156,0.237504446152635,0.2548017429908405,1.7358516253662117
0.14210568009655855,0.11227314489880552,0.15939042300523784,0.17743332786787025,0.1916398783712681,0.2056953196601525,0.2423889201971833,1.6278252242289741
0.11232179278725836,0.11460869968722043,0.11887153348329983,0.14161822736504664,0.158026449560456,0.18615547591521955,0.18704462740687408,1.7907401786455766
0.18056692620978568,0.09630798403558564,0.21301941457910814,0.2431647462493036,0.1907885123459991,0.2590080036755855,0.2991944926822534,1.673426852345672
0.16034086132155984,0.1042274835807365,0.17993912869842435,0.22445025155019854,0.17774751398436558,0.2415592793071945,0.26353883916319826,1.7316036701896727
0.1282174078714653,0.12171852933211773,0.15347036121392424,0.1880732589364931,0.15702704638421364,0.2250403559960988,0.24975099476139298,1.7122182330446611
0.11245276966950905,0.11485252263308741,0.13036676653924265,0.1609246287141827,0.16142876344714543,0.202837725282527,0.2228286460912594,1.6682921330098708
0.19760263018737573,0.10044350283010021,0.21475097015641917,0.2550457180414402,0.19334361700339645,0.2800406249411234,0.306556052032861,1.6561732738952297
0.1853907404771188,0.09076909211303287,0.2112659568151216,0.23992521347975931,0.19545913629088724,0.2526081570276877,0.2962505686549463,1.75495273958591
0.15634945084047672,0.09723981363741986,0.18023283727655046,0.19662861129365275,0.16676340241707407,0.2416926149520659,0.2637731504758122,1.72940812670711
0.1256478998494751,0.11953013003792512,0.14990197947819725,0.17670857112005262,0.16132235196706063,0.2081084972036957,0.26761086030095227,1.674516733495566
0.19851006851400887,0.10368091457202865,0.259779145225959,0.2887145777024756,0.2318964788107576,0.2912097497480588,0.35086795411933547,1.7721862488980966
0.1977922752528321,0.10203353368250165,0.23301823660033477,0.2750483595891757,0.2169192105130695,0.29149753527960315,0.3258360472296766,1.6742544344273333
0.16731676627915584,0.09607460465453872,0.20945889787614014,0.23752555250434515,0.20375660526383432,0.2753381001077342,0.2948389311810716,1.774256695505447
0.12057254742432925,0.09612306503756368,0.1499612704204634,0.18001820819872028,0.18109297902588792,0.21974826838149344,0.246463023270024,1.577892816552707
0.20710476963703509,0.10705851318104016,0.25675035055400075,0.29868228551199816,0.19479633805876082,0.28903376341562204,0.33274379975576973,1.7451837328337108
0.21332665556804872,0.11271861320376629,0.2570241436576067,0.30863554688950456,0.21539976150592202,0.30057743037575035,0.3591320427104009,1.7262091142264224
0.17306869596357805,0.10821876452096915,0.22843874222090504,0.2788337232694427,0.19517010501343365,0.2973080299586603,0.35342934016298033,1.6572960129355423
0.13337224779749865,0.11430152215837032,0.1694988349027512,0.2032889677900806,0.18274659607308075,0.24561384357960617,0.2775276998462217,1.7248806569528905
0.15397662473916918,0.11109140281509246,0.19279202954357508,0.23647191708645005,0.19736730619372303,0.2573262573580276,0.318901444746685,1.7214631218418908
0.20258118243117604,0.09464566218573899,0.25973642972166355,0.31031814553695924,0.2319386504588972,0.3284722733659188,0.37952527479927356,1.7035299584421002
0.1651060772599045,0.1003045779087383,0.2459833131730545,0.28288880381865744,0.22372244392912585,0.3144822347802375,0.3499843230028166,1.7113155792516643
0.13754525280008134,0.11825415616116293,0.20585993674952482,0.22256034421100218,0.214331520067268,0.2709791094335038,0.30690979398031476,1.6416887512048024
0.11174241166542591,0.13711446201875796,0.15459719752313053,0.17483510751993883,0.18330711606451783,0.23885235077779382,0.2678652883215583,1.6546030489179397
0.1895964898868385,0.11714465556767806,0.253548409296689,0.2726606317780865,0.23557433466716848,0.29979480775329276,0.34253025825971495,1.6337501854617675
0.1584390203003548,0.12590263475611796,0.20527350880805956,0.26621243000979794,0.22013878995864136,0.2797500312464584,0.3218339599724166,1.7053359596875242
0.12125220704479873,0.1587777013869229,0.18607825656955973,0.22570978474194103,0.19052592404666674,0.24744100250946816,0.2799875243603176,1.6815155968244158
0.10101435124680389,0.12390162358634947,0.12873319680654197,0.18871456406117693,0.17430191688709618,0.2170285975389277,0.25942834266661663,1.6450163740850066
0.186081141853456,0.11150783401470064,0.24208771633499576,0.28447233114830767,0.20981556041082144,0.2992632517084555,0.32666722013914096,1.6864762426618907
0.14690542678237997,0.13037248407169397,0.20866341178099204,0.2479513433365425,0.20283702534055484,0.277518134115583,0.3265995641473923,1.7165574891448758
0.11687203992293853,0.11509996061827572,0.16084980278946034,0.21173606736148162,0.1748828899365473,0.22307672671704487,0.27435113823712404,1.7709530338022184
0.11117794455720784,0.12341735337038456,0.15349852629602606,0.17893442532260312,0.14985272012635037,0.21149159615778618,0.2362229555917268,1.625721131305218
0.19982479376522608,0.10470184198666779,0.2655288185399667,0.3129532606696261,0.2205821649695987,0.2877716031127456,0.34172104085441146,1.6681804757555108
0.16300143419061883,0.1084998523127001,0.22894275573175976,0.2861824297055312,0.21409661386187692,0.2782465216197925,0.34368204764955196,1.680667456352137
0.12434398422380115,0.13843339205961017,0.17847452316235163,0.22517102896157432,0.20406975265386929,0.2558066928451585,0.2855396288970546,1.644643584414637
0.10219640217726676,0.12507638893954795,0.15300227207242503,0.180661878838954,0.18626690224131967,0.22100898661926213,0.2232456933055752,1.6799223357320932
0.18184470576009445,0.09619161140196511,0.23546324655495876,0.28938902592774735,0.2125991565279804,0.29461763630906623,0.30293431304449386,1.7717288431410343
0.1437378319688313,0.10830753150641492,0.20089376305996065,0.25084937305051697,0.20089614683030285,0.2762306773671524,0.32577446699357393,1.726832932652812
0.11902900542306234,0.13095476573054704,0.1619620077548351,0.190415111322493,0.2167338848805455,0.22792080451779542,0.2740530803795669,1.7083889953803528
0.1222903520755456,0.12702572241100366,0.1688942207256141,0.20951040771707632,0.19943129003545626,0.23458132762911454,0.2888194876927777,1.7070868122153655
0.17124301851345544,0.1008967298047146,0.23342827550419154,0.2834794624775032,0.23106342803750898,0.29091400450970245,0.3421987816068052,1.6266413058387383
0.15554060509388018,0.10957266312485922,0.1961752365364673,0.2603478805505159,0.19816434606199693,0.27526725541041946,0.32561906669462376,1.680257870157171
0.10555431393857158,0.11280507041884018,0.1481405169500632,0.18679679165571605,0.20039070558271294,0.23937640861959986,0.268599306478525,1.5511785551017494
0.15382126501727855,0.12000614406809997,0.21823985793864173,0.27968693322862126,0.21424932717907344,0.2806459252137891,0.3239646937280035,1.7262387389447418
0.16842838352111567,0.11448217898765281,0.2131607944729401,0.2813219713273453,0.2392306766209718,0.30486875564682636,0.33861038716152253,1.723752743987253
0.1369022889898776,0.12268297136482798,0.18196907866932335,0.23717656252523223,0.20420866846450436,0.27196383897172366,0.32250443369524373,1.7420729322421462
0.09426422092533832,0.11528762261472243,0.1366035839666702,0.19810901698099453,0.17883768895244218,0.2435106389540115,0.27526809056471385,1.702829869033224
0.16745651331393546,0.12804430654225005,0.22703812471146115,0.29092988549235727,0.21527596603832855,0.28797713837543937,0.3662440893707604,1.7271928747166287
0.15660188018916982,0.11109089933991428,0.18759125058826506,0.251529511461562,0.21367854865513344,0.29857942362243833,0.35382618795984594,1.7195201034622816
0.10225442917690496,0.12774431205176304,0.14889217833970597,0.19719563128442485,0.1967858201290224,0.26850597225569656,0.3028575379133668,1.6617724547246877
0.11601274022381516,0.13684725126341085,0.14747692768109788,0.19317481374696685,0.20842251923310248,0.24226020028441075,0.3022498108465173,1.6915348533111627
0.16221643251818843,0.10317846853943154,0.21058670375036556,0.2684385893752578,0.20914366042425428,0.3108799490691856,0.3726419974126554,1.6892048993799582
0.1349499492362419,0.10905546388884195,0.1624101635021944,0.21881671297094488,0.21534932390448852,0.2926873463369695,0.3420619500796223,1.750015278600305
0.09490536972909047,0.12034042682548106,0.13239040520241482,0.15757831601648925,0.19709169918369246,0.23771412417622054,0.2714967505066564,1.6787812590759792
0.13129559831764118,0.11801293234889335,0.17536222031045218,0.2123215623868817,0.19115560349446084,0.26163539301162475,0.3140417759116845,1.817525559862371
0.14734362803911075,0.11024004841964982,0.18393951308283019,0.23594251457731058,0.20942296409633457,0.29526895397880426,0.3562649826221834,1.7211080959739817
0.12711448910457432,0.11694899331295038,0.15214087737664242,0.19421919756269082,0.1805841331545187,0.2719342190074152,0.3294678353868531,1.7408900785924648
0.08970634619645795,0.10355218603114337,0.10025086050110313,0.1419582433971154,0.18617227038459644,0.2472924062080375,0.288808102368667,1.7531099428233912
0.16468515567259612,0.10316002181205636,0.200891225327095,0.25159177526509463,0.20992349143582587,0.2974344715661862,0.369878385475346,1.6619273300450148
0.15399771865783052,0.1262530051237508,0.1750305686321287,0.2129171928312301,0.2160683513894435,0.3016369109378671,0.3505440655013655,1.737591208691615
0.1095189037945811,0.1133218095096034,0.13609396471778096,0.17811690907378852,0.20591527867126103,0.2615102097898511,0.33005610123939255,1.6808764998791723
0.1072644314943488,0.12126602378416222,0.1299585464580546,0.15560430120500177,0.1820712099454388,0.2432373975427807,0.27860231012163655,1.7111495804508334
0.17862034698896312,0.10295726914741328,0.22562448258235127,0.2695327226771724,0.21914171395445442,0.3201398287021119,0.38895772806632023,1.7361300634797667
0.16436727352814504,0.11085571823816558,0.19377410002825146,0.24293795310630892,0.23112720312975168,0.30324743031892853,0.3598145467391891,1.7240079930821939
0.13113035564345968,0.10614741426599222,0.16945647410900028,0.18755194344800247,0.23172966667589148,0.28600591503579453,0.32814778364153496,1.6856254614099826
0.14637698576189462,0.10324834576605697,0.1845644767230379,0.23387113908924748,0.18470371249831577,0.3099316987579947,0.35247137359207426,1.668171903995282
0.19504434125002348,0.09515319481771449,0.23455334220691032,0.2792087956432298,0.24485616578932312,0.3333843548094025,0.4077757317231791,1.6944477616082225
0.17228627292472462,0.10365932500157374,0.20618760672188888,0.24195138034581376,0.2106755310862675,0.3195753751494521,0.3880013226359458,1.7199679490751334
0.11951201018877342,0.1127747017650166,0.15075769857534152,0.1737577804563979,0.21242769292360245,0.28106634913804984,0.33675496343414535,1.688877984073583
0.1830072474639713,0.09640902462717334,0.21698623220236343,0.26563230588121345,0.2222000099483401,0.348844274244331,0.3848775156208378,1.7849728690188884
0.18744244074708266,0.1153198149726396,0.23631281158651776,0.27815196444989115,0.23020102278450108,0.35227699187264977,0.4061983762104099,1.6665239011479207
0.15341519858404082,0.10830733841734673,0.19947608228710154,0.2337083898884311,0.21940002330518066,0.3074379764365046,0.3772395542782293,1.838785333039039
0.12894026140861606,0.09627896057556043,0.14298052473794573,0.1755130743951753,0.19916452294424683,0.2819628057813914,0.3275588349537648,1.6493167049829403
0.18738587188620043,0.10665222014643894,0.2352774781341701,0.2808709831463012,0.2421683690441027,0.33235319439942745,0.4039035071551523,1.7280650933591146
0.1654086361872318,0.10330395238481153,0.22125266762654971,0.23571486040844689,0.2411203536470969,0.3418807862985912,0.41052678345282234,1.6855156233236042
0.14697276746096924,0.1020639089020873,0.18161728193840515,0.21540668782014882,0.23182306525389906,0.3142576049956356,0.3429650864603175,1.7419948570627521
0.12293615407226649,0.12057510979233269,0.15658063333447805,0.17337518492101162,0.2303662612832795,0.3088168790617503,0.33073048773203495,1.760110882948576
0.18778969314735947,0.1086820336488587,0.22306819261308933,0.26226289403227865,0.24099372461487592,0.3558911597588714,0.41285032466728583,1.6730449245270163
0.15602124929514716,0.11480076976922984,0.19145773385654932,0.22866087878853547,0.2428927782814207,0.3204559951819076,0.38680312801577943,1.7137801819178742
0.12552910236658324,0.10356782533143497,0.14441440582437873,0.17671364523306696,0.22091001077399902,0.2905201503247907,0.33877464879432045,1.7131760663434021
0.127433070197748,0.10012223834728814,0.1707047645384444,0.1866523975975911,0.23760567286095166,0.29762075087553586,0.3522101666850169,1.7983483721079905
0.1829993770469231,0.08650577634111521,0.2159710639354698,0.26675162054335744,0.2503755683362407,0.3534847954708268,0.4130207491548722,1.7313498445163302
0.17046388987896163,0.1017195338857893,0.19094692060311522,0.2238638484326257,0.24955972461203915,0.3361376918656412,0.3713317849656289,1.6715399937445905
0.12475091425740699,0.11007810129969099,0.13866104772967494,0.16946572222482195,0.24008179174674452,0.29558894419719683,0.34051128017462684,1.6712353160536608
0.19418632306010064,0.11333631781527433,0.2233966251740414,0.26440167838707795,0.25253326455403863,0.34287626770666396,0.41453972260758554,1.7321261001018085
0.21167801262563887,0.09065040175013776,0.24113471358233593,0.286775453461102,0.2528152856374008,0.3715858357044157,0.44164397692377466,1.7340575962210605
0.16868500058463565,0.10412106270135708,0.2127240335807103,0.2427480564746885,0.2403198280943271,0.3455179914911888,0.3996647857027924,1.70668632998437
0.1267057262748614,0.10706296354054368,0.16209556429452035,0.17399106292550692,0.234148085190214,0.3056680064786608,0.3397392991066282,1.7616809154738022
0.21414812931238267,0.09948831136183231,0.22880392186782256,0.30630436560242125,0.2584793304756896,0.3621092571041897,0.43971920128254016,1.7116380051565123
0.20124982972849112,0.09627397990462004,0.24395741744519736,0.28052774487507964,0.2593650941057108,0.35976313619719064,0.4385189593725686,1.725704241029158
0.17142245661727043,0.11371165122682426,0.20024566492205442,0.2367038956144621,0.24103647004387027,0.3225875216279027,0.3659976045972707,1.7392204168886662
0.15831660066345388,0.09074177523355444,0.17589431502803687,0.2182391367837373,0.20166400473095722,0.3007726217319914,0.36521392282182924,1.7328139122097637
0.21883747756538885,0.10027288452404633,0.2538206291615138,0.3057386469966985,0.2691998521950799,0.3640006598674656,0.43592091560910834,1.790029183447878
0.1963960538951693,0.10543014688215659,0.22497121716631546,0.2680651180183919,0.23743996464099248,0.3462556595405671,0.41537671780949753,1.740867067035926
0.149280318661742,0.13014767945023456,0.18834714721126583,0.21292354341588338,0.23038071924877287,0.3320458725906531,0.37612865717260374,1.7416785760215674
0.1605809780112358,0.11960864937830361,0.2134057788638211,0.23346030799535278,0.24915922770893825,0.3111048217224613,0.38746014064268186,1.7570966537690889
0.1990395410816101,0.1088077732008791,0.24330288163782712,0.27065442819709196,0.2546572891933539,0.36344234042036566,0.42869592022402025,1.6907139942548182
0.1777758360807545,0.1208467085931324,0.21021701126614512,0.2352293414490015,0.27876507573406173,0.35372511333341167,0.39647770035837177,1.7309408841393257
0.13585457649391747,0.10232477555997434,0.17612156990488848,0.18277797675944768,0.24543035760511464,0.31605032041758646,0.34013237909820326,1.7316933369740715
0.18792599727546977,0.09310639450867662,0.23036530837339497,0.27190023382363515,0.2521476318454063,0.35068095928449905,0.4177070961859883,1.7327481516670256
0.19474155561491502,0.11118424328444304,0.24088586295097647,0.26669795950921693,0.2596234089968031,0.3521930891389729,0.42048056843774057,1.8058212132713523
0.16475003823838583,0.1244997661074922,0.2025701341318412,0.21896044925979177,0.2548422727704546,0.32918455636541516,0.35785490041342377,1.7423068144533596
0.1411087027449289,0.12219353771774122,0.17315737391495326,0.22005284873627348,0.22174892215247913,0.29671849551529705,0.3512764076488362,1.8061250707729049
0.21439580763906013,0.1076173279534621,0.2840245427445065,0.3214219104294757,0.28086670973170585,0.3691021830382517,0.4391181503692849,1.7512882947362205
0.2114168623694776,0.11025326233962997,0.2328600132009264,0.27265052163692416,0.26234619946422666,0.3719119770307357,0.43330730953702185,1.7759940051505676
0.16568876687068157,0.11286134364405699,0.19236731538347376,0.22064119659400339,0.24771387053665822,0.32392814531834274,0.3850355013640973,1.763924585293749
0.20074978760662351,0.09555180251814048,0.24268011042411464,0.2804460104871756,0.2586727942069164,0.3458080320522103,0.4122861035972267,1.7398306693349836
0.2324213127514905,0.10383671910028718,0.2833864370870676,0.3324302290599775,0.29808703437854034,0.38091961903837923,0.44463738508048384,1.7369042873536424
0.19822720841078467,0.10130184230103756,0.25909838085506504,0.2907757094890999,0.29594527735615694,0.34570130903727825,0.40149973587606397,1.7745995313192464
0.1625122373320796,0.10648960934495025,0.22441742626641753,0.24606406668092887,0.2724841738787306,0.32308178543916144,0.38426278940695124,1.697673119061298
0.23960768985908318,0.10734182448497469,0.3144581312610552,0.36693261418326434,0.29901720181173874,0.4074887380628608,0.47766826593234757,1.770684676394598
0.21440366167452798,0.10164976291769716,0.2885378540463971,0.33589904923943503,0.3037500928252383,0.4051014552939309,0.4621056973147709,1.72119032844341
0.19494215629026795,0.12147985726050538,0.24621055299209094,0.28121447231345625,0.28082780846438427,0.3435093192417362,0.42509546534894005,1.6723092323306699
0.18799892783739855,0.1068516182179845,0.23927482193293625,0.2642626639118895,0.2560938870507166,0.34807828407007135,0.4013420536817846,1.6930114185030898
0.24638750501751072,0.10084051931113301,0.3109251463549322,0.3536958038806643,0.28080786038450634,0.400255336392262,0.4872095906880436,1.6998722025239743
0.22853978789194473,0.0822450572305966,0.2811350428071316,0.33293348994736405,0.2851598518601169,0.3845843880277054,0.45052177329720366,1.8152991489079944
0.1722297600139908,0.10638050395457535,0.2286873887950394,0.2711793279438332,0.2558160766757015,0.3468599975964464,0.40178295904935296,1.7766801556225191
0.2250263067691376,0.09182467140251589,0.2748415823480117,0.3187199932045383,0.2619890614195932,0.3594005397077852,0.4407226271448457,1.7699551087358234
0.2266902997338082,0.11398951915446867,0.3012240852789157,0.33984029765514345,0.2635882039906788,0.39309703261629664,0.46133683121662566,1.741935987314999
0.1957873885927944,0.11962283251589328,0.24739418093013252,0.292413430802301,0.26448291648406097,0.374501859836501,0.43227779409489114,1.7150807979770326
0.15336966800862226,0.12338804315081478,0.2145768797601304,0.2401376027506442,0.2513707614644088,0.34178484877033904,0.37110025922304113,1.675968341141237
0.22960081680940528,0.11583166015918311,0.29276571517752575,0.35781746264856684,0.27182636453368425,0.3770074603912752,0.4437992955059715,1.7605580515749546
0.2007145891096475,0.09978809847296519,0.26455212084548074,0.30994514878997764,0.2968485633462087,0.33611074600039736,0.42666791375737356,1.6816392589935092
0.1682024752588939,0.10909497165847248,0.23241526290433245,0.25173596088776784,0.274132894608875,0.32086887832802247,0.380076650747405,1.7443482173481597
0.1932539979827068,0.10962428261148431,0.2568777612084435,0.29497603415118845,0.27415237190590874,0.3434228024696063,0.3877583216953225,1.79467307438852
0.22217171168759045,0.11172569779123821,0.28931064528214306,0.3516973226432306,0.293062367742708,0.3815806000282556,0.44898422127252663,1.7156309588540601
0.1942210613329712,0.1108607634859941,0.24971156086474355,0.290599526774696,0.2616866079319157,0.352239605163438,0.41710538846512785,1.7651957457894936
0.15957857571930784,0.13962735859176056,0.21052035716056935,0.24504738570314172,0.24879237420163242,0.32512743287098966,0.3697989727639236,1.709884213304859
0.24380139030053868,0.09488879886138646,0.31645605629722073,0.3613600906445744,0.2871798953145898,0.40273544631787406,0.4488920423788986,1.683374736390655
0.22878844259002687,0.11292456474578963,0.2889117517222027,0.33612915463863735,0.29624336061008494,0.36755638439431776,0.46196074649762,1.7368003863874188
0.18363132462039858,0.10487550658309268,0.2426351778061196,0.29030113318505923,0.2702693770905689,0.352803374672335,0.37481722463251277,1.7652915765244361
0.21941751355194114,0.1030456224719577,0.27429229860782434,0.3361670939232325,0.27267520104544446,0.35637305438892736,0.4046544199340138,1.782845925038976
0.26401340817000635,0.10523674942462856,0.3235066203119471,0.3912527614734429,0.2961730104749238,0.40695706859520986,0.493177309108305,1.7838386207429735
0.22875929193765307,0.11787054712550951,0.296982477723241,0.3588940841743986,0.29912796655832163,0.3707756145345572,0.42853525300784734,1.6965696777186992
0.20428240655590993,0.10799158373102984,0.25823437929640375,0.30741953685911977,0.26748023595320036,0.33548709538064003,0.3845335412905166,1.6921111229479873
0.2897131433758433,0.11784455096066841,0.3465911324238985,0.4331020059871671,0.3154615563087226,0.42511622812251604,0.4656016761375603,1.7545302678425043
0.2543302609161846,0.11237769608507842,0.3173032397575726,0.38709186173122845,0.29165601841221755,0.41225129536778526,0.4694495302435645,1.7326023996397337
0.22579709728938452,0.10869228195518714,0.29240863729302696,0.33806381909967986,0.3023575935469242,0.3782576173511729,0.4181703309553262,1.7574135631357402
0.23382912568033826,0.10036628843861567,0.3076300084811664,0.3818967645463839,0.3033483997666656,0.4020754388019599,0.45195736695440514,1.772687474364248
0.2827117569498427,0.08750956652278104,0.3506923535749816,0.41993565231415275,0.3242559481103635,0.427985868487669,0.5095637739086201,1.678319591303849
0.23674382980988612,0.10506376705872458,0.30644711062772645,0.3657854652082784,0.30067437267565933,0.3997892502233057,0.45614052837030766,1.6827738084702144
0.1962937479131656,0.10906584321492875,0.26732849738432163,0.3323214495792823,0.27375742057581165,0.37003665265461977,0.4035107185505312,1.7356451293246897
0.2641990754058574,0.11300981409479496,0.32880392377674117,0.406029931329341,0.3159326894924062,0.42092179026796783,0.49462663071173163,1.7223022137480561
0.23463663086065864,0.09656825450244451,0.29069957439608585,0.3746921696393899,0.3150098206709506,0.39815011418504515,0.4648141173121274,1.7221548903960022
0.21454055496414726,0.09576729499221301,0.2629146223035565,0.30775977127836235,0.29872390802042803,0.35128736967260704,0.4209346624009722,1.7202209470799743
0.2420709631516983,0.11193086617483136,0.2907396170911443,0.363113903009385,0.28449679229601593,0.35859685721893414,0.43086965821793777,1.74360172296533
0.24600931602049925,0.12702155218213618,0.31587686275469473,0.38107764158422924,0.3229723258796488,0.40555018415396976,0.46359139159869983,1.8400792454593673
0.2145712395874154,0.11996307788406249,0.2625162679129414,0.3331170417904762,0.2890538001054567,0.3799337530661801,0.42420256775899895,1.7877555728523646
0.21032411341637675,0.12057796794648044,0.2560857235298917,0.3107115388996431,0.277596291456127,0.35026991272296154,0.3884048323281639,1.7660184352699488
0.26740099293403136,0.105038780614756,0.33227711132782195,0.4144194219055112,0.29775991339744184,0.42151340847036056,0.4745864242000536,1.7602520781919666
0.24227801076322183,0.1060887301754185,0.29061501135235546,0.3588170100054038,0.29933104264988636,0.3988385256357362,0.450030588157534,1.7757614351201716
0.20012961728579837,0.09945397852581528,0.2429020628376001,0.3034105285130713,0.26074295487067206,0.3430909888120366,0.3815282176441757,1.8257217909476453
0.27292777943337165,0.11252017071195484,0.34470432768018044,0.39631350005315075,0.29169400265746986,0.38301290342703753,0.4614589286585437,1.7596673596493602
0.2687482899060347,0.10214674508890606,0.3311370636348436,0.40161440415475685,0.2826933307546337,0.40028495510515366,0.4941873786637043,1.711975487262377
0.2496597196240775,0.12126430563007852,0.29034363510884825,0.3430114203714871,0.264183183491861,0.36388119392877993,0.41433595001398194,1.7095072345727116
0.22485553623485546,0.13741125323423697,0.28112056433618104,0.33612508948936426,0.2750981408205854,0.32962761733150775,0.41280242637101283,1.6708883891530033
0.2879192180906466,0.11049278906556523,0.34907639803990415,0.420642354750142,0.30306920574276264,0.41980385481832355,0.49091755351925515,1.8010408693372697
0.2558103070500099,0.12966955823580248,0.328305668519858,0.3905118328123615,0.3158789512516937,0.38274844526744933,0.437680456689027,1.677705573411182
0.22105084106688105,0.1240994931104841,0.26661699549703466,0.31642043479555665,0.2572646271295326,0.3535322534676693,0.4051445286204749,1.7265631964227541
0.27233469131192223,0.12824715736097997,0.3475307027642329,0.40948204315605435,0.29779072552390784,0.4016368430466502,0.4584312554564513,1.6713301477508582
0.28033841531460835,0.10231472314367927,0.3389182029794175,0.4018529709747407,0.3124997546953466,0.4168333905625521,0.45549226053212805,1.66985316499227
0.23834091621862816,0.14047931634565325,0.30044819280917906,0.35730514664833957,0.2844494639221939,0.3657903874475654,0.40501152876947005,1.7087539069910263
0.2138385828212025,0.14264083762680385,0.2745170550646147,0.3210694834009185,0.28417349523438856,0.34124601613215616,0.3776003597753763,1.6163149975736428
0.29003598034693473,0.11621007729236206,0.36054638326602145,0.41615098210305784,0.31557799644574486,0.4084747442603317,0.46840872719271137,1.6011835307213247
0.2589779141194638,0.11425153865076741,0.33107806870580436,0.3809142467060362,0.2760859078248784,0.3857798114855283,0.42957925176387246,1.63550784429192
0.21250759708811903,0.12042558422130183,0.27449920152313917,0.3262420350946588,0.2726109618380416,0.33782941055827576,0.35167210262045284,1.6328867321633913
0.24658623017888387,0.10997081179957244,0.3221401616620642,0.38956809723672386,0.27561226358977803,0.32117608040323103,0.37397036510632864,1.7836916019735192
0.263940920910643,0.1361071762291451,0.3288453710372853,0.39820588138995205,0.294861037446603,0.3737457477090445,0.41532345177703084,1.6363548360779492
0.23454184196372033,0.12239660046538504,0.30269643614684244,0.3588088991453481,0.3027513483039676,0.35819218396678615,0.4126084873158207,1.7956480122697047
0.20953647882044554,0.10381984996091692,0.2711250707077017,0.32957755796029375,0.2696572432659466,0.31035261624273525,0.36488538744946813,1.779060256207124
0.26818842559672507,0.08800931138744886,0.3418713932664613,0.42658616632195573,0.2944036287886208,0.386913179113621,0.45301224525565453,1.7198264932173872
0.23897719349088017,0.10903475220982241,0.30160934926019606,0.36828374859680096,0.29471090905782427,0.3534083811891658,0.42666922523031264,1.6911093820243175
0.19699081571617233,0.10434781659279754,0.2552507967484246,0.2921528485888815,0.26964842022034696,0.2996512115357653,0.3495290607921664,1.7043759910688672
0.2599213321706829,0.10670099994975785,0.3252779456088291,0.3963224147002276,0.2958372012785381,0.35570316514134315,0.40462522838979986,1.7083981334309744
0.25922254904670633,0.10731055815327865,0.3230460778289429,0.3647474767979596,0.2909234182043831,0.3623563960043885,0.4433853275038946,1.7271540288255138
0.2213934096726029,0.10350814547773483,0.26478750354352276,0.3211120926918318,0.2842909097764693,0.33886990943525774,0.4133937054295425,1.721940824865142
0.21598086394378294,0.10765208959004736,0.26535703293810736,0.3134869101449465,0.26418253784722695,0.3245025335171157,0.3721761095378654,1.6966794230183657
0.2785738768562188,0.09318916348532469,0.34478501851895493,0.37838467727665664,0.2981892655417172,0.380669000496193,0.43455016676838387,1.6629567180276619
0.2418195061829738,0.09137932141797146,0.3072538748008025,0.3327818829055064,0.27691066736724324,0.3480852602556781,0.39626757712700844,1.7358622521034675
0.19674637582785143,0.11079862894866567,0.2542181792875939,0.2758972128654518,0.26268190970883626,0.31968439453884334,0.36409351430767267,1.7345872881854585
0.26764065731684084,0.10359792299911318,0.3175892111859477,0.38574380360010496,0.3133356324390163,0.35772456566438915,0.4578037745185628,1.8037201979166262
0.24928327334937656,0.11723193094410311,0.3080712179167781,0.35678621985469594,0.30578802362636986,0.3713533594570714,0.4339203531289182,1.7282517900222443
0.20685802330178069,0.13892820011367302,0.28082051085496523,0.29569866835380226,0.2753952778155143,0.3441600458574756,0.3966081169047897,1.7099831181653116
0.20854239728242835,0.11544910716595479,0.273627030340525,0.2946979802620735,0.3000742953965791,0.32300649796297687,0.36741146149011344,1.7207563792124358
0.26037794553572324,0.11300786701591228,0.32646881786792065,0.3611791893633982,0.3164934881954501,0.37669348207405984,0.4354291369508333,1.7191857283488559
0.2339837430471597,0.11949118434211503,0.27507965201441986,0.32166474894078845,0.3095412093024682,0.341637511111742,0.41009069364297435,1.7851651549057006
0.1919143250810241,0.12943696190256845,0.23167423659998537,0.24961762118368383,0.2855689459168244,0.31601274335939666,0.3659855662161811,1.717224958510394
0.24498051478778493,0.11209866840723932,0.3128356586461961,0.3589662845225858,0.3065367524881671,0.3666846639607668,0.4180569217740349,1.7498150874064866
0.22034078321115458,0.11077439351535649,0.2760523854056449,0.3062130271577235,0.2955586694899917,0.38057969701233646,0.4265534128861419,1.6537812453325198
0.18317262340949983,0.1276944514635242,0.23706784900969544,0.23974938638317925,0.2630240170114238,0.3268724187755716,0.36838307856764,1.7885332969061798
0.20713910667009844,0.13465532904292454,0.2591457715317595,0.2880603630150588,0.27024552622663806,0.32567681454080655,0.36108812545991636,1.7940259277266424
0.2392531372225498,0.09890205897642448,0.2989536378105231,0.33002509879975234,0.3010604667623927,0.36139622272400795,0.41936693488153204,1.695604740070857
0.2018664986095557,0.12123857333963774,0.2564233427587222,0.26113422608939885,0.27990932236449123,0.3241686210619384,0.3757310710785724,1.7011993670607266
0.14927243557480877,0.13156906404055568,0.20680475546607674,0.21599710101084202,0.28463062276307166,0.28859697264347545,0.33083650562979916,1.7981009580701535
0.25136874281222144,0.1190661174454772,0.3097110913017558,0.3368967416219147,0.31483523779295286,0.38047577609529915,0.43850749098304304,1.7536739565284296
0.21632353778959743,0.12793466074874202,0.2640469006979279,0.2901519171282662,0.29828547712090164,0.34931432071098784,0.4149427243132674,1.7279189478518375
0.1764467358725936,0.11326359671604531,0.22036744009950465,0.22840131555881346,0.2838446666540755,0.3173824274387577,0.36121439872526784,1.7324495560256619
0.2005124554623887,0.10571932233400345,0.24157378070070773,0.2736314623317602,0.2971947528037817,0.31160677248928215,0.35476337389213647,1.804626167816347
0.2429440718354211,0.11767703654508606,0.3035684333527704,0.3181800702974279,0.2991238726080407,0.39865244657348375,0.42420622529001706,1.748354937835971
0.20270824784435593,0.11390312166813665,0.2587219933984322,0.2736887986466985,0.30965292302139724,0.3190421535898186,0.3950080206143957,1.7084220515477049
0.15815115878430477,0.12256052537342793,0.20293174043242437,0.2001960835363138,0.28338341370309794,0.30579674302173543,0.34446001631816686,1.6862453269477338
0.2382019980838704,0.10689359624608,0.30711816594283503,0.33606881779378794,0.33393570881091444,0.3952162343105264,0.4493537948372168,1.7450378606239234
0.21102046655216447,0.12566326513802656,0.26849511973923135,0.3074102798681429,0.33650081400979875,0.373525975981435,0.4448706832060476,1.7579309368334912
0.18122686474108157,0.12457857859409523,0.2271125781022315,0.24147672286105246,0.31808130029187753,0.33928394022667513,0.38164932933411827,1.6419963248748088
0.19561051987648287,0.12207448682794016,0.23776767940984922,0.25017021844656373,0.31911282895627197,0.320635258675373,0.3788679145720237,1.6796917172846542
0.24253112232221274,0.12180016960320462,0.30417911114915486,0.3240925436651203,0.33192071894957736,0.3966892408875031,0.4834359901349695,1.782687284270344
0.20799299168168472,0.13624659590468247,0.27119420156517426,0.28861670645008275,0.3248465100822764,0.36257453098626957,0.43812751841181863,1.7098348355312267
0.16837442959829602,0.1324636313337874,0.21937069617851374,0.21706343054146401,0.3202928001457696,0.34147848184718105,0.36477748032057844,1.7049122771153153
0.23684316598957772,0.1035595367022486,0.2886707320457516,0.31044876782581027,0.3183034331273173,0.3897988453601042,0.4100430585904498,1.6925626012253765
0.2384527760493009,0.1233099901236511,0.2878627304561773,0.3241063549351246,0.3685656497613142,0.40672613871161106,0.4601089420768032,1.6954223507251558
0.2039777242113522,0.12989021917937932,0.2546886627776163,0.25268921069118633,0.34644738884045995,0.38757677189885237,0.4423700000638809,1.760571158277641
0.1625828602848857,0.12126505537302035,0.18858592474860755,0.1942004622684166,0.3191040310452438,0.33717613601924834,0.3605358089845772,1.7783486883473367
0.2391412296445231,0.09580909192204298,0.2852024134811517,0.3127139341815386,0.35962450975376536,0.409327715219671,0.44191681992604537,1.8038672190068197
0.19790747114965995,0.10593814882170852,0.24181917781673978,0.2612519636890842,0.3301452823270363,0.39213476664409724,0.4150732140658633,1.780619815187672
0.148474737145755,0.12452214016504579,0.1874462663341674,0.20078998751198596,0.30691551414910667,0.339337821409402,0.3728665213450726,1.6447201025748759
0.16266094548822968,0.11154963181281331,0.1882743126753946,0.20415725365311205,0.32357871220784096,0.33397217715290095,0.3635984320386593,1.6893691722632078
0.19283413195823,0.10554396126309121,0.24716575058064585,0.24780479888424262,0.355453563717031,0.38418514295237455,0.42986512183499154,1.6568295552297032
0.17243582874483349,0.09966766130205652,0.1986402782211284,0.18893609820204982,0.323409790796026,0.3362303046316144,0.35780670410934967,1.7189916705891701
0.116760007988847,0.11808268145925205,0.12569682309295277,0.12166484635822952,0.3139295827693196,0.27834507395479646,0.31012584862267273,1.772850209891664
0.19226269483514385,0.1067244244811822,0.22996494087118058,0.22984897752919692,0.31947872677482236,0.34543145793230334,0.396510450786972,1.721887464037373
0.16763683405414154,0.10241811439308755,0.19422820672530502,0.19804291732093046,0.32402705500789997,0.3426099112076952,0.3814295003637797,1.7620032237024783
0.13940228712711059,0.1157904873283567,0.1369809541256492,0.12117776551124321,0.2980748433135588,0.30187354013147866,0.3153317920224216,1.7826839579000269
0.13509385351400852,0.11235707589356896,0.16130366734689647,0.1655658727309382,0.2985792650688835,0.29612137093631347,0.3267603617000103,1.7906197008681206
0.16942710029441094,0.1039618409797007,0.21477332847254083,0.2072821750415383,0.32187060168006215,0.35872619721860055,0.3893397091098513,1.7034714951796703
0.14722697992864875,0.10446550182970056,0.16744539987693258,0.16422554243243287,0.3037927925113908,0.3353574768268581,0.3652848419347556,1.729127441265362
0.10308592222619409,0.12851255410900234,0.1073512716080129,0.09683089429401308,0.30596508038844994,0.278015979435099,0.297584689792939,1.7867236453276996
0.19567060116207452,0.09899395135191992,0.2278169054737443,0.2342406740307161,0.3559573575496108,0.37174974308686104,0.41864524415969884,1.8119785510516717
0.16947340334002636,0.10871106391676649,0.21140294857850864,0.21315342331042386,0.35586032016502234,0.3709696417856528,0.3910232216964811,1.6971855910504032
0.134275657049274,0.10623078214900437,0.14914411726795673,0.13677883642344524,0.3367650191998272,0.3135069125247423,0.3280153593353072,1.7854819140245126
0.15423493277632483,0.1029060436040465,0.18941129393704784,0.185104586941871,0.3514454563139607,0.32269633633821293,0.35583164860209326,1.7128334585602991
0.1847895003581687,0.09365238800845051,0.22151322513279506,0.23909378451845184,0.3633645830385688,0.36436176908413154,0.42294401787787517,1.7137545521889275
0.1563123667230974,0.10953188114628301,0.18809422766175593,0.1737379233651049,0.32623275354118186,0.344399968834597,0.36926210889169175,1.7586845835035132
0.09813891336047337,0.11451725261792349,0.13863465853596732,0.12666391709361036,0.3321389000430214,0.29283196460533073,0.3055752761517197,1.7564336955490378
0.19880164621311072,0.08376439011060445,0.24084651728030065,0.2550421818290688,0.3566649979739513,0.38717515473699066,0.4567081310879313,1.7408577399610436
0.17009352354246726,0.10605452013865864,0.21316122692684591,0.20118313190402543,0.3685502867134373,0.3741276842197651,0.4109244400517601,1.7128964793727552
0.1082991424792345,0.09737715599356637,0.1293555441141329,0.13953844013660824,0.3471589741046987,0.3174158643727653,0.3128173121523345,1.7123903808256702
0.10829763435349275,0.12633326677824477,0.16765646136479823,0.15361233022898915,0.3202803625290663,0.30167116768932695,0.30199342636502524,1.7891628816207525
0.1671568707936113,0.11387510860571261,0.22784525543724454,0.2236811365123775,0.3549169107129106,0.35636923544615173,0.40316920641570164,1.7422837787451881
0.130154769347124,0.12507501044859984,0.1754113334124494,0.15758723923276852,0.3295508059869588,0.31188256368523215,0.35945492066858686,1.7080827928510407
0.06238286616970455,0.12322434417366852,0.09541748286856852,0.09242375010061626,0.3067465473616462,0.2773266242384932,0.27100157183638385,1.7426044763831874
0.15321987793163452,0.1075414562209496,0.18730581692416567,0.20640547547882698,0.34413107164852735,0.33825077179933,0.3632693843400267,1.647509336299229
0.13519854490604485,0.1356929575965531,0.16874671147501205,0.1542425597974331,0.34846612700890034,0.33398074035293634,0.38111946342859143,1.7670898658482206
0.0955024121893775,0.11084309068443267,0.11569834365663384,0.10289325405243438,0.3219115012450495,0.28874957870556106,0.2987088449705758,1.727368493303758
0.09017178554364029,0.1399171205418869,0.11216066483076886,0.10401020382420846,0.3022441256637481,0.2706941787475627,0.2730751508157494,1.7168289517506763
0.14717950481815337,0.10036953668989694,0.20275706512099778,0.19303107020473748,0.36193784585999783,0.344358885098477,0.3737230922191525,1.7441202762651196
0.11808072795261695,0.12031106270144522,0.14222744801438802,0.13932952396628054,0.31933766004111375,0.30990566408529546,0.338571869444672,1.7522128948390123
0.06428358771728443,0.14320806582477177,0.08586162328160372,0.0750706228919397,0.30575038989142245,0.2565542727940744,0.25593202553343564,1.6557709534729892
0.14760306213974808,0.11647786608789558,0.18576654161021233,0.21026394766783396,0.32535689129834144,0.35165589539952663,0.35740525278602225,1.752100016964209
0.15421692760636976,0.11794529271404469,0.1858475108887845,0.1976987851299941,0.3517507064246729,0.3545084863155483,0.37979207053163094,1.7904650840852538
0.11894696792856264,0.1210743683781705,0.14354124658440645,0.14872210160610894,0.3104797985081288,0.31798398833152486,0.31968765291663576,1.7850316383806535
0.10079829658414538,0.13580948284994587,0.12462349703341564,0.12218889782850922,0.32930417194837447,0.29117551435793304,0.2886646416134075,1.7625417291376286
0.19841757897298878,0.11529971290976071,0.23421678708427857,0.2522562649451776,0.3864931696153698,0.3995027158718762,0.4316612613014849,1.802354441098183
0.14949228332025236,0.09288760936035959,0.20200215985882944,0.2084890609567826,0.38630276901458066,0.37622974094586586,0.3745827346173899,1.6686368332701171
0.12171744965214237,0.12622398248988484,0.14278306933129503,0.1324873109957427,0.3625569267829351,0.32877021069352086,0.3192435556474097,1.7516411784057626
0.15763393873081946,0.10131418997841174,0.20297492100202874,0.20238175699434077,0.38222093123806233,0.36122553827067805,0.35352083573710574,1.7497325132524928
0.19478963715863024,0.11124676431845473,0.24719431467523287,0.2502023144100512,0.4235703762233066,0.43634721129817255,0.43625703346353784,1.8222867182153397
0.1607440190755362,0.12046454358209384,0.2033147906897391,0.21154493785605072,0.39589818234440405,0.37719205737556816,0.38653479379379585,1.7972312544531353
0.10279497481935002,0.1117427040052013,0.14807979397936324,0.1228805560176433,0.36878390334346517,0.3181743150492416,0.331760006613889,1.754580927732168
0.19018880986433023,0.1192892541430695,0.248040140984808,0.2601737011113994,0.4027403736746757,0.43003077471063184,0.44370923064339407,1.7712706620337135
0.18431043822369736,0.11014255691233726,0.22673116862474157,0.25106001335480455,0.42141008498983823,0.4219985847439496,0.445983499277993,1.7730352019255362
0.14891979746594255,0.11450933572380369,0.19929786167311206,0.1964285960218868,0.3978757920267738,0.3783468861647537,0.3865625586968015,1.7569322024211695
0.10324728586524695,0.109156591874502,0.14485421632271228,0.12965113397194852,0.3688785838588235,0.32768205659387645,0.3533347384051336,1.7566830410728347
0.1958393845839162,0.11473246903887127,0.26038290008673126,0.2689268465871766,0.4424447975606654,0.44575236077717434,0.47421111528074217,1.796907550224325
0.16838635913234792,0.12774521096443942,0.2235270338827914,0.21439513317692147,0.4202130791201678,0.42897913826201856,0.43520298936176194,1.7239328863668277
0.13235855396025129,0.12831484570242624,0.17345123107350174,0.1721242888363008,0.41183854333924674,0.38688863139924157,0.380047222792879,1.8159393272116384
0.1032287844363396,0.10016859488246936,0.14017070133972775,0.11991592934755863,0.37221119285921506,0.3300839162326458,0.33945638984326104,1.8020399454048919
0.1753674763431989,0.11832519145710207,0.2320899197014529,0.23171675590735458,0.4165987911827789,0.46310241917708284,0.4577449115824034,1.702916908072738
0.15381868592597325,0.1079520249001773,0.19358323534408906,0.180160921395612,0.40768515660676213,0.40628411971710415,0.40083929710088106,1.7118743652093744
0.10350866105297352,0.1097115959188173,0.14142337966777882,0.12971728571582752,0.3710173369383083,0.35876395517077264,0.3411238887756607,1.797691443803839
0.10863212212048536,0.11876139474001783,0.154567988783335,0.14404120364652684,0.37371841733591327,0.35675169887226416,0.3609067295975735,1.7261838563954728
0.1768498523476126,0.13157113162617373,0.22705545290338594,0.24439128509042787,0.4105757572941034,0.4374148905845025,0.45706092181658664,1.7286808432416076
0.1406574713069664,0.11364370164486545,0.18131535143903105,0.18512467325394863,0.3979802182649083,0.3908040020144046,0.37884627881509164,1.7434996005978542
0.11027560382720968,0.11814622486847179,0.1134870220989189,0.12481287826504633,0.37108552143705276,0.35202073690891605,0.31815546822382323,1.7118263806231429
0.15328444164195862,0.1198847027971159,0.19654075502687157,0.20168541823365185,0.365358249737619,0.4019436446827899,0.37095184540321174,1.6422815742391557
0.1830618067642272,0.10251712439800069,0.2504014809834817,0.2585412253317156,0.4151486007854184,0.45388312139296666,0.4704127032718848,1.6841032059201961
0.16552227988092458,0.1109785618219774,0.22105878572706603,0.22736564415333607,0.39944043376986926,0.42892616642590187,0.4163979701296329,1.7343017994092216
0.10955192139139235,0.11877708553914898,0.15219097698244416,0.151219014756646,0.3872047464981784,0.3745520098017346,0.342216012096003,1.6900956930551545
0.20152888906793368,0.11958020322038268,0.2368258250414157,0.2582002784942289,0.40934239512832704,0.42494957031208547,0.42934923295479666,1.7045874159990724
0.2233405269407759,0.12156511096630437,0.27699932462246174,0.2933891107284274,0.44748939456941,0.48678895668822214,0.49009053593299096,1.7989872298123537
0.192556248108905,0.11293607337155073,0.23981166662040476,0.2660957721682347,0.42397423723200384,0.4584285403464117,0.4651445701233665,1.7039027939252187
0.1255303561359813,0.11995157705639524,0.18759589482090291,0.1921203081232261,0.39528098291559444,0.4118260880520079,0.3955710247849762,1.7732684456811973
0.20273491877418737,0.11035263764569779,0.2624054001651625,0.2973972668984363,0.4858069719729521,0.48532299711259624,0.47505875743684484,1.7576917537262462
0.23513992574746603,0.132123981376783,0.28292891071789333,0.3138750141552884,0.48862883297676896,0.5353026272294666,0.5376239760935932,1.825951350871438
0.1821330441023953,0.12064277134759897,0.26549137898497516,0.2662162315809684,0.462193056984396,0.5102302922957263,0.5175114401905417,1.8156445192636224
0.11911655037260573,0.13152414570251522,0.1906255708245693,0.18440701541095889,0.46221637613136596,0.45472655063655687,0.45220087255513886,1.6674879664564253
0.16452382900385315,0.1202862208666431,0.25523090733798476,0.2545782233751036,0.4796840676062145,0.4989236628002804,0.5074374479257346,1.7548304328132802
0.2077537004522109,0.11277851497622152,0.2979323609259566,0.33481216923987095,0.5060151775621134,0.5652819799498282,0.5740575405000831,1.8277893649176595
0.1699505764970225,0.1301342398460741,0.2538914760856968,0.2770085194819511,0.4963408789763965,0.5593083314225749,0.526409408528038,1.7634077216325288
0.11637712729655623,0.15167831698047227,0.18252866154381694,0.20024294613626328,0.4700047084667025,0.49646957138156456,0.4839879327283368,1.711771504428958
0.15570533330486014,0.12029436241489379,0.23891868896259508,0.25419276137239566,0.4823663125164513,0.5120824099603255,0.5217745657496019,1.7367277486990726
0.18395570487615323,0.1270386473568045,0.2732550581768765,0.28457267795622465,0.5259629194151302,0.5598963309892769,0.5913761146233194,1.788521097130266
0.1669000838546494,0.11463786065467065,0.234253511039175,0.2627315582771798,0.47797534167958416,0.513367352918716,0.5505585999423677,1.730777240647133
0.1250096278845532,0.13965457668044343,0.1705330449760237,0.188887899831661,0.46394927533656327,0.4381307098837296,0.471096410836894,1.6577760792560345
0.2044772927159279,0.12386514671517689,0.2813104703253347,0.29866061546133504,0.4854846562837931,0.5071239785686501,0.5181362347803565,1.795769475376305
0.23370051278636925,0.13531521523165657,0.2974212992017841,0.31958458690614233,0.49380407557425526,0.5054138363342222,0.533973067088562,1.7846072112749332
0.19157766286932731,0.136246074214174,0.26422414964238145,0.286712975906917,0.46223991990666086,0.4802522104209747,0.49268056842879515,1.6818689862178957
0.15364717778471976,0.1393546796945796,0.21778278330135953,0.23543173308101173,0.44013572004715307,0.4317008031311492,0.41077780087006294,1.6824064708258548
0.2489785411221067,0.09395464054421446,0.32747637224681503,0.3699884827105421,0.5012979819109266,0.5339947268847064,0.5496268186997882,1.6944990858813898
0.24224635135912576,0.11593488617361655,0.30672696200779515,0.35836682453601476,0.4631502404824446,0.5300340109945288,0.537908251896616,1.7365347100177726
0.21392015057502303,0.12539834388251456,0.26400391679718244,0.3003989279816506,0.45028455512757926,0.4923241085901694,0.5032758022992847,1.7458542498589746
0.1943776679556781,0.11233977805148986,0.2508623901721197,0.2832146272435593,0.42987750696632987,0.46750750214374215,0.4490069047094499,1.6379592091568926
0.30131999765117046,0.11770635833203878,0.3597214768333623,0.40655270170337515,0.5123087762529753,0.5840961559233687,0.5989646914090351,1.7623907010883968
0.2696018504658893,0.12128736377745129,0.3366301477402161,0.3605278083773458,0.5169621532744109,0.5690291768485061,0.5753263611963513,1.7446790698151668
0.22363940501635232,0.12480753044951323,0.2942936016593959,0.31227528422014506,0.47998891809370753,0.5178738916482264,0.5176395592464984,1.7586429051883163
0.2274933167171416,0.11557405850330349,0.2878916914827733,0.32676444486956296,0.4532471938023633,0.49419414734963385,0.5012645602800785,1.7391439994634708
0.2931980488866991,0.08165355784079094,0.3855963192314955,0.4327553767913779,0.519523355581817,0.6006811409258574,0.6378471708845633,1.7972813845238462
0.28515455712095983,0.10554226914911498,0.3520325076522174,0.3928911015596809,0.5117955070921216,0.569031269963648,0.5744447355243719,1.7342155499187366
0.23724607287486194,0.11578801878349149,0.2952444689342796,0.3186386234357755,0.47615922896895874,0.5212354121776037,0.5286660507158363,1.6146234184623567
0.2319443081206301,0.12024622816026379,0.2981889604610182,0.3180475239933021,0.4767635511987068,0.5045078894517769,0.49429026469501236,1.6801600772856755
0.30939948082692054,0.1044504561669806,0.3671705024082158,0.42113195520297714,0.5133430077144353,0.5900139221062239,0.6267918003847676,1.7256306784650333
0.27634856169047484,0.09475866612727414,0.3294310929171435,0.3779251563642688,0.4787109373952091,0.5662891425112905,0.5674307885449034,1.7883344014231022
0.23558393432583372,0.11262397675689277,0.28380485668610367,0.3101756487066626,0.46734149783642065,0.49572545753075997,0.5108099666056382,1.7153633277126827
0.21231180187592316,0.12574730435158618,0.2471371645066264,0.27228302320855186,0.43958062210753285,0.44728769747257846,0.45266797881038034,1.7918134950257414
0.2995885095680207,0.10639811668373056,0.3467657267122893,0.39321433758631624,0.4932855268582705,0.5529814342476073,0.5964693064108667,1.7087592752065148
0.2744789429531973,0.10796834443814306,0.3206556154442537,0.3503876509637256,0.4544389078999431,0.5169272728006414,0.5301780551467885,1.7744597703057554
0.2266364596928182,0.11962861296895876,0.2698689782512559,0.2788437345111667,0.4583027996420157,0.4787040326781645,0.476952402381012,1.7682081276901134
0.16522527919723118,0.11685106806783253,0.20845009355700625,0.20636373385860513,0.40796215697766014,0.39940772642307176,0.35635753237212625,1.741334127273644
0.27847548468145383,0.11654579934360051,0.3246342678258341,0.3524129124498244,0.44241637217701807,0.49445683560002807,0.535603407928188,1.724064238231991
0.25416606207443115,0.09842694604136032,0.3029377053729857,0.32157621543663734,0.442273324552111,0.46586726305377235,0.49648896185614977,1.7822973103974353
0.22551373763412108,0.10033975212262058,0.24725149065499988,0.2689964142857345,0.4173994381101527,0.46172160721852995,0.44845248703744356,1.8384837433881636
0.1710132890618235,0.12533064301682417,0.19093182565633457,0.18910572220837227,0.37418946870647896,0.3551793238750504,0.34062122647026993,1.725529634984954
0.24716467191251387,0.10782318479393832,0.31124785414603073,0.315662093865385,0.39524598780886466,0.42821828150348945,0.4425280523540105,1.8218453806436985
0.23614086530691808,0.1094777539479704,0.2769862588905912,0.29676872186533376,0.39461397315343655,0.45176944729692936,0.43038471718342375,1.688258816121943
0.2208839265133531,0.1110791845913538,0.24487627778074855,0.2525222931266622,0.37713704626674305,0.396719813585885,0.38431688761386684,1.8191974599936864
0.17151141999846506,0.11366314281142506,0.18396424137245615,0.19997952211619716,0.3540720668180994,0.33681574431012834,0.33342858496573896,1.7689510285157397
0.2779135858241496,0.0970765866050827,0.31292542835015213,0.35006412337654597,0.4045079618608513,0.4348096288839961,0.45903658203566716,1.665729097945215
0.2629692772575186,0.10072802705264906,0.299731431124392,0.33703898864352266,0.38332458905191297,0.4466197583377841,0.44612773072939316,1.7560910440064739
0.239642877857954,0.11058913855434815,0.27757499948844444,0.3007170996495431,0.38155224633732565,0.40336809507727645,0.37801047412779454,1.6909405607328527
0.19011712998985003,0.09270644183543562,0.21237003628478748,0.22424958400819395,0.3452426978574111,0.3398306616342901,0.33356881335094635,1.7823226721167316
0.31312503326648655,0.08078590920300838,0.34537581341959184,0.39741184264697765,0.41029688319498936,0.4833569633465002,0.5009451783427312,1.7227440456571468
0.2885471155984342,0.10057643806540092,0.3387930007604202,0.39134679973873404,0.43050177236468223,0.4718207054697807,0.5017547080066129,1.6916251026466
0.2590816264473904,0.0963215173809965,0.3154361157761263,0.3482006559756864,0.4023291817631012,0.4556070241024767,0.44578458497574786,1.7369545897763852
0.22800832960491274,0.08555580010897319,0.27423930524953843,0.3070060425904192,0.3724643246733651,0.4184940248483291,0.40154917569258347,1.7566998191875791
0.33088412241809845,0.1099468530050031,0.3972627274067532,0.4561305348324314,0.4514579869655459,0.5066252663232564,0.53648435396195,1.843533061688444
0.3219450607226646,0.09833582774764775,0.3800361360163025,0.4374327090641236,0.4584758485434158,0.5343509530846889,0.5354069557244137,1.8160011875480906
0.2944120354280187,0.11403143467213284,0.364433691219856,0.39542176181603694,0.44669887514146317,0.5201585857459985,0.5117972904765931,1.7331536578965003
0.2423875846271234,0.11630942115086071,0.3321726801439097,0.342422443107476,0.4217170746564114,0.45718822003762766,0.45108002163701627,1.7614496979517218
0.3475666716633061,0.0869226352174441,0.41404473908410633,0.4809717890469258,0.47354600356837234,0.5536884560638795,0.5570700418581029,1.7302017506062795
0.35702627265419384,0.0910163731676067,0.4241530401725114,0.45726186038080546,0.4630440902832316,0.5584486576298047,0.5932862978735376,1.7421464872540617
0.30901289338414456,0.08719735901778879,0.38180375957518076,0.4235001699953999,0.46902766991836087,0.5217869334308374,0.5499910066090553,1.7712616220500719
0.25556682297746175,0.11536583167341007,0.31465876865633474,0.3504014272512921,0.4282496187349664,0.4955628717822448,0.48406801233192825,1.6862480282270962
0.3177212451420707,0.10202518751269,0.41835279778275514,0.46502504814021883,0.4593656323512009,0.5242391412576649,0.5284298291354004,1.8244193584623438
0.3372913493342066,0.09170958522097104,0.42167886196610105,0.47386395971010536,0.5016247315631581,0.5696820603896803,0.5914337374858675,1.7165442868568825
0.31357878197343825,0.0879477374494394,0.4019325426986219,0.45648367103271925,0.4717038129053739,0.5478789078692136,0.574555535728404,1.6870635623441286
0.25236219227324413,0.09390100026255373,0.32626069099718996,0.36203999674269055,0.4470580370777194,0.49226953812863755,0.4829657299505273,1.6681103125440333
0.2743806705325924,0.10127656403657379,0.3643398307661269,0.39455716095156856,0.4306651492293461,0.4960487051263154,0.48859225332201056,1.7684547307893512
0.32591404365021304,0.0924745070567626,0.4127406093594941,0.4545440048354707,0.4850186103785188,0.5725108745399696,0.5930507533852556,1.7444390292538714
0.2987031880387311,0.09754212607026627,0.3740762735290439,0.4019213231428763,0.46514480386532103,0.5396347679089818,0.5475472820775591,1.7741382620983968
0.2672181185509539,0.10277604895363353,0.32211549791500727,0.3565449964412969,0.42755225284454507,0.46803301663090213,0.49984453097592435,1.7614080877137954
0.2640563462699697,0.08859613350060658,0.3309988772794239,0.3560512281036266,0.4140831653292603,0.4650933973221311,0.47335319371003876,1.6861609309171353
0.31912268086170864,0.08856170548433623,0.39966513155101463,0.43612295023331366,0.4505100554664893,0.566142280287545,0.5733765878863538,1.7366366136830353
0.2994228808603956,0.09062703931758433,0.37539423724793125,0.39735524080150986,0.41675702104254364,0.5103847048690717,0.5268675118336991,1.7954462996241816
0.2622542136448536,0.11365155685209574,0.31153241716847185,0.33022063245188216,0.41759128020312886,0.46640962832111943,0.4666927564769102,1.7263190720260708
0.2479007905545511,0.1046485551227154,0.32682948294115594,0.3482408648478272,0.3995181370553223,0.4547328668149247,0.46952874849498616,1.8087687279368752
0.32386268576487537,0.10384335481457405,0.4126602181259417,0.4672768287293988,0.45997109207977954,0.5601964041220427,0.5742105200338408,1.7499696371419733
0.3081410260528855,0.09610031247186249,0.3843863611393419,0.41787991413381503,0.4439639856957442,0.5287333124857457,0.555828347852165,1.7125364869985522
0.2572747368900386,0.09956585728094598,0.33172597365000744,0.33650437154083923,0.4167495824025435,0.48998076922470946,0.4757341199927395,1.7735087638553502
0.22039949973975217,0.11742408707786949,0.3000970576016201,0.30310614471552694,0.38396512867942123,0.4577958624851539,0.4435931080113308,1.789341601917371
0.3194905668007453,0.10217453641961174,0.40858697232429114,0.4473905963777753,0.4825462481140836,0.5509139048274703,0.5824109506771209,1.7408319917284987
0.2954756421550704,0.08902234968531991,0.38186307759073174,0.41767909915574697,0.4663695104575622,0.5344401764952112,0.5533326867008109,1.7318527984514336
0.2597575518915492,0.10284240053739956,0.3219122362310756,0.3643661146899275,0.4427561426892674,0.5008258223249997,0.5020640380007245,1.7859878959332665
0.192047207900452,0.10535070934025852,0.2589321980770506,0.2688033539249725,0.38795235266251465,0.4211493791492557,0.403213394301023,1.725482191862072
0.28460181168815957,0.09728391454407595,0.3825335839262553,0.4065479695418059,0.42709626078813473,0.4871992869178805,0.5234392846981353,1.763753671865888
0.29356466434349016,0.08348589004462434,0.3843547336931853,0.43070285006180575,0.4224544804956944,0.5346208942876272,0.5419814786826468,1.799397458315506
0.27092172395216274,0.10822187076591656,0.34379171524133606,0.38200804394601817,0.43765846420107574,0.5008674407183185,0.5121987971670892,1.7263258266817816
0.2209963638932182,0.1009242047448414,0.2851023609046111,0.30081485088263044,0.3807311411513612,0.43959978150888246,0.43903517168748196,1.7032883021367153
0.1704337144666805,0.13620916741645647,0.23771803366295025,0.25096249204686005,0.35113894507230287,0.3934274294302105,0.3744536562604554,1.7757698060445408
0.29682657722447586,0.0964856763757366,0.3766725651209458,0.413526850107323,0.4139065302796735,0.4958462739472338,0.519596625832064,1.7278106632284163
0.2749202313309358,0.09809560855995093,0.3523929214773374,0.3956857806753345,0.3900111862306627,0.48088209905753704,0.4871742936633895,1.7460820708006484
0.2381326415860333,0.11634090800718237,0.2976605688200977,0.3307980869636516,0.3705464917651977,0.4496270493341661,0.42843974984101285,1.8366914381222634
0.17965915119265255,0.1437836083322781,0.2367115989772145,0.24743362843904324,0.34723135396845906,0.35690045725957475,0.3600973993222671,1.793469443308684
0.1977991024772345,0.12029578855232571,0.2659632563050977,0.2744773086389792,0.3393203026211391,0.3504558366488581,0.3318620918516378,1.7383848515199565
0.2697924785153635,0.10709097241090042,0.33862449104554065,0.3712945185373097,0.3756038595122337,0.4486802107621562,0.452497980152614,1.733289399046269
0.22791849868825625,0.11500522775964879,0.2967442548581906,0.33661963791878063,0.3585817856339637,0.41093883720755575,0.41717868647228634,1.6858979615586231
0.20345769729830313,0.11065455955751527,0.24988928097433316,0.27817373085391683,0.34682836085987956,0.3618477751734215,0.3639751423354051,1.7537525309986757
0.13014641145496544,0.1286594697140594,0.17200571373694343,0.17099977651574338,0.31284147623166597,0.2931077751565755,0.2522878493537674,1.6875260884616161
0.2170246663892112,0.1173519343040637,0.28844629753617007,0.319995089459369,0.3478308303663802,0.36181445012245006,0.3513294505858878,1.713348035320416
0.21191687956317648,0.12407598020879405,0.27354823864945305,0.31107866761298003,0.34826876693951464,0.3753652703800817,0.3873622601036947,1.774251626303036
0.179996077663231,0.13941605737294013,0.2417258678563759,0.25252943203975164,0.333467365845302,0.33655114708528683,0.317064244740025,1.6837468610607964
0.11092334412616241,0.13114661564849484,0.15604784617266032,0.1560276188370278,0.2991839455429872,0.27407388860809384,0.2347061202968662,1.685151703756242
0.16576799066654763,0.13815701838738062,0.21925271115231085,0.22726495968996685,0.2928696124037115,0.28392800814033864,0.2838897914423374,1.7335175402604102
0.21400138637395116,0.12358326284576204,0.24738350253146354,0.26398368829309976,0.32310858006955506,0.3459785677861924,0.33295838259233806,1.7208035102727066
0.15447791023787677,0.12225405312501111,0.2129301478743215,0.22726994990115088,0.29802478880222066,0.329252938144509,0.28511202501116656,1.7616378734550084
0.12439757847621535,0.13119740520304063,0.15406885904235737,0.1366158654532455,0.2691408638529945,0.2516617479630855,0.21931706368762732,1.7802073689497226
0.17929420185574815,0.10545250930216074,0.25078705301472964,0.273452750845741,0.30389189519435117,0.30022840157336245,0.28374972237999196,1.747702955147289
0.23181384727792922,0.10614985629846696,0.28755610159606054,0.32730231282986794,0.3461756859660315,0.3732104023995386,0.3740078085047018,1.7469015965777708
0.20359767845869228,0.11828664688823362,0.27044657563476415,0.2891077805545207,0.3326489317877597,0.325972873250667,0.3229071456550243,1.6807994894860674
0.13224908037942978,0.12711958147144833,0.20411620324735702,0.21342497481287354,0.3110179446948029,0.2808483789219167,0.25505459300451017,1.7061567345785753
0.2028355940160494,0.12677235130563178,0.28202028824636166,0.31215870854840105,0.3246902366817124,0.33898908067087474,0.3249699686587652,1.8186053716188217
0.24107195159959852,0.1362011540606166,0.324576701773847,0.3588939751599574,0.3643015909673505,0.40465952525410903,0.4226020198501617,1.7952017945925294
0.2063908053288487,0.12261520344712257,0.29239692411350693,0.30480465749915153,0.3689471217883549,0.36863132618931393,0.37998748776563,1.8104214021068181
0.12368216703557165,0.13530243338541476,0.198278139099998,0.2160263904115835,0.3226309417371751,0.3417649138359612,0.31699722800682306,1.720285443788708
0.16411798230075014,0.12337252633445021,0.2561436615689454,0.2796051270726178,0.34014532109473844,0.35895754240558025,0.3812403085090969,1.7202951594228155
0.24390324617055922,0.11749955873622382,0.3403287938116438,0.35910110258593336,0.40239928634224587,0.4385993411240855,0.4685603499876612,1.7111330102686249
0.2069779925431855,0.12422724295176234,0.28699946731886183,0.33725770801253324,0.3783387788467773,0.41731194441613906,0.4164929674356238,1.706065244057495
0.15243189899054488,0.11330055990460795,0.23954931475469646,0.275869531332616,0.371308351119106,0.38775493221879026,0.33813706405794275,1.710651997114529
0.1817141695175407,0.1289325162116701,0.26991462240229586,0.3057365966461948,0.35811653755589073,0.37772102961973525,0.3738511184883388,1.839440007212991
0.2462832682329351,0.11932501096799461,0.34014661979225735,0.3930132991472029,0.4144720571157982,0.4589621439959826,0.4836853110890869,1.8199153659635605
0.21923746386666035,0.11694670013455065,0.3205392902188645,0.36043368017829924,0.3979252040323257,0.44386053600343367,0.43676018727178784,1.8053384761565094
0.16326204010274004,0.12049873711127118,0.25594119707524027,0.29277723776080267,0.3576049218982003,0.39991944021251125,0.40309493323768103,1.7549232967941732
0.1445124217157546,0.10678793607768722,0.25134638781740276,0.28138439274696486,0.36810507556126665,0.36622189235373376,0.37765210148129685,1.6720325254530686
0.21193465357473093,0.11863445228658376,0.3396615296343092,0.3771211015683435,0.44067761922863813,0.47817251708999775,0.47849399455141683,1.7310486089507455
0.19240526290082757,0.13421195202654113,0.30499367016244455,0.3340213872537727,0.4085176099682492,0.4394136597969792,0.4450579035767266,1.7116836574464214
0.13650570743483878,0.11341347243963597,0.24673278435955084,0.277429594577948,0.3991561498884345,0.4147404473419199,0.38948170199444326,1.7322690614278164
0.12185341546189031,0.12138436373945279,0.22674064023731133,0.23957180696033822,0.38328760048924054,0.3704541526764757,0.3650032024598071,1.6987834687654977
0.19796170464553506,0.1336628807697635,0.30700065398015547,0.34147671833925203,0.3824650908347443,0.4651846480998804,0.42855927037569796,1.6864753461533195
0.17007388881498864,0.12808775723591403,0.2807639068251323,0.3200518242235932,0.38225297879805126,0.4178405593081183,0.4105561392422412,1.7307903149333286
0.1588181549233313,0.1325078070935385,0.24704882033639905,0.2653273826743326,0.3276944808896286,0.3736311593756219,0.37175413313519123,1.7528280269316008
0.16760557891806965,0.13177712903848873,0.255496973427996,0.29021131904000996,0.33529430410350364,0.37198963293293374,0.36142342629638585,1.914174591211716
0.2149478751687221,0.12845129694498567,0.2922985371441668,0.33208300455229195,0.37423709412207967,0.434023936064334,0.4480044480484133,1.7774970638468854
0.1829344456149398,0.13075076431456825,0.255371902150588,0.29034666060245323,0.3571434763041355,0.4163372819613325,0.4025843508841101,1.7510354794915048
0.1219942349075241,0.13328137711807542,0.20826477626404433,0.22808437299210324,0.3570530525402964,0.3472444599140337,0.3234478633132329,1.7332055612559831
0.20408411855227815,0.1334476770479358,0.3020210068155053,0.3505726264570365,0.39058531750751285,0.4094447159888701,0.4120282679593517,1.7102423024418953
0.22365238478233296,0.1315483198560333,0.31166879043748996,0.37001174225161754,0.41290959562888246,0.4694770664708476,0.46008629835184955,1.770961315434606
0.1926662050998649,0.12464061721092606,0.27944163795291466,0.32026261790089633,0.4134974412606314,0.43165134207772343,0.4429720435620699,1.7623522903049744
0.1534708190107502,0.14584734507259914,0.22157255066859427,0.2525909148465329,0.3636934125977275,0.3894306211511383,0.3491215629734896,1.7112120933857142
0.25265938339463484,0.12913580062063795,0.3333929847017823,0.38788863437710436,0.4066021627073677,0.4708503080998103,0.47103052809837354,1.7078794280129574
0.2498437622370628,0.13083108943351707,0.33344936525143065,0.38739389860792284,0.4310586783877463,0.48344278242102895,0.478725943912628,1.743922519625057
0.2110098169324605,0.13902217213536042,0.3024776181730852,0.33195561441118376,0.39858018315847715,0.4582723763676734,0.4732656899175891,1.6983984933245684
0.1618388417550677,0.12565307671344825,0.2490438196068551,0.28365912524333003,0.38351567304098716,0.4154531590603564,0.4286589747657585,1.6670011706411108
0.2598857344292848,0.11670102421210961,0.36504688127528545,0.4188393483771345,0.43863629961430867,0.525460734231665,0.5408655662736576,1.768906583635334
0.2504403891131767,0.13039844639740245,0.3341262372637361,0.36879556618481807,0.42694435781564394,0.49297251486841437,0.5185048340698116,1.696226597035744
0.20547858916611422,0.1133592960612343,0.28691501082454457,0.32996745117386084,0.4220268401896438,0.47149465533275053,0.47149982781078575,1.7586587366594428
0.16605731175207103,0.12744166594745593,0.23940867919819556,0.26298702190850953,0.38461418285737964,0.41288619119206316,0.41601782144885646,1.8196854297186822
0.2605476074079319,0.10292772117272837,0.3486031014423485,0.4035463449936004,0.4180628283896091,0.49784902870233616,0.5421191903086027,1.752067233295268
0.2483015176641208,0.11246700970683399,0.3306696414144452,0.36304615462521883,0.42554193113989874,0.5041716142836584,0.5085032522545009,1.7007795935321222
0.20510306065386208,0.13471948520487842,0.27029815102182325,0.3112631457377179,0.41611288793104306,0.4793318032711477,0.48664004439800485,1.6914421642374717
0.13994595876847943,0.15013231371917646,0.19889920284480697,0.22265635129823502,0.37720606859535144,0.4041448409381901,0.3926046658574074,1.8340557791902425
0.2154701990206447,0.13466325020477246,0.29689148293853856,0.3278785158639166,0.42145933615294484,0.4535706159493408,0.4485359999968696,1.774683301373648
0.22083839971540833,0.12765601502325444,0.29644328798124336,0.32935700843752796,0.43109695522188757,0.48631529259775785,0.505511633404976,1.7867474865712794
0.1959590277395712,0.1263826466704482,0.25607292226191575,0.2863024810490621,0.4064265709217944,0.4573835395828867,0.470618148973253,1.8732534473234008
0.13984666995801584,0.13795651562581154,0.19622670355399985,0.20199651095934673,0.37688080452026573,0.4141440989585492,0.3773529690668997,1.8538669783801118
0.15028707951800158,0.15100978796589096,0.2056090552795674,0.21429097081761456,0.36554857447642575,0.38145121188184933,0.36395364148982406,1.7216757292177638
0.22024322315289002,0.11227603892545564,0.2606912076441767,0.28601301241752813,0.39206199468728054,0.43489404707354834,0.44700641822444853,1.6632615546727456
0.17435989678666847,0.10994262018720896,0.22234058736774928,0.2440199502086915,0.3841876042448565,0.41551540136716747,0.4115903896347653,1.705709066543759
0.1405882519381376,0.1378785254393625,0.185138749558997,0.17970291021356294,0.3529244268932932,0.3702447489889306,0.3420406541161812,1.7441338308819325
0.11580119381369576,0.13814507862457553,0.1688577982561377,0.1771584007133465,0.3308608459938145,0.3306330548721172,0.31531103175043695,1.6773739222419919
0.197308740732786,0.1434648673246838,0.24810616590261483,0.27123751711926186,0.36985283426803234,0.39139893116300234,0.44048398094562624,1.6697271495884247
0.15735149333776885,0.14413344333115422,0.22418937043963813,0.23747753847882505,0.3503891496474364,0.39679587546354783,0.38110576245711036,1.7585816348193357
0.1233662086353765,0.15536099222803873,0.18102585853788525,0.16263248491204152,0.3607575763634416,0.33221523161298744,0.3488804181029155,1.7682198378059424
0.12135688135488974,0.13564225171024596,0.16721554114993564,0.17131263509211422,0.3182345998680021,0.3327045091273357,0.3023649693344855,1.873255012232697
0.22233946223592085,0.10933729886130478,0.27463769169631075,0.33209333549941383,0.36303754390983073,0.42565946145733907,0.4389949920370424,1.710581354113697
0.20059517181367664,0.13413241058873646,0.25908233657942376,0.2785968350397355,0.3642995276208822,0.41607320038220125,0.3960021486545854,1.7468591134431326
0.16512682273536242,0.12045618627931928,0.23000004729097265,0.22822392515317558,0.3633100861837974,0.3748891928676399,0.3551614915651635,1.753024979349502
0.17013791318562335,0.12899386024557574,0.22124413621988545,0.24841941689474262,0.3362255494833799,0.3561711505370868,0.34141524227968945,1.775283726102154
0.24800034379938427,0.12809012180853052,0.3094927945736976,0.3576541638547047,0.4130019785579329,0.469307627249257,0.47130201863051885,1.8284468958136408
0.2223348285545533,0.12841614257513834,0.28379384584049205,0.3262572712875724,0.3997371777960509,0.4353108354319961,0.4319170890874175,1.6952471475527873
0.18195403471438923,0.12282032256284743,0.2457775536053027,0.27372831134764813,0.37603105211012744,0.4175728242564988,0.39458240299576536,1.6448269598282046
0.19374072770945752,0.11983740023394325,0.2787411227641863,0.3211411153611265,0.39285751246574624,0.4298924992377321,0.425129347832614,1.749062654724523
0.2522842963690229,0.13324246362737846,0.33772901493738733,0.375713012254929,0.42008118274915934,0.4994935432010275,0.49502815664069444,1.7789899252642234
0.2234192584676604,0.10946126258124646,0.30949629239735094,0.34603933500801376,0.3987595103765269,0.4696179909299102,0.47705923763933694,1.7687116621306531
0.18530498195064665,0.11845739017122327,0.2460061597045722,0.2753229536871158,0.38728005327804915,0.4271789598277351,0.4244006643227753,1.7593655864680444
0.23944462216372206,0.12108228532252016,0.32850211007934166,0.36923015577974183,0.42263445961221485,0.4806459739866462,0.4753992661315795,1.7325017772966673
0.2548061285129186,0.1080870708385973,0.34586582916373065,0.40705577583566743,0.44282590141401557,0.5157603083761307,0.5333605683901492,1.7670655886041895
0.2381023641176626,0.12415130508359559,0.3073774813992348,0.3664250101626317,0.42282737834587614,0.4994264664258146,0.4798832646214033,1.7486973631500116
0.21336880531420563,0.12234155736889922,0.29215365671527765,0.32614495996423165,0.4089417781635226,0.48163073149730684,0.46278057339935186,1.7589535302371
0.2860243693356952,0.11867891932625652,0.36633419886324625,0.4401032942687806,0.4582538378551452,0.5583727122928693,0.5556141985298609,1.7447592480375558
0.2620926927897586,0.11420098810363014,0.35324553298608874,0.41079164008781227,0.4325205435524634,0.5516290318160673,0.5697537828408388,1.7529125461808654
0.23373280947316002,0.09151164692955883,0.31834157692668485,0.3551247033657938,0.44986428183629185,0.5333937551678533,0.514828519050386,1.7448509942002388
0.2601283112685877,0.09296584364812796,0.353585864073943,0.3975736369507362,0.43993635802121417,0.5405824536782177,0.537982967927153,1.7285687727020544
0.29088431196274805,0.10101554347892616,0.3798411011004607,0.44132849983538597,0.4730527993813329,0.5794447998629239,0.6055757642115869,1.7669204914465284
0.2507189442872021,0.10027323051748493,0.34942953320757564,0.4145187653810882,0.46711002726416095,0.573141890931643,0.5844075484203842,1.770276170461225
0.22922344295021382,0.08786484086365903,0.30007726417226227,0.34932364406545874,0.44288406660061924,0.5305199943067012,0.521252842032275,1.6915018425303343
0.2909467275032574,0.10851130553866821,0.3888059072841027,0.4502733361747652,0.4643324377904709,0.5762887934626431,0.6235911739659115,1.7543288956905785
0.2820751490329823,0.10287284052922603,0.3548455184540483,0.42265522112052606,0.47750684507362345,0.5701565075442431,0.6071048584567477,1.727574530831692
0.25489163402330284,0.09906213749395168,0.3390819329305235,0.3738167765096785,0.47217958486326067,0.5564619470098773,0.5676714867690842,1.7112141055787289
0.22745271292670582,0.10879704434880341,0.3135174975260641,0.36194093500082697,0.4357593602709354,0.5308884038501838,0.5289371635838356,1.7470108954562051
0.28838222522382756,0.09935197665884635,0.36350018958566266,0.4316207966025852,0.4787303338420496,0.599307374764529,0.6254056251803766,1.7235367009721576
0.2505730714614832,0.0886221532895894,0.3389493423798081,0.4075887680345799,0.453334799404244,0.5684886732490477,0.5912956543245815,1.7221953423794836
0.21496470432237197,0.11268542906365646,0.2929420976135314,0.31892499664493357,0.4481961266476059,0.5153571086686263,0.5396500706244558,1.7513858195158942
0.25597067016793423,0.09150409483734942,0.32799988811859243,0.39304926251610117,0.482147475757229,0.5594716316516889,0.5529093723479142,1.6702454146358436
0.2737507723246136,0.1129349767971685,0.3508268396032948,0.40343914763659744,0.48452738228469816,0.5761936912639612,0.6083441014025465,1.6914941482376855
0.23007724440176042,0.11536866443499795,0.3121584444671201,0.3642786737468447,0.46284150810266106,0.5500642764724626,0.5630073975724318,1.7923967089678672
0.20445294167191033,0.12042221979791877,0.264189694305289,0.31285715567176037,0.4324928092622199,0.5146388552663949,0.5300831874513476,1.6682335859779769
0.28195331035555576,0.09257675874647639,0.3733250696093512,0.4450037629617789,0.486296022341203,0.603764867792825,0.6232559955640686,1.7175821739507862
0.2868395128923094,0.09441501269708685,0.3568061240914205,0.4191280907952464,0.4867288743776369,0.5834028333903558,0.5917964169845984,1.6808280860462355
0.23621311759266916,0.11435324865912164,0.33034371537630514,0.3674390713491676,0.45434624006832014,0.5721251899100185,0.5773163753585118,1.7154902572068953
0.22230191772727384,0.10977821489571624,0.29678369036963076,0.34256048638517705,0.4514983464601194,0.5303010726149545,0.5294240541661568,1.6995929401581793
0.30907168504674354,0.10565256215795947,0.3988367577860444,0.4651941795705287,0.49321800697093876,0.6129977554570756,0.667725814850456,1.7424278493445153
0.2864316840529567,0.10696961796413335,0.368416699369753,0.43687366390684124,0.4836975229999898,0.5951569932683632,0.6118499871384713,1.7617186756813843
0.25244239784740286,0.10902856600322329,0.3313682165792617,0.38074688829750863,0.47065705068642977,0.5782989966783,0.5972815332619018,1.769634319348541
0.21865096063775463,0.10519154350479526,0.28549810319590807,0.3252509669549505,0.4356478258805062,0.5146174034059636,0.5200137464211501,1.7972657228603557
0.3190693672061391,0.10560898879593508,0.3974574321320512,0.4573385257162329,0.46943962072228756,0.6057782602721997,0.6632452631178668,1.8223418669283908
0.30477329282140053,0.08872342831480041,0.3847799619473191,0.4427133340483663,0.47438231128992525,0.6129726994460553,0.6382206588104145,1.7748264837110732
0.26159871146967734,0.0932934618892215,0.3554080461792001,0.38929801300368044,0.48349787174412556,0.5813691671984991,0.5936814427170266,1.7418620315510516
0.21168975726965505,0.12296745063109357,0.27767595530284284,0.30898033349732884,0.4539004388598572,0.5108414689992458,0.5170620603076884,1.8461140851949378
0.22443702005342056,0.09452699922058963,0.3062588950661953,0.33450375123034437,0.4517814938835533,0.5067330411121224,0.5346858456596021,1.74300446483642
0.292165700810092,0.09724286618218753,0.3889268815404012,0.4227748033059035,0.5012260444080655,0.6111009636238435,0.6376484051172165,1.7149166859410665
0.2569074207671466,0.09422389758297406,0.3422637193930467,0.3933216970401049,0.45543654108774406,0.5758475491023454,0.6152254610813996,1.7974760943887593
0.22376765745518784,0.108517925146574,0.30302110216502975,0.3359596883412744,0.4547436001590914,0.5020220366333847,0.5544127148856106,1.7882998964846866
0.1475597613372929,0.10991412499550264,0.2316491316749071,0.2420803967625026,0.4238825635292517,0.47022830990079806,0.4833361557189125,1.7232224113544057
0.19228306181475313,0.10158602524208724,0.2856978621294553,0.3232956387788013,0.42177135361551293,0.5012413082242052,0.5467569183492857,1.7480602403924725
0.2562589016011203,0.10410051197349639,0.34062560342495946,0.372020348439586,0.44959811201076616,0.5550020465090753,0.609500587196255,1.7379494012355095
0.24494911847473583,0.11779828096947427,0.3090150842449489,0.33968421068855403,0.421973243449198,0.5208445633820532,0.5637351543141146,1.7533124374994897
0.18412366134660132,0.0940005232514187,0.2410726827846539,0.2591519782167912,0.39722484558497956,0.4863752370924891,0.49464625189151457,1.7148025848870236
0.12274365481234267,0.1093182783102754,0.18804310162822943,0.20335645884248335,0.3818095803849917,0.4201657176174438,0.431468520990181,1.7150403386429431
0.23312162306103773,0.10920400484217009,0.2887007768209231,0.32855800218575354,0.4130803430626256,0.4989923017099391,0.5466841966047618,1.7516689857634642
0.1917707353060971,0.12208424745167601,0.2534461327182879,0.28632506013322984,0.40225724831751974,0.4741434968530321,0.49444945591660383,1.7236081237675516
0.1596794057136554,0.09705804513713084,0.21423043669540323,0.22970967302613507,0.36733832313542447,0.44959634412276656,0.4590978902353986,1.7468944644449946
0.12064240093017739,0.11581542395980639,0.16613922260388206,0.17426153702952665,0.338358506316415,0.39494617953588296,0.3913304170442726,1.7249866957726818
0.20691697049288152,0.10940909294284498,0.27840527343490035,0.2972991682645825,0.39277383979341424,0.4447143873643513,0.49837990182135633,1.733395310637301
0.1737018203683537,0.11626317132122017,0.24134274593897306,0.24837095060621095,0.38274714629935963,0.4385754275056161,0.47433618789938664,1.786047049785277
0.14847617563236898,0.11624628185632145,0.21147824084766922,0.20392289820124063,0.3454775991087629,0.4118341018289808,0.4249710306879362,1.7921586674529306
0.10912823496663894,0.11661345998857572,0.15241062227262528,0.13389220770180293,0.33776527615601454,0.3550657525862254,0.3442593402184466,1.8102989239434217
0.21146786423552502,0.1065657231240486,0.2874042508784349,0.2975309934775415,0.3855953344138615,0.4448412379549841,0.48818067659692643,1.7496415439561899
0.19714588041245376,0.11565393279314035,0.26543690518411456,0.2765827351599536,0.40453093082303543,0.4406426477073796,0.47153878880789196,1.6249955534936449
0.17943087437189542,0.11038730416839009,0.23428258877578617,0.24576363987705763,0.3624025545061866,0.41122859136173695,0.43773015202297055,1.8009893875990617
0.12740799945605427,0.11635513566257795,0.18556899407281588,0.18649281386418298,0.3427971108988497,0.3661578044875792,0.35907878654793696,1.6925354056287534
0.2429373439018431,0.1032456705804946,0.30885741193608535,0.34268648094092713,0.3725379932678357,0.4582078095689334,0.48731575466315147,1.7425336227953452
0.23527280133947967,0.0975147210358974,0.2946072245606429,0.337230679758397,0.3716887471256626,0.4670092198500953,0.5038410180539088,1.7660501248860045
0.19077077966196948,0.10143347064798773,0.26411295995135187,0.3075838863202843,0.3739283976602356,0.443241159552923,0.45343421792730976,1.7297582720268763
0.15789027425142496,0.09776989214173445,0.2167634964847357,0.23993598691342763,0.3409648519638851,0.384389241305739,0.4011814913716354,1.6036887053913431
0.25177843930196236,0.10337316903078232,0.3340855932879216,0.37090090325193575,0.4060858413512003,0.5020980521845847,0.5438334479745036,1.8178480301190656
0.2521598756065489,0.11198174414911626,0.3267960505484143,0.37288017492846576,0.39070735183611754,0.5094123504519872,0.5381965148858859,1.7157212698543753
0.21096718583006174,0.0930997848421585,0.29483912233072096,0.3319995227164878,0.38429670510721986,0.4604588019196078,0.4962960283538042,1.8657410287078267
0.16251859266825108,0.11639213953697815,0.2309146074495142,0.26110779116511745,0.374262055533531,0.42209682839261564,0.440330700548779,1.8104722421083426
0.24876587299683903,0.09717239804055097,0.3290764867159733,0.37828449069637937,0.4259028652022453,0.49989722481399296,0.5203524037647318,1.729128930031981
0.2413463593964677,0.10651173279594607,0.3416846884362294,0.3822737075923379,0.4396567562336641,0.5326713938091113,0.5559604352132714,1.7292176984992638
0.2141651295942331,0.10970158105284684,0.315543793029251,0.354220394270922,0.4175929581713738,0.5004277799794982,0.5070428220310735,1.7195168148491593
0.1782383814706449,0.11861175888351207,0.2510899843333794,0.27794100429374574,0.4147526018691695,0.46494830593312686,0.4681859446925694,1.6430631023024576
0.21840328942994813,0.10023234021616183,0.3162147588508801,0.35156407892969777,0.41939697067581744,0.49441074418252434,0.5348915280379356,1.7346750030578642
0.24566842790484028,0.10530888633365379,0.3366590055983466,0.3762480521744613,0.4368657632647679,0.5339032629785437,0.5753446744402413,1.8794120300898363
0.2217565568226672,0.11613944744681051,0.3227042285866987,0.3410762745558189,0.43114829658700776,0.5286102578443292,0.539995557255763,1.7500333719289392
0.17465165884485712,0.10935959335752027,0.25876771341397703,0.2831912028492372,0.4052521630643248,0.45945698612966374,0.5000157155371047,1.7760453483711465
0.230981615004882,0.10280971222595776,0.3259589352843154,0.36809796751099155,0.41570491501629064,0.524512322376026,0.5605977857144072,1.7447111673327418
0.24938971542268243,0.12252549313001398,0.3512774361854497,0.40091825501944317,0.4409398345137368,0.5558547763606797,0.6047047429976933,1.7490866142001482
0.2366086384771893,0.09265239745894369,0.33340770442206963,0.37432118309132456,0.42936446764706127,0.5344334608902765,0.5683564629110281,1.7960568887481556
0.18077055338830592,0.11608707798914347,0.26797200503857965,0.31287330380043965,0.40907460694091635,0.5007974729666106,0.5095659437095099,1.7855173755195548
0.23214791936884652,0.121962741598406,0.3226038634310861,0.3783998778925798,0.4132079244929896,0.5337839174674668,0.5576313688148948,1.8693258193293096
0.28152360914260116,0.10745716756591993,0.38495375533676157,0.44189475882781726,0.45668084080767746,0.620756319878223,0.6477674997493186,1.819327125896507
0.2646339475904512,0.12250887028974144,0.3569688883787916,0.4155706963491814,0.46504437443247115,0.5846441788379865,0.6363071782324925,1.7221575674954064
0.2175594376345003,0.11524292676141396,0.316785106816936,0.3481946943068706,0.44696670959119955,0.5439124121097662,0.5895348698537938,1.704562150539194
0.20765327177821963,0.10836116245647068,0.30117293082875035,0.33186480646902583,0.44352491542039957,0.5272930485779719,0.5394338402030532,1.756709079426179
0.2832179166606194,0.10867145634070798,0.40777378398992464,0.4678246153269517,0.49073769735502093,0.6388296644630677,0.678559955817135,1.8095438966708082
0.28131476157001345,0.09691308627875429,0.38911308261709154,0.43539674362225644,0.5023760409285704,0.616921486611548,0.6555404434169936,1.7497495996049932
0.23050753441242225,0.11398105543377633,0.3382687070893023,0.3807642045099919,0.4762326295746011,0.5726019432487575,0.6177565965886287,1.8100155004736849
0.1786623291736447,0.12898961246486904,0.2702055243294557,0.30931374429741204,0.4388087033696192,0.502018604905305,0.5405989087063623,1.6838554031232382
0.2532226915491803,0.09094333589710998,0.38403966097344033,0.4314867306062475,0.4564281080501732,0.5640015969433642,0.650668561559808,1.7795833208255205
0.2706273413746547,0.09468683628659907,0.38188648578218615,0.4234796676931401,0.4796391745612822,0.5959893829430133,0.6827413919589366,1.7399691029655249
0.23608410552328973,0.12403298422493489,0.35537275591953016,0.3892883966332869,0.4563871630764019,0.5774756137457815,0.625171861728771,1.7686075281953382
0.1879819383667031,0.09612889071557762,0.2810439113295861,0.3124290048959362,0.4182542230912864,0.5232048074081905,0.5845658797991203,1.7537153247647614
0.16749632482060703,0.11436189946460132,0.27708397823419223,0.29437381664685475,0.42873000733899336,0.5086243995863338,0.5105337416468502,1.77264078426884
0.2606054877074481,0.10433758698926718,0.35531920318072296,0.3932002931875889,0.4703111441250188,0.5882320857738048,0.6608281347921676,1.8121219411242577
0.22068860394732018,0.09867496280516824,0.3380526426970677,0.35690201755734646,0.4357709810061225,0.5645561489152271,0.5769100251109005,1.8355468716249401
0.20129646759298142,0.0923474465242463,0.30067021127209964,0.31022478233769074,0.44790967896780176,0.5302900249718053,0.5501278648190815,1.814047406994073
0.1622183761580853,0.118517718757224,0.2373662289017274,0.2637190959046672,0.4047750784607993,0.48197581405169987,0.5022585691433146,1.8472428377956185
0.2481495029904777,0.09545392903314166,0.32979934707248537,0.37659039413324796,0.43618663729840534,0.5760704196982391,0.5960910061486898,1.7649687421776654
0.21245183255745217,0.10477030260819852,0.2928102373978636,0.3293987945693431,0.43191485282055153,0.5413762431399128,0.6117427073298212,1.785669810023272
0.18002199157161503,0.10883295976171009,0.2603738640703313,0.2977411177588131,0.40438167573722,0.5128411446896158,0.5516811750731542,1.7246130784857265
0.1457018227487079,0.11321051852415147,0.22818507571707827,0.23182658408086393,0.3914122111528983,0.45348113793470446,0.4732343126765912,1.7886601236332222
0.230741022827541,0.09329210384040895,0.33430147697625434,0.3828201162279567,0.44376662526384436,0.5628793425897406,0.5932449807535545,1.744601771396325
0.22722225857781495,0.09410874864657753,0.3257336467774531,0.36407099499164636,0.4366375061164532,0.5493318715025581,0.5799452103033761,1.726688091913317
0.20567023605021473,0.12241992071115192,0.2929482977598931,0.30581529047648504,0.41967744927793993,0.5230191812573182,0.5435645202894764,1.7160449147172376
0.16051756616781254,0.12677805159813596,0.23732582439174932,0.2498787147400543,0.4054695617048799,0.45472877952311025,0.4950075395680268,1.7818973942746987
0.24514816053567853,0.1058583851704536,0.366162587197313,0.39757961131938563,0.42457670376839224,0.5385354718202922,0.6032010608882792,1.7920197929903208
0.2536038701929478,0.10622646204756782,0.34389351073313607,0.38815615324436953,0.42763809312492806,0.5522587291752907,0.6064078190027354,1.772985278024824
0.2260872791317488,0.09396552098847312,0.3121497904712169,0.34736149165111846,0.4346079865195283,0.5101704701316856,0.5607668135834214,1.7006805205375546
0.18394742761203411,0.10403857582226964,0.26272023822615964,0.2754792132352536,0.3934672090062066,0.46112618559113305,0.49650394535572623,1.6906115516760531
0.26318048135186894,0.11080843632144032,0.3497845272399391,0.3955518026298107,0.40964207166750927,0.5317550425140597,0.5716537263185018,1.7989950199233102
0.2771475588304211,0.08773835255999694,0.3686211899175933,0.4223146901498472,0.4207014146309334,0.553169856788604,0.6078122805925162,1.8491186071830104
0.2551044878129154,0.11033719395317061,0.3409177805350069,0.38972297394600847,0.43979612501162474,0.5249171513865665,0.5691835842308042,1.7680934659128758
0.19760503146840477,0.09556359172152357,0.29744460195872013,0.3239133294397246,0.3908017392633382,0.492046128324686,0.50647129174786,1.706486217547057
0.21725440457097836,0.09843636741389535,0.3057158264345841,0.35325697148365015,0.42375397133112025,0.497410391047816,0.5028359381013716,1.6734427402353513
0.2729496921469329,0.10510297099617052,0.3770174693407936,0.43226253879419557,0.4598079832563141,0.5735897398913835,0.6177014191062501,1.764844385697215
0.2501226484600896,0.11615854601890944,0.35490472410589774,0.40387098279531575,0.4570163863949158,0.5337936943089077,0.5761458248728515,1.795136528346312
0.2151244060744617,0.12150502498281147,0.3157039265930945,0.34962676441107,0.41750536464985444,0.4907985960447749,0.5436212743863494,1.790880685780863
0.1799418931188913,0.1269057858893594,0.26359721340989906,0.31356017648608353,0.42145247348728476,0.4857451560585862,0.48595265886366046,1.738647742782956
0.26120595934714563,0.1085841387806783,0.3596344864168473,0.42813956278134363,0.43590458848160585,0.5651594039512369,0.6041197394018365,1.7616986755952964
0.23382447963075614,0.12743324235689477,0.33599382284616164,0.37115364784545496,0.4428957209056989,0.5327178041633234,0.5860220891165518,1.7524610341529985
0.20790258456790525,0.11855366995940693,0.3073309035273896,0.3344019452260811,0.4187153286192264,0.5110090271766246,0.5460664226912787,1.7456582770743378
0.18305385091712506,0.11956651981500951,0.2679429315022163,0.2891625931594667,0.40587753970523616,0.45044492741354386,0.4811415926160259,1.767652736482576
0.250377855461502,0.13085349710638744,0.3542677323603671,0.4024922884918215,0.41421748528770613,0.5555923754417423,0.5981386529135635,1.7127680902499098
0.2287727390984569,0.12157838950600083,0.3202420500237336,0.36565448488840235,0.4134978213953405,0.5212260848952045,0.56766762133436,1.7402592507491774
0.19806196395081857,0.12274329756357827,0.2809900615051228,0.32592870255703,0.37612561437651276,0.49896604579566967,0.5176108226383584,1.8134264073901012
0.17592046242347553,0.10883459952347943,0.26553484798577504,0.2930980114541951,0.37222129385171143,0.46877723708714225,0.4869502523414098,1.7396270959106095
0.2646156522252187,0.09985690009554923,0.3653528766884598,0.426501013349509,0.41939715693292295,0.5562090139202825,0.6126162799767776,1.705030998255017
0.2505057773792697,0.09005500178070676,0.34834719463968133,0.3962139689277784,0.4010981764610757,0.5487762226706677,0.6010371526847862,1.7824804608908682
0.20806514677173366,0.1042995993779682,0.30786086210204117,0.3635073096132468,0.41688413835527044,0.5173426122328365,0.5502602505302843,1.8344319505535474
0.20528618593258965,0.11392082271073989,0.31762356409433473,0.3368763299465688,0.3853764648076002,0.47540894145339396,0.5217300447396952,1.7947749898578855
0.28978609479118184,0.11703166153840562,0.38257487637172033,0.45738287559259616,0.4491998999699933,0.580240898006681,0.607786073918507,1.7763022595345903
0.27433119420822005,0.11853745550773873,0.3821709732648136,0.4366082486421068,0.4527186118796771,0.5750810780907951,0.6148854747467182,1.774726030299579
0.24190482395481042,0.11448284971100475,0.3409088760092215,0.406033579251991,0.4415287215832444,0.553175318303158,0.5480535477721691,1.7975693977746423
0.22063407046672645,0.1381423061823078,0.3217323178226099,0.3609357368055419,0.41755531211677976,0.49040978414482655,0.5416144287706445,1.7884004199960204
0.2933651861789892,0.09494334522983411,0.4276138081171913,0.4767111804734476,0.47708849742702264,0.5951385747294807,0.64929731736678,1.8111705046822628
0.2804342263211126,0.11431544598882766,0.4007445369257827,0.4484788914848283,0.468641533483112,0.583859856414203,0.6196746881041714,1.7650568859456266
0.2553863280372036,0.10267876684845534,0.3839775019341982,0.416247500492884,0.4617663595090536,0.5546268002046568,0.58806165226122,1.8135866078601715
0.2000517599806966,0.12325858379554433,0.3178081895460449,0.35505190859265745,0.4235846235466824,0.5130737297221094,0.5193401877410979,1.8096521660343217
0.28545378750813216,0.11224275392804897,0.41691399419179337,0.4660079350017444,0.4316470383815457,0.56811195615281,0.6197059825572937,1.838123807741354
0.30879777920882845,0.11206570775740006,0.4169396894814735,0.47280506704651937,0.48419069339081056,0.5867891166739587,0.6598315903015238,1.8160946653195902
0.2672728956121696,0.12553913008203568,0.3748906776075536,0.4165556420679954,0.42350531774743827,0.5600332408641923,0.6260422529239019,1.8578699827963403
0.21843617423637682,0.11884256904740148,0.3364740972756249,0.3569885864716216,0.42905786168915566,0.5210220497904456,0.5533019210243002,1.7796820644219988
0.22873572918302795,0.10462811121666173,0.3474273107570011,0.3732419269968371,0.4079171711093611,0.5338291843105766,0.5666712035492328,1.7483636764627979
0.2722938673128385,0.12038419059076769,0.3840033533485198,0.4350257299526153,0.4492328718776585,0.6035537966640182,0.6318582259565768,1.7397827748918608
0.25971185085504156,0.13733560970804687,0.3629250256026821,0.42042100757214185,0.47255484064256137,0.5761468791372791,0.6140934604333114,1.8290779107178676
0.20000095086118225,0.11463066481964959,0.31985125313437074,0.3482140900303556,0.42757448162013534,0.5352647248492288,0.5509746954912993,1.8438674931335455
0.19702678661338685,0.11248526964139544,0.30611740481758476,0.30719988402351,0.4232469905655727,0.515593950086045,0.5392254606078034,1.7910015150830436
0.2679978431443436,0.11677942327611217,0.3644205424038732,0.411184875939096,0.44297408783032066,0.5900810071907168,0.6249413613950382,1.7575070420853913
0.22960142746790924,0.11230461021237989,0.348832005166226,0.38966248054597113,0.446981734262654,0.5497701350596202,0.59859016412841,1.789286175221891
0.19402515752729624,0.11854021254743785,0.3063429115002586,0.34017464130173214,0.41797779291686205,0.5035404712660477,0.5411447698414307,1.7270867991892254
0.1837558835741909,0.130581709669757,0.2882893884573162,0.315472264988867,0.40068930752690013,0.469034655815259,0.5194887892936967,1.725859866323452
0.2860084194216465,0.10204480969631013,0.4051191639471972,0.44302994986905986,0.44286609735028476,0.5727045088663131,0.6336781419826388,1.7578185508514759
0.26787153867911634,0.12057150121231047,0.36984629153798704,0.42742454429113463,0.45485154447045556,0.5451042224614049,0.6088026432798952,1.704374642093707
0.21698829408072548,0.11971273934752746,0.341863879254201,0.37775506644146717,0.40483692425638107,0.524928848951,0.5518761569808854,1.7568315347396926
0.18418345602339728,0.11760615904152891,0.3019020888642591,0.3297210070402848,0.3965548916995161,0.4549055491405986,0.5036676209358252,1.8453361675735505
0.2837825833294964,0.08674119063639628,0.4110085343621622,0.47293668632064234,0.4290149765537328,0.5346791493833662,0.6090790081085449,1.6488143416098584
0.2760842359539481,0.12080667738041173,0.38358096322203217,0.4421259229192582,0.4308848889392841,0.5275027406683885,0.6042857018211775,1.6854346719661615
0.2519299709742247,0.10815395261584976,0.3832368285990714,0.41335481360053,0.38347942819821407,0.4863147296399536,0.5389984729211558,1.7137529230788524
0.20928170531351653,0.10821946852213941,0.3150597777827048,0.3398163277232863,0.3849363826930323,0.428145350702208,0.4581751239521849,1.7238973938431155
0.2730459830172809,0.11720536118529824,0.37319812253941786,0.43708817683806206,0.3836860136583912,0.4758076790637926,0.5339117123252889,1.7920140355802623
0.29136538816692736,0.13383810083027475,0.40407957732391836,0.47553257721324277,0.4298002998601384,0.506443790050876,0.5444443661785779,1.7953295031957495
0.25276052293417844,0.1149975409261325,0.38653664482564315,0.43311184481377146,0.3869464247610262,0.49402544914129415,0.5171756294711282,1.784254764309715
0.20653207514590355,0.13891261011957157,0.3176867621067626,0.3417855769488786,0.3576743052090971,0.4159171801427194,0.4468981735684879,1.7029421663649367
0.2047414061491531,0.11596751698341655,0.31550186898508614,0.34700641228115275,0.3583071267579475,0.4069748353979873,0.4344285279864968,1.813838801282387
0.2655143063045425,0.12197864511120934,0.39523632371796774,0.43248991328807146,0.3942439895062816,0.49255147774272234,0.5453205283141594,1.7334683294487414
0.24914480673912895,0.11756640629770944,0.34015870754007177,0.40086961440576513,0.3797273539493252,0.45625854613298455,0.5061707985107796,1.7728115694542608
0.20289763423381713,0.13254635177248614,0.32299611519978527,0.3398565208346726,0.383136860504367,0.43695023483588924,0.4621366160751004,1.7942929041353661
0.17817154759515438,0.12956998610065143,0.272165728029273,0.2989297986663049,0.3739909737967831,0.39409526524834043,0.41819611829704756,1.86978140120294
0.23334349422230896,0.11842736083871856,0.360120635884767,0.38413955540569705,0.4255548790247217,0.4924390901438433,0.5366121409106905,1.729384766736702
0.22290578330981053,0.1139683651458983,0.31049592136287074,0.3379704591915894,0.395410747571492,0.440569926080125,0.49041665668884654,1.8372312620148452
0.1812402211789319,0.1320650925426864,0.2636786150278354,0.28159093310500477,0.3702797477442583,0.3951410960694668,0.4268325429389319,1.779224927041294
0.15896764766226315,0.11539299145805129,0.2661489130470014,0.26217333089877637,0.3871999355182945,0.4148630436371028,0.42045643246811076,1.7870018706684676
0.23879151156344616,0.09911123168353647,0.32660231200907536,0.35278492588915,0.4135829107224882,0.5186629333042995,0.529320997165639,1.7924707778451425
0.209592434872813,0.11112132985881362,0.2976988400038815,0.3010888499264838,0.4062918473865113,0.4809749349518175,0.5040753408150408,1.7926386440816282
0.14893269978202112,0.1312788821493625,0.243915073248522,0.2342704939733711,0.37707119058046534,0.4218921431752469,0.43435233156124736,1.8216713830676383
0.15143407787349644,0.11936979358175108,0.2650431023338931,0.24819522813981224,0.3782721841847906,0.4072579786659853,0.4487167729430415,1.8073158999283887
0.22547631239158294,0.12164260417645043,0.3420051875185478,0.3650646499879188,0.4054080550672763,0.499102243626063,0.5554263514499835,1.7904358114107188
0.20499895565111542,0.11476418776611455,0.315550285865523,0.33640027792716976,0.40165838414219884,0.46432516394333967,0.4853766727871229,1.8118631645240724
0.18082761179622606,0.11702791914538582,0.2811310869998332,0.2844639409041446,0.3811075525399215,0.4129469243325278,0.42667856093275514,1.7161729811678235
0.20111700140461303,0.12352004067115868,0.30034440641819055,0.317791581108518,0.39955033937724216,0.4185881094207806,0.4441428970395925,1.810600524562037
0.26053391262263514,0.12471072382213297,0.35677849176230947,0.3985959986677023,0.4094494426460831,0.4866930160487277,0.5256941162665323,1.7948870695072539
0.23655556031077668,0.11324283136763906,0.3282505876795607,0.35734676406829724,0.40090691730347927,0.46176758856310773,0.5086765441074387,1.8122212716661652
0.18913878738177572,0.12960543950499773,0.2671842016894937,0.2853837601674545,0.3925861703238175,0.3864652045276326,0.4299665439037613,1.8672022663254026
0.21844186106207408,0.09579142664981281,0.30856862374100813,0.33623396982315895,0.3786012676148827,0.4290568837191694,0.4298417886400306,1.8077400689314116
0.2570421332419667,0.11732461074598823,0.36423803353935064,0.3866272181091973,0.42398211279835224,0.49982540112273555,0.5428367243168799,1.820393910246717
0.2344264592204392,0.12073920888788485,0.3217777090697144,0.3562962494679052,0.399076261139635,0.47764479126124504,0.500003328386759,1.7435880744767684
0.18511138871151672,0.13185671119143022,0.27537173731601056,0.2829478009769946,0.3813521701444156,0.42642681136700095,0.44283185808891984,1.7688766105243234
0.20623714998777368,0.11467192044181336,0.2867778627229805,0.2969416939197028,0.3810621795954365,0.4292568268547814,0.4641259562159819,1.7147196254680455
0.25144200833566566,0.10926710675421078,0.3456065333404909,0.37513825485843827,0.4279476805565028,0.5060877673464409,0.5520046604843699,1.8592421492679987
0.22093478000775477,0.11976003732517654,0.311565793533479,0.33345547335871617,0.4056926909857801,0.4837860524005677,0.5060685384948402,1.7790783558928789
0.1757918157486869,0.11928856030265944,0.2579719908787878,0.25997382650100737,0.39699746749791925,0.45992260684900405,0.44954723758228043,1.8287863060688287
0.16043333073077098,0.12229549004911802,0.26164802192894226,0.2595048270083872,0.39977776444087854,0.42031281036301515,0.4405173385795063,1.7969692117340965
0.24669691260271226,0.1018877495095689,0.34002468334077757,0.3684144308575442,0.44965541441807905,0.5074476480427187,0.5429435577954456,1.7955544445876117
0.24565804894294563,0.11001468397789275,0.33407853909239726,0.35756782305579926,0.40886953498782713,0.46324055364223515,0.4891279941005111,1.8233256274396183
0.20007225589980787,0.1113388204472261,0.27337368854865174,0.28498019519096196,0.3798868599800786,0.42114074593911643,0.45289150631285824,1.8136287865742018
0.16561817602419693,0.12898335211474293,0.24770068189381647,0.24489158861821028,0.3764735904877021,0.4052519873936303,0.4263657143365301,1.7642195803483467
0.2166869148908045,0.11505187057777817,0.31781919154293375,0.32466946819676645,0.41962994758597877,0.487625044172691,0.5235383771484886,1.8020566461091891
0.19643035262238798,0.12556854812680365,0.2772591464933048,0.2801535187086091,0.40829850974300474,0.46449316506421173,0.4755878068454587,1.8008718453799513
0.13719502617722648,0.10672758084657814,0.23683495424189346,0.23752624387478272,0.38681617683867886,0.4108709333876153,0.409703744419745,1.8276591665124597
0.1687005875384833,0.11851939200823632,0.27275177817249935,0.2587534382785063,0.39024810507174656,0.42461506902878315,0.44458833668644676,1.8430567002397173
0.20584172177772547,0.1125363471051156,0.3128985564688854,0.31895645289156294,0.4041160942759969,0.46666975479731054,0.5079445484250064,1.8038191813628663
0.18156159398261204,0.1257185564886047,0.27670196106064004,0.3046354581655615,0.3838079006115557,0.41700274639937746,0.4615568586045547,1.8168564743997428
0.1340950393819919,0.14502352025183832,0.2264216251184065,0.2124426637738593,0.3591510543689782,0.38580868670342044,0.36635628235081386,1.7701367544713105
0.1998335185006453,0.12268308869300884,0.3080458149609857,0.3397167974691965,0.3721361022292095,0.39770444109614117,0.45455014032298435,1.8164960314216023
0.22866203519214068,0.1456235472166962,0.34073307170525585,0.3783606775145148,0.4019302773185011,0.474120872577479,0.48987985908454623,1.7070982866575757
0.20387579933523256,0.13438022487010823,0.31403549105335016,0.34476365080463517,0.36948848631529063,0.42985083061870233,0.46524709377319656,1.8193433256698908
0.152093946748568,0.15903810927879963,0.2521850103602915,0.23914945014158506,0.3537190225797562,0.3851123265099886,0.39991228878225965,1.783398944770023
0.21511535939043472,0.133618491764288,0.3274612633833101,0.3556061551687076,0.38185829754451234,0.4309663378148651,0.4646036469078463,1.7702821504076225
0.2366412290058089,0.12388934128952654,0.35732879501785714,0.3864752659259106,0.41730535005864405,0.4759671452134269,0.48116260335886074,1.82161290492768
0.20858374870837815,0.11825203185807243,0.32484909098651626,0.3572051676879948,0.4079001527033542,0.43109157742929,0.458525897452334,1.7988198873917185
0.17757017973929365,0.1244726476865188,0.25808673911942887,0.274583659938536,0.372249626449575,0.3875603955612732,0.37606723240743,1.7881585556696002
0.20764381532245105,0.11952118051778862,0.30525820392144476,0.3494891805607007,0.3817847644879716,0.4185394078210365,0.42245374890791104,1.7932412262010673
0.2380042922720459,0.14775918495996737,0.35807620778285265,0.3920819851844983,0.4027977455269779,0.4616365250899216,0.4856361863614437,1.7857505010644323
0.21494762475124493,0.138096464579328,0.32597387736301725,0.3540940080880738,0.384632245887096,0.4340843630040537,0.4537102383881383,1.7490883031354034
0.1638295244276762,0.13029206866602894,0.25186224335386254,0.277411809151417,0.3728086014034288,0.38896977612959877,0.3907033899298705,1.7056327828937565
0.16320803674352524,0.14155213707759437,0.2646468175142687,0.2698540944077512,0.3476762102742085,0.3573439819975472,0.3591081918278787,1.7455867229035413
0.238500991372525,0.13564133283132632,0.3560388210756542,0.38627466032995866,0.41509811793061013,0.45816478797915117,0.47838049417791256,1.7958733860859433
0.1990130113215837,0.12919518712594025,0.3135367223376062,0.3394763372837384,0.38192790500332663,0.42720421129783664,0.4317013428526051,1.7801931460450313
0.1573846392270455,0.14645568932882325,0.2861677130334763,0.2872016053966786,0.3516646098165075,0.37321574101872684,0.3565327200097583,1.7996311554480307
0.10600168481782477,0.137587184695097,0.19385588253441308,0.1855258975692307,0.34116443742185315,0.3149282318293777,0.32031372737457625,1.7700109435605884
0.1999728816896921,0.13059340309864093,0.32369047342622337,0.3286513719674083,0.3575942632521298,0.4061242295668009,0.41587611388533696,1.6798989715509602
0.18026283105393215,0.1263454809258316,0.3089462280188314,0.32379752230803105,0.37129433099720527,0.4064487223764729,0.4210426329529236,1.7768329558304168
0.16089124409539451,0.13851453581416887,0.263289223765451,0.28901072531446315,0.3509898996632677,0.35157277457534714,0.37890012788619803,1.8399362939218062
0.10960652618134761,0.14923246298907913,0.2130248729502535,0.2055613882552959,0.3061189273955809,0.31125312109871284,0.3100641288531435,1.8018900594087606
0.14059208111737317,0.14307875968320294,0.2398759453614206,0.25368556188464114,0.30545381876405664,0.32442433068994814,0.3345134617559887,1.8029430637070651
0.17640044728108156,0.1378406989000893,0.28857859587050244,0.2953110663985653,0.32917828169869157,0.3805735877331292,0.4026932498428072,1.7751660088563042
0.16044322486088264,0.1290085138657977,0.2621257263578406,0.2678819680593426,0.30154385750761004,0.3354750372071871,0.3340125490838057,1.7680861503269227
0.09453712700894726,0.1622770552692836,0.17773935166184732,0.18097652795477628,0.2740789800741217,0.2755795403387754,0.28380106311175846,1.7168319115367219
0.11845929378638231,0.1413376662489061,0.23878787087613149,0.24446643885901978,0.28331937245885536,0.2948168642136412,0.3210275805201259,1.7464197585318975
0.1767401031994871,0.1216240074566536,0.312237305711092,0.3312020399830632,0.3489740582367241,0.38513957233071117,0.3981070916460637,1.803008635847861
0.16680316811849377,0.15689616116823013,0.2710969312822589,0.2675298769104366,0.33428985563764263,0.3319486072078658,0.3602341122293825,1.8443108303749494
0.11949890532213177,0.13771914241364672,0.22503343053668107,0.2340365940847589,0.3172800268780152,0.29917908007612387,0.294076598225901,1.6700745466037132
0.117632404379789,0.12975573560716216,0.22093412918280764,0.22491502971051855,0.31450917200675677,0.2897390417630905,0.2775018104902083,1.7835788725472543
0.19731211104990687,0.1230306620548975,0.3414533945157877,0.3807200211206954,0.37025810347695887,0.41081393634408897,0.443789033075028,1.7313876495902563
0.19116583278283045,0.12733079503072808,0.31088952469665115,0.333054952885273,0.3478269635418873,0.37610229312825955,0.3637859569052547,1.7504485850414941
0.16691442092081973,0.13874364315068788,0.2908847339832131,0.3010021537746125,0.34164432284389995,0.3465603245073808,0.3303556424582418,1.7633435652169553
0.10655657210174309,0.1429261737130923,0.2336322123917908,0.24649320301840455,0.29475982849769466,0.2882482719666717,0.27220051990379485,1.738786473315463
0.2384197271238392,0.12605927571592448,0.3677097030648536,0.40598967916952866,0.3656850503763889,0.39496212710773754,0.4276479324258222,1.7358876670771624
0.2525086213729401,0.12004982229306395,0.3767315720409023,0.41267607352282804,0.3503925005505086,0.3988431749396668,0.42844721735408386,1.6539708197514928
0.23548744603000524,0.13070252974991217,0.3621100114404733,0.4064121160541174,0.3763917406867926,0.3976615382571647,0.4028926215671243,1.754358374808874
0.2279481602081918,0.13774314304894067,0.33767489472998174,0.4053367058842697,0.40817821161358897,0.3094842154815102,0.2765103001922455,1.6906912175977107
0.2839268678794868,0.11626162814607852,0.41152636168079304,0.4925676514436372,0.3613958977838462,0.327217733972757,0.29842557168513456,1.6421926337532127
0.3161280834883993,0.1258151918536075,0.43301533856729113,0.5014411790992602,0.36020343508810515,0.3881127472716835,0.36414256212427343,1.8295056361950506
0.2863280106500623,0.11312504536207725,0.418267849756624,0.47507639742410224,0.3300865507017278,0.3228117372783897,0.333616442522704,1.7885137243458968
0.2509523039771434,0.14293618028716815,0.3806083647039921,0.4106499318845159,0.3122342810194862,0.27931315723773276,0.2870459381170799,1.7468612994721748
0.2716723732972449,0.14478146816500534,0.40955087524679973,0.46189059028889756,0.3299468773640783,0.30272444988032376,0.31391789707844614,1.8379330781388472
0.3037433487082546,0.117983943888098,0.4475521597478255,0.51162271957852,0.3625813239797402,0.3883896840007354,0.38282194052401736,1.8337843771743398
0.2794507725781292,0.1375621675751639,0.4187549622603261,0.47660457018324637,0.354572631089589,0.3532328136384613,0.34955229851103625,1.7548348939154188
