0.05739067654504407,0.09934559381453129,0.11392672126921849,0.13822521268904456,0.10147681685377634,0.12618444371627172,0.1549719661837325,1.3652629625852328
0.03657767603949871,0.1072953903437607,0.08758613541304378,0.09923029905493493,0.08570995728948196,0.11016066605513719,0.13427752530201395,1.397789001979855
-0.004577441671112081,0.07873581464973407,0.04727461492743739,0.041069558627610636,0.06912289926583197,0.06771969275651847,0.09544433495390604,1.4126795801779721
0.07286197678593448,0.10078263882357329,0.13645209325875365,0.14502161860071372,0.10984444270067514,0.13216561796097973,0.15278805065323636,1.3991047224638018
0.07689434614480126,0.10414735124534864,0.13905077685570172,0.15037656955192438,0.1341751564029929,0.16094566295090684,0.17329039909054456,1.3919058753234435
0.05901657502769631,0.09776390508332153,0.115578743983917,0.1204901741905424,0.10674533471682289,0.13991449234285808,0.153069011956822,1.4087790793204875
0.020846276158742287,0.0738983516040479,0.06675460455794806,0.05959117676522789,0.09286264909636012,0.09494327914199817,0.09791584982870577,1.3525954353883736
0.09529692313483779,0.10060608939855592,0.1529937947052231,0.18568782840590103,0.1337752987322008,0.15391090505068333,0.16782655260947502,1.3593077160571099
0.09350068429402299,0.09913790787319043,0.14964758262532682,0.16555048700316968,0.1319631770617233,0.16906544612143407,0.1920041956132305,1.3668920586837823
0.07221334889956613,0.10238682053582743,0.11766006510252909,0.13212169834669593,0.12576670124043318,0.15484287229983765,0.1757398170055673,1.3091673482949535
0.019480621609341678,0.0843131779567775,0.06248194539256571,0.06363739373275334,0.10798703623119932,0.10444194531974177,0.11301957347060895,1.4117974807640998
0.09919913586517047,0.09522605281461784,0.150413284552044,0.17946693516092505,0.13081469630837914,0.17351104092649694,0.19728939597576317,1.3596820281376454
0.09529375866231464,0.09847644286502766,0.15360976516841487,0.16653689264927798,0.14120148265725696,0.18491917260206808,0.20679106592671184,1.4037393444874766
0.08750290882647357,0.09929073020346137,0.12137997968907431,0.12481610833653799,0.12515299082424794,0.15620527574459991,0.1728255753095057,1.3707038385467643
0.042317580842752056,0.0929268671519981,0.06777187923860166,0.06573918085358246,0.10551735194594662,0.11788615049439127,0.14121826492312098,1.386413666781868
0.0913936971651658,0.10434093093139302,0.10990892010569693,0.13341049187059245,0.12533901500744335,0.13629449597368953,0.17864818658500597,1.3900763339836693
0.12007415993216088,0.09899241654679708,0.13991333181684149,0.1448067829095624,0.16082409261898453,0.180344393041633,0.21510339353738536,1.3606363057858704
0.07880779592743593,0.09339924633734968,0.12826487524227415,0.1184270004352066,0.1328342627522831,0.1687784585132403,0.19224008881488341,1.4014830630878703
0.04496160449178161,0.11118258310193503,0.07810366451567557,0.052776012330238355,0.10973094938783892,0.13105069369813185,0.13780152067501616,1.3864866468705084
0.07454570689183194,0.10867958164258218,0.09491369250555616,0.08384719650491387,0.12411679446235165,0.1317218892552438,0.14901524444063236,1.4257545082568939
0.10699026026276981,0.11026794712301052,0.14520112579765596,0.13907283624327613,0.15778609533492893,0.1779266034896847,0.20618805815435143,1.4260316558475628
0.08969947097243236,0.11270033180133569,0.11995970025450603,0.10185259896428278,0.14119739972672302,0.16743602224235854,0.17495510951205206,1.3451483312692858
0.038518852132693,0.09484901330026001,0.05975087718893844,0.03286382454670895,0.11030830986509346,0.12913121182977746,0.1323091846656192,1.4447434397295476
0.048902323298337214,0.09683822818344026,0.0477333417147318,0.03342101227465944,0.11455375520293719,0.10292972682051191,0.0998630184838708,1.3889130008500268
0.12419299942166859,0.108056270635768,0.13769290611904014,0.15185708446930918,0.1478453343252001,0.17305129870875577,0.22683243849610987,1.394291839513676
0.09707324319820163,0.10812234239471433,0.1271872300667563,0.12302947603363648,0.1353734463683057,0.15347568139055934,0.17936304525750688,1.4374070471646032
0.06583751113570736,0.08728718681534307,0.08316599329367519,0.062433726879967025,0.12642686445859447,0.13612350787307975,0.1390220647926326,1.4411567978585935
0.013181726451661241,0.09408882613512964,0.015201786116654351,-0.009652693254394164,0.10413589600255599,0.08978208990912218,0.09781536112645771,1.3375650248405135
0.10233529005260836,0.11205132407460384,0.11083742688787017,0.1101400495227133,0.11900533195804405,0.15306741455118247,0.16760876664903082,1.356267773682141
0.10734419880313853,0.10023329935273696,0.12805618536881644,0.12220950875824028,0.13315525050119636,0.15918859873624075,0.17938006838227039,1.3970384953282582
0.08629409380166086,0.10783346287182713,0.08694301313037817,0.08675691281841304,0.10285900431348519,0.1432146784562367,0.15453208375979383,1.381742077806284
0.0373005881599437,0.08918440310264396,0.0301071700042351,0.011462965337552096,0.1036066026576055,0.1023795832409921,0.10111807970677145,1.408629055490641
0.02958860625565428,0.09648943126988513,0.02773568699745086,-0.005438353363147179,0.08355555537643877,0.07767912075618126,0.07382484976031473,1.3734739537112448
0.10997698579220375,0.10841967130295767,0.11098980820699164,0.12166526045653428,0.10752740842927061,0.1384473315936467,0.17962893357780557,1.4168905957262998
0.08849278384601175,0.11110856481423886,0.09971288165694647,0.09320159120730118,0.10441690417966451,0.13716123415684642,0.14819220641737466,1.4311970651852828
0.05205565070086221,0.0909231839997522,0.05862011846101269,0.044156169208886986,0.1055916019270075,0.1105795678999856,0.10711280084539565,1.375961743238585
-0.01874433280718333,0.08724462030784658,-0.014434384409257395,-0.04614361017495242,0.0829168759579208,0.0640370041916694,0.06698965514303137,1.3375743038411412
0.08077266850581492,0.10549438418038154,0.08286171288188168,0.07012874017741041,0.10911932609676452,0.11186203386773563,0.1287345859934121,1.451957812808218
0.0785211867642617,0.09806486016236798,0.08548351588140451,0.07842731463055647,0.11806502094852259,0.13172603508930786,0.16805358289360564,1.4025663504499313
0.05129856275818828,0.09985095820090341,0.05732381292656692,0.025775310663866246,0.10326049916620597,0.10592350428921551,0.12551913639837434,1.4683070058291423
0.004375578953701022,0.09441140308723951,0.0024849139493291917,-0.04736244819326852,0.07537035340614084,0.06467437029043167,0.07402467607479818,1.4197577308932137
-0.014946493960333802,0.09372364551017429,-0.012363923793854687,-0.04975309549816733,0.0688035911867197,0.031977898549258005,0.052459992907545286,1.3792838489090122
0.05792320671980806,0.10680918287859215,0.0832299327637863,0.06330355820581587,0.11300390317933755,0.12217346453769948,0.16003791318845687,1.390703364072978
0.039831797710964095,0.11114083231425197,0.042828989508680665,0.023726384756252872,0.12088261238718309,0.10716969412739095,0.1364847594254849,1.383326209880377
-0.009876041246339833,0.10322810633097836,0.0030342639925456487,-0.043978139104981544,0.08624247560179715,0.0685473375888512,0.0687256923787075,1.3924122441772302
-0.05039437055696207,0.0921009059097725,-0.04434633451502387,-0.08586220493965645,0.044659981857909495,0.02196959931567266,0.009285342355054849,1.383140443525668
0.03720837842983278,0.08913050553978207,0.0617510313060746,0.03534594776114349,0.09758172804895582,0.1051390206702944,0.13385666491692497,1.4579506802976572
0.014294504408556757,0.10630792754035523,0.03864709915806376,0.01649146339610525,0.08394191214998914,0.08989129108444527,0.10771011002496272,1.3488501483914332
-0.011963676316687684,0.08701590784594243,-7.598674908538619E-4,-0.018296151356763615,0.06546335723014386,0.05127466349701038,0.07518246218396143,1.4113643591031615
-0.03360079057071825,0.09857195390453691,-0.026236222704825042,-0.04938854363164054,0.0401200521301251,0.01749750775937134,0.0337232542251488,1.4236503674686025
0.050642039193261296,0.10294939928440575,0.07182037790589832,0.06812479026901747,0.05630456937951223,0.0815120356321795,0.12116711614714976,1.3910071747990593
0.03033437232614551,0.11113162727362208,0.0497923380820585,0.028434285511235117,0.07186686061086224,0.07728204275182289,0.11572194498882249,1.4360125566339512
-8.125414656704882E-4,0.09299571249093008,0.010264431825116433,-0.010496683281325386,0.07027801220452766,0.061387206713230086,0.07210884314944785,1.3655898700681335
0.02440886474919161,0.0793978419637743,0.030463505547362615,0.03800265816170207,0.07230928282411206,0.03946638010824179,0.07150282811547018,1.4096438813641756
0.08941104078795015,0.09859404796776967,0.12849432262290303,0.10817263705126275,0.09526751169716774,0.12058789754791838,0.1659631142183578,1.396145160412963
0.08212680893619223,0.09058609604311785,0.10153800887436364,0.0977765267649908,0.08736545511785432,0.10453798285383814,0.13716581372737902,1.398669797116073
0.04231990568511846,0.10070633185530957,0.052821324890013344,0.04197942246041145,0.07050612062997019,0.07040791420554743,0.09641507868485567,1.39319307919118
0.0944956752894541,0.10760859609149769,0.1302959735581331,0.14672075008705027,0.09046233765315806,0.12586060823091794,0.1545351797300627,1.4149367617123199
0.12536378173967444,0.10046079701307431,0.15726323609359436,0.1648584395563368,0.13378007535673933,0.17138432630961326,0.18934874154590556,1.409120687585164
0.09445318084235743,0.10967040769483441,0.1335113436044252,0.14219897548871951,0.12426044967788266,0.12975010798808664,0.14811871771061313,1.3412228158363884
0.06638374525238211,0.10638172687521358,0.10087775678393558,0.09921318252897297,0.11963169670064652,0.10346793216940073,0.11188004091589696,1.3600197509609242
0.14852466941403333,0.12349760982753591,0.19546758273634185,0.20977031163364965,0.15210983367679612,0.17531034360750014,0.22120204820294775,1.4330819360257947
0.13707465000564176,0.111781288557475,0.1891173144744448,0.18910366212278143,0.1407297732767588,0.1779390923574641,0.20126608537270732,1.4320462922494124
0.10878550052905393,0.10742832861737844,0.15261085086012907,0.15081189353871172,0.14313209500784832,0.13139856807885214,0.16451640321224256,1.4210943317741915
0.09137704791408544,0.08807237264813249,0.12729489409948758,0.13142936100718608,0.12960558450294202,0.1362211382564183,0.15458171527207526,1.442685149292723
0.1733406092988874,0.11451350503917607,0.20519791580516505,0.22930550484006396,0.17055396644509546,0.20497686847528993,0.24021758014451222,1.391044317593252
0.14547075470869159,0.09514066833743444,0.18767066084201992,0.20073179369009905,0.16768312814309572,0.18867478999336962,0.2164409756667032,1.4637787723272417
0.11366869894587456,0.09768359461962187,0.14068521217412389,0.15441554309446726,0.14479871594422541,0.17200552169249161,0.1745600784666584,1.3874813261252255
0.07500301341377759,0.10174539589621151,0.09927109194555277,0.10893512062090388,0.1413899783259863,0.14422255268252004,0.1473739943822735,1.4335212065246075
0.15923587189388422,0.10439741231207249,0.1991193939540596,0.21778802760171184,0.17445798278741026,0.22713231184826763,0.25137913209443197,1.472113984832093
0.14416940234672176,0.1135483971962844,0.18095059188046708,0.2017906940621837,0.18520226478801255,0.22895288529649654,0.2330295992968308,1.4097535793233882
0.12232868364611908,0.11644726605135405,0.14790126459070924,0.15458391874337443,0.17465823101080438,0.19300503359886026,0.20160755816597284,1.3469942375943944
0.07330700070926474,0.10248770798045477,0.0963528666132036,0.09801347060115427,0.14425051293541283,0.15435606685116507,0.18405219640384432,1.4367203570133724
0.14343625776335678,0.11105640176394484,0.17724250506852796,0.19510574338429018,0.17658776903754816,0.2231391059476476,0.24637826752202,1.4485075847766367
0.12188939524749454,0.09318139134406046,0.15911621259601552,0.17102332747315896,0.17991671800056222,0.220521324084876,0.2422474481543885,1.4386702556527424
0.10208342486542336,0.10020494140352011,0.1307698285141943,0.13996587575929287,0.18205832703081395,0.18946007947369195,0.2230420788116622,1.344468291335745
0.0732713947503083,0.0951205102778759,0.09104471528944788,0.105550035614042,0.15454252602964405,0.1671171542106564,0.17347826817618778,1.468756503834667
0.1464548620104294,0.10116180973445418,0.18799433435931556,0.20881641958719915,0.18578252074036716,0.2422025818373117,0.272472349199803,1.3827055489252937
0.12353183571930465,0.10032270855444314,0.1543283751508797,0.18638874948374984,0.1726533199682293,0.22292008267874092,0.24490001223190247,1.4266690158342028
0.09287086814890384,0.10441188024855523,0.12336168160078427,0.14346174008468104,0.1469975073383173,0.19743351166821504,0.2197101185973485,1.405196874605174
0.07273912357191759,0.09526562922384092,0.10189438822504861,0.11872216162260471,0.15415539225116284,0.17269805097838975,0.19191922832505642,1.3675273538374166
0.16374826101557916,0.10591021716100019,0.19166958958784863,0.22547646659109796,0.1834898844182497,0.25410312283909287,0.2777806846158437,1.3679654644823072
0.14765525742351676,0.09106326784136118,0.18240684604079557,0.20075963893472876,0.1817461707304801,0.22388361971453227,0.26258185035189396,1.439361081327219
0.11945130446754854,0.09032956027188518,0.15115097926228402,0.15474785269388736,0.15386313449535324,0.2036856588267055,0.23060225836287285,1.4116912820934804
0.09000020651011946,0.10590442319971975,0.1207985663605539,0.1382051652916532,0.15311159680928668,0.17437683336232332,0.221317236361754,1.3660935843005575
0.16891330194125412,0.11082059021840536,0.2319394508030519,0.25402969183344876,0.21092080760105755,0.2570104057070817,0.30998332640279036,1.4540870075373746
0.15934654206983373,0.10465270234590207,0.20473739541448677,0.2340731105351689,0.1959541931181711,0.24757526224936652,0.28324721447248574,1.3755763315548433
0.1237229686655538,0.0912996771746941,0.1744660147470974,0.19524011247033723,0.17974639966976066,0.22874349034747052,0.2468925235352098,1.447710115254502
0.0780421703299658,0.07936469945349302,0.11461915093375215,0.13255496632477062,0.16024656484666114,0.17820548787757337,0.19953716589431553,1.285763641555178
0.16979685721329402,0.1143429985029287,0.2272045499447324,0.25759918989876973,0.1829131189820537,0.2545977080430769,0.29082499316707267,1.4309771181176139
0.1720809496383925,0.11540469548646251,0.22578499741071192,0.26649103276477903,0.19222703961115312,0.2595200030724324,0.31009610428952616,1.4173145261672253
0.13379920976304402,0.10256663476139351,0.1923306538706583,0.22869562223977738,0.17907071839051172,0.25274090152856943,0.29764039103997675,1.352482547129207
0.08276024607643682,0.09022056743581129,0.12740313820844962,0.15153473074625276,0.16178887588312402,0.20085580275880777,0.22854287239171633,1.4073304854469868
0.11037450926456513,0.09744690574678988,0.160070243679401,0.1951357187022468,0.1771068579994592,0.21904670292726422,0.2671253115777787,1.4057694391119782
0.15735516859519172,0.09553421472133328,0.22709969898178675,0.2659984092870654,0.2149250901289989,0.2877595984917075,0.3415317164697622,1.3965462889274702
0.12618987883573235,0.09274240121716494,0.2081755838945706,0.23410582434208366,0.2028043121786484,0.2626945088710003,0.3038056683866566,1.3996748001910841
0.09058465857447424,0.09409198185494602,0.16265753126552568,0.16987331112591816,0.19445332148139824,0.22899213043897923,0.26241002733811264,1.337619472455955
0.06601092010152212,0.10709676348268105,0.11697038314088538,0.12840639080254587,0.16465073512981254,0.19636561575946845,0.22211664586870206,1.346577577087738
0.139627889149187,0.10583774558978745,0.21593765666310422,0.2295265980409546,0.20983499942820494,0.2602109163912478,0.3088584696027115,1.344873208089478
0.11280109369314009,0.10781791385965905,0.16787528704457702,0.21475593239638366,0.1968613527656697,0.24278921040950963,0.2825207597193225,1.3976550981495297
0.07409419566686638,0.12672303881090752,0.1437728763523563,0.17076497157656995,0.1696803504431997,0.21383859569960495,0.23804727561661207,1.3667202262521991
0.05178267505928783,0.08870241727555232,0.0941837289996097,0.14061536500899532,0.1529940357298964,0.18291189576033648,0.22145750432089228,1.3370423085266574
0.13912570911074454,0.10129941763116815,0.2042393981728226,0.24082355788098653,0.19050523492957291,0.26277822284468305,0.30509138322206725,1.3842678782808808
0.10671204683577863,0.10895398216873199,0.169799993616836,0.2012204308990434,0.1802487068087447,0.2434100208041148,0.28950681366589803,1.3971747359317004
0.07325213545498048,0.08620193474354433,0.11995928594604958,0.1576112532039213,0.15532510749358264,0.1949046853370699,0.24382361873248992,1.4472953504843735
0.06518551460437597,0.09413384152086574,0.11373208913488275,0.13831437698869947,0.1366485873993287,0.18368077172370456,0.21643756850254037,1.3285978560801015
0.15362794635283597,0.10006860654224711,0.22912375805006757,0.2660847299180242,0.2058271565685497,0.2644273070411324,0.30964037656535137,1.3734970654843395
0.12165296885975521,0.0981830525722981,0.1936624011438312,0.23735483508857697,0.1962752262724084,0.25337483401781025,0.317145242728594,1.3851766775396646
0.08022364459296732,0.10465240718287053,0.13711254160466355,0.17213837623252867,0.1802257160940296,0.22378050591503773,0.2636464597602136,1.3481009291169674
0.05433773664202825,0.08928767827116657,0.11063920797478287,0.12874039764196826,0.17103097617171448,0.19171925797155445,0.1984760904319064,1.3741584998498788
0.1308816222146997,0.08364882051835668,0.19712115897967208,0.2376763853109516,0.20207229267587296,0.26621420208458163,0.2795602555521107,1.4565662054098847
0.09528089825055783,0.08144600101480959,0.1599499143288097,0.1977715289362964,0.18988342151752574,0.25058897184301504,0.28430865607761613,1.4219196719995784
0.06647965492127346,0.09059494058618603,0.11242356243135442,0.13192982595956312,0.19566674405827658,0.20238092021494203,0.24052679931226212,1.4038025588981784
0.07283109137796748,0.09645688914879587,0.12990084301078306,0.16043220760782928,0.181169179916269,0.21611294071186038,0.2564043137653664,1.4014683882054801
0.12142455595707093,0.08654529044704588,0.18816680366473834,0.2287794643636479,0.20958500793968662,0.26041398957634043,0.3095213424729483,1.3454554566042964
0.10098088414476801,0.08186400712028297,0.1509099613087511,0.1986406341124592,0.18642328896298893,0.24540395524838854,0.2844654380200371,1.3799836492647466
0.053082110139292434,0.07656811052661724,0.09785264316282777,0.1209750278847817,0.181800675912371,0.20971101576016613,0.23035075498071067,1.2701536864098086
0.10746458903095324,0.09855848105965183,0.1758015568704413,0.2197121664133061,0.1953642038395884,0.25023527244630417,0.2889876974109477,1.417775034331262
0.11871839053785338,0.08905372182910036,0.16852958976859003,0.21951764238245453,0.21400095461625784,0.26723123527034204,0.31282583231273586,1.415693864463801
0.08076742528409833,0.08775201829642473,0.13095210821236689,0.1711879386454615,0.18443944490933606,0.23384265946346688,0.28431449747424287,1.4235214049568576
0.04470136906102136,0.07708388228947666,0.08840638770988046,0.1361887144327535,0.1568149030483799,0.20509463043234616,0.23615534630570428,1.3897862532958003
0.12347153878910391,0.10587106974544222,0.18337673877195357,0.23134622531343502,0.19830495701299872,0.25948195176026206,0.33319781102708157,1.4208446231977057
0.10226487486214408,0.08544639260741782,0.14245912548990394,0.1917586982797665,0.19767747306158767,0.25989777890175625,0.308617137834342,1.401858700559604
0.05287626970359196,0.0875021471839861,0.10065987503783852,0.13242637401163965,0.17591524821643956,0.22761373779377253,0.26392422119120057,1.3530289884414155
0.06343439192007705,0.09662517659538185,0.100724075574775,0.13487443040659478,0.1838188823800771,0.20876518684129755,0.25455956179176764,1.3766103479596645
0.11482161611156613,0.08284326301284974,0.1669811085151994,0.20743231766843678,0.1844299815725144,0.26979798752001394,0.33173988371119684,1.3828018863116665
0.08644264716945416,0.08131460904179796,0.11826240317406095,0.15967746513318204,0.1893211758731715,0.25516444577052283,0.2986851025347308,1.4286845548212703
0.03952222834606246,0.076053505135352,0.07968871325643284,0.09403297307244816,0.1724940542193858,0.20444189261310666,0.23615755223351687,1.371979568362059
0.0804794699201366,0.08965372578139258,0.13228479697700604,0.15608756666511067,0.17235467955239692,0.22881498639418865,0.2718997412271115,1.4838838859570096
0.0949599501204422,0.0841920819405022,0.14108743117687755,0.17861888850465288,0.18787925108572628,0.2558535569096246,0.31001229405748676,1.4099822134338114
0.07349328672881911,0.08569159151537362,0.10760141553457314,0.13909205860654272,0.16637169086000833,0.2354209720680775,0.2858620763923884,1.4211139926564267
0.03287215319285974,0.067078624634334,0.05666783417106697,0.08925522315222087,0.16872335563493518,0.21390343660485506,0.2472934207047245,1.4280532798620256
0.1139861443233873,0.08892757159983496,0.16166558339238535,0.20733374904927143,0.18960505875121908,0.2626224046708433,0.3292433759068568,1.3622992740018063
0.10158269461060798,0.0983365865257476,0.13830702371618706,0.166640611077086,0.1976164695426286,0.2613355292740096,0.31823812564137527,1.4221417200269892
0.06031197324544945,0.08286220425513328,0.09751135621762455,0.12258016118819093,0.1787838562500538,0.22468378127454086,0.2867989143638943,1.368157827827904
0.058646489100828585,0.08912691481957437,0.09612215238990068,0.1108416145652803,0.16446708504144814,0.2073913304019911,0.2461103753670048,1.3950701117117443
0.13297954897623665,0.09182543231711053,0.19145890230076065,0.22294955722145537,0.20366139174905556,0.289237777324994,0.3463316576831355,1.426893743182786
0.11455514885413243,0.09401760153270164,0.15830379191909433,0.19606695616094305,0.2049520181943642,0.2644309280004839,0.324633880496965,1.4115805424187065
0.08300245104946419,0.08524033574409792,0.12971706055189205,0.14190435787906866,0.20690931052154685,0.24913460103929552,0.29219018629387616,1.3780620954760772
0.10432439737868761,0.09036602831985935,0.15537833825554037,0.19392045046825804,0.16667014543330141,0.2778907249591038,0.3276708054675866,1.369194000847858
0.14646882115520515,0.09269409312152434,0.2058251946739966,0.23957652968943932,0.22145678965594734,0.30412908889698126,0.3713577023153781,1.3929360311094272
0.12485528478611693,0.09196762688509837,0.17267425536184797,0.1978052523148905,0.19945478761811575,0.28768165907912835,0.344319268794395,1.4109411020353293
0.07269849976990217,0.09042177690238472,0.11543913627981273,0.1300630322481454,0.19124630716235214,0.24748246058469742,0.30051417899620486,1.3861210363146617
0.1363088895667322,0.09269045525123307,0.19244068981340373,0.23169720920376352,0.2014138204274683,0.307024115162566,0.34643399612331144,1.4680259919784868
0.1406686097164848,0.10992272802566541,0.206024670807461,0.2348241977173799,0.21237188780067112,0.319573213180371,0.37247345951299377,1.3723776940138195
0.1091189491237137,0.09616004127056993,0.16877099075643393,0.1899093308733541,0.20142066661819447,0.27177390190994377,0.33697053538667804,1.5063861759189996
0.08139314379094073,0.07816400541415752,0.111237940986295,0.13090735679796553,0.18385818595058465,0.24330913958524644,0.2888336874594203,1.3551214683557924
0.14548614895601417,0.10530988431296871,0.2070963301527945,0.2430483315523095,0.2195705879089907,0.30372848190722623,0.36475090133889637,1.4240371609151596
0.1232299019737881,0.09557547278853964,0.18816773367190137,0.2023619471194913,0.22216726078214682,0.30030545237583534,0.3670025431395633,1.3874694295540628
0.0976259618858432,0.08347520300426503,0.14785729432338462,0.1730557765069078,0.21380318028939674,0.27149165210070614,0.30891496944887986,1.4247421918654146
0.07734170770957255,0.09887788156839504,0.12532216781035646,0.1389768344860988,0.20486174516547076,0.26604625870899623,0.2925934971601701,1.440578234285719
0.14196592198750566,0.10530633885235113,0.19972629560801222,0.2308691827901233,0.21744014920972984,0.3174433082275706,0.3823971671176034,1.3785207587962673
0.11370019605179349,0.09861634034252463,0.16438871416357637,0.19092715555956116,0.22115171446128923,0.2831905922066287,0.3488962824556394,1.408550420278377
0.07345431146147702,0.08150514674030723,0.11112596165397051,0.13419357767370102,0.19651862271506432,0.25254309594078805,0.2990470565599281,1.4008281075537168
0.08726309812042468,0.08952281076078149,0.14798265132229255,0.16448076502830986,0.2088368898775839,0.26464098027309296,0.3143445217768244,1.472580677884125
0.14214157416997675,0.09213604188206673,0.19486714236983538,0.2331134842254688,0.2327901800747045,0.31624125668991915,0.38118330900600855,1.428110947751404
0.127401917926418,0.09159920232069481,0.1662054060058668,0.19168489834236963,0.22057630910638348,0.294920098365271,0.3426206921824385,1.3806057694631695
0.08261572803096287,0.08961504504353879,0.10993194582303337,0.1348082199215578,0.21203749284282197,0.26180027198246186,0.30518360127828653,1.371353840320349
0.15420621782468147,0.11196473751459021,0.2033032938232338,0.2404626702202354,0.23039386330778058,0.3123214407795506,0.3825481466063619,1.4326432612822948
0.16712811471382738,0.09652768446919571,0.22007256506565437,0.2583849689711454,0.23175387763868888,0.33671913849423235,0.4109108967768233,1.435737567945498
0.12365545088447719,0.10132784272699985,0.18611657892926392,0.20585661199668676,0.22568252666480135,0.3097272759431139,0.3642910255160731,1.404314650902684
0.08321523701898403,0.09160159586454984,0.13388065619929188,0.13782194520848548,0.21127346292908297,0.27260812317709643,0.31210253939718313,1.4450791281786188
0.1771938148070933,0.10610866557760179,0.21244699885712892,0.280346570682508,0.24027405610274652,0.32724037957382224,0.4049233076864726,1.4156698683641056
0.1600231144850682,0.10130172719335913,0.21650458923450014,0.24201849412162055,0.23464192853882704,0.3269826017814389,0.3972578586316462,1.423294119866863
0.12243624899726907,0.10206700012724829,0.17099824556334753,0.19562673572870068,0.21613947254260496,0.28516095334987357,0.3302285704487029,1.4274624663895215
0.11237251813978788,0.08089858510490622,0.14593389883322405,0.18055094496180418,0.18811128456227139,0.26599204226080203,0.33185517523739744,1.4166275516085332
0.17644236767273885,0.10605029405122794,0.22755004926701036,0.2677845364610223,0.24394213064599224,0.32970577163410547,0.4118881606305693,1.473978881378252
0.15072870719424752,0.10188802062288331,0.19395407062309422,0.2316167112305834,0.22163788437139922,0.31036778660472747,0.3848525904510903,1.4313113151985903
0.1019735169046882,0.11158788920063246,0.15240371621210022,0.1658565410030227,0.21738643773437497,0.29258293566361027,0.3410814382589753,1.4296465502277764
0.12041646715251803,0.10453909109155893,0.1796316685645948,0.19244619129286158,0.22590622459440274,0.27916277798292805,0.35405172917549455,1.4454724558552954
0.15447977004118785,0.10568966097043478,0.2107997440143054,0.2342751189659302,0.236628411077389,0.32452387170384234,0.39733248908758434,1.3993986523514113
0.13284267657078164,0.10636883172677182,0.1771679975915229,0.1940512939587387,0.2496990955632845,0.31122765659958396,0.35559524061563685,1.4229800292938912
0.08624152481542707,0.08035774797795026,0.13598991547246883,0.13867238240539193,0.22582016983137596,0.27263623706809853,0.30965725620090534,1.42210771731876
0.14551452159487982,0.09276614226951596,0.2002090131524974,0.2377232490503091,0.23456020273527575,0.31027770347913164,0.38507931594789957,1.4324500549636325
0.14667559634635852,0.1056779911870131,0.20552157472324578,0.22189869071862217,0.23646798103826494,0.3147133878448364,0.3844009034924069,1.4902296246073237
0.11643185702730646,0.10824110681765745,0.16506955352863528,0.1734848332330628,0.2257791211377192,0.2896322227953755,0.32379361299104664,1.4267312931914218
0.09532831289474364,0.10404407713549142,0.13832187653775818,0.1702345173081572,0.19991155007263683,0.26441677128617,0.32190389730184815,1.4781688682594045
0.17453768884707885,0.11246715175786129,0.25159261328635046,0.28031928593560324,0.2556627728941603,0.3373145941293493,0.4142191344600263,1.4517511882004093
0.16231037798233466,0.10586540967917592,0.20089389087155327,0.23078692911894094,0.23325387307069842,0.33152018675247813,0.4021629961626812,1.4651182757356893
0.11551446417864983,0.09689190779202488,0.15356496128562047,0.17008126539888996,0.21956457627805404,0.2840473226648292,0.3561803623926327,1.4462167374932662
0.1605563138518319,0.09836551888039717,0.20810149720709495,0.23802472144693584,0.23456838685466455,0.3144228356550523,0.38567050375067313,1.4346374537150728
0.19191045987560315,0.11212098404433325,0.25050246491152284,0.2866847051757573,0.272412001586011,0.34463206202412183,0.41227283465173675,1.4343897008570006
0.15465190385094063,0.09836764843738716,0.2204993498999536,0.24276996768509743,0.27279122765775554,0.30711004906015127,0.36130845552302787,1.4604269642771717
0.11862406090355626,0.0917200802167434,0.18429745862281605,0.19633106843411596,0.24476903376373801,0.28262606654339345,0.3453968858684789,1.3970536243052531
0.19907490751881488,0.11689645677785751,0.28311290377074405,0.32398549012119476,0.27291974084327814,0.36910247195485985,0.44431408584590193,1.4660171876902093
0.17398679713997114,0.10350976709893685,0.25156696881139606,0.28804548889728776,0.2794288549730931,0.3596095530419128,0.4322595423507812,1.4261935421735448
0.1482767719292214,0.11133347373719796,0.20466330765765034,0.22764244314617285,0.2568593882100753,0.30168300876892007,0.3845050068485012,1.3778939652016486
0.14040627744606335,0.09742729293727588,0.19764358770363583,0.21498890681819477,0.23860732924050132,0.30489928175768144,0.35928700075924613,1.3901488584042463
0.2016543248709681,0.10838105184064646,0.27271874066695967,0.30716927003386146,0.2615675400982772,0.35832434770104266,0.44232614428344913,1.3984056027248468
0.17722907074542324,0.08837006909591287,0.24213690701060336,0.2773423667573245,0.2516108260580573,0.3394821805385324,0.40865567918645607,1.4853094872452122
0.12491682121353871,0.092688235271712,0.18471605315027723,0.21343522817402444,0.22692323732577005,0.2960020909491967,0.3668726875017414,1.4562939740598628
0.17594549132133797,0.0952931410365522,0.23737300120607518,0.2717823215342898,0.23857627057648767,0.31844939268565176,0.4017305292258084,1.4543686951011219
0.17876706585261165,0.11285488748891544,0.2576828852514074,0.2790271718270273,0.24187526150178487,0.3429206029933317,0.4096833731200683,1.4307137107830692
0.1441806206288742,0.10662583255429856,0.20408959834970689,0.2329250656188956,0.23525478296965546,0.32237129438490325,0.38750305053349976,1.4077965171619433
0.10392263481974578,0.09956602524479743,0.16883859530334336,0.18479764037613838,0.22249111082804693,0.28505223261735124,0.33381863118771865,1.3685649442217556
0.18196117106000242,0.11328230059129098,0.25334319003838357,0.30154799387313513,0.2462499412754603,0.33333476102755427,0.4061111310960661,1.4459864652863013
0.15230965891044962,0.0937770432449824,0.2193188212296838,0.249402144605613,0.2576962740777393,0.28878301694489705,0.38088113672332163,1.3802169195553917
0.11530756257506239,0.09136423801863032,0.1800665125388342,0.19117822304768203,0.23731090278599487,0.26984513117736386,0.3299208450434886,1.422625679602997
0.14482648622598285,0.09963594183600452,0.21275293656596952,0.24566090685832095,0.23920010620366844,0.2975050959164791,0.3482858046831226,1.4666295178220548
0.17437846265467977,0.10491721921595769,0.24681137578417145,0.2912861504288011,0.2637817049330015,0.3318240059046669,0.4061977742291265,1.4099710674967272
0.1458993615555091,0.09587356441160759,0.20316095560901454,0.2325304440215523,0.23884691875444147,0.30308666163860054,0.3771963023313593,1.4427585988625735
0.10609005404200997,0.11283048253743955,0.16375716936878104,0.18981337926356312,0.2230295191700392,0.2745297830348467,0.3270539252982262,1.399828469120338
0.1969217471562602,0.09887065005330287,0.27360530051866716,0.3124532022606896,0.25402168862555935,0.34844510206082435,0.40933179063163855,1.3826802692453186
0.17775664406297642,0.10858315788251477,0.24264064879757297,0.2749194768633119,0.26226308125619313,0.3208296055258718,0.4165816573092777,1.4277342829652862
0.1308816535661849,0.08769175185124632,0.191323954480175,0.2242683362716736,0.23784236508611742,0.2983205648888937,0.3381793605789938,1.445532687216994
0.16949081135472693,0.09758944075543881,0.23226157885900006,0.2787634508584978,0.24355908434727075,0.3126645073505317,0.3738526131794963,1.4623916597647109
0.21450910934147047,0.10778624591949314,0.2757369387989218,0.333153816964392,0.2639503709542139,0.36142879437265024,0.45449905796165596,1.468842829057787
0.17800567694653785,0.11129262381515448,0.24785726023997665,0.2944217152433567,0.2618632939138236,0.3202724884586662,0.38834900468961947,1.3908527443196932
0.1563579907948863,0.09929129960729105,0.20911651980799756,0.24290673412223146,0.23732717879155826,0.28890363857895673,0.3422494592748995,1.3794793470272895
0.24272107603973175,0.12654611490368767,0.30131720238970566,0.36903802662004664,0.2794652564178975,0.3657633815523805,0.4187811383584301,1.440481996486682
0.2050805701262786,0.11326332339274339,0.2658683748308406,0.31962051704740135,0.25937641361685776,0.3556407212470543,0.4132767459495755,1.4170487440503723
0.17131701840723004,0.09662572779836068,0.23688325106293528,0.26321750383388803,0.2619202671810786,0.3131035276608659,0.36439789239515274,1.4418350298936824
0.19084050377625325,0.10033302872360234,0.25882657832820616,0.31594388170269727,0.2721450689965557,0.34533313488477974,0.406293687281168,1.454422236591185
0.23109707262530776,0.09579476239930759,0.29700340775432427,0.34862005499329174,0.2926716863512688,0.36847329113960037,0.4519860647396644,1.3808775204415942
0.1913392837128707,0.10434214956550251,0.25076363702911386,0.2911269440702662,0.27527206865456394,0.33673331410380924,0.40224728661893716,1.3780783178141047
0.14940329409121034,0.09609571994691535,0.2100293726276919,0.2546066631624417,0.24448256412420077,0.30211914517795635,0.34405397374638585,1.4120349816420807
0.21855323052955405,0.11592086807872744,0.27941062103065456,0.3365956133440511,0.2848078921248734,0.36023015678680026,0.4340456031418626,1.4145906606462937
0.18426798276095166,0.09325553888930654,0.23790072595346984,0.29357571270125704,0.27701382844399813,0.3282365421221426,0.40482383653377146,1.4067405247434646
0.1590173747028334,0.08163030283154464,0.20411896143778818,0.2326116094467233,0.2590086634771185,0.28643536865568653,0.3475099859495566,1.396005021269242
0.1917264017445417,0.10655602928759492,0.2375141235956739,0.28884949666245757,0.24829832958315473,0.29638653448516744,0.3673277095793496,1.4176787200861514
0.19502606863629704,0.12018854602347442,0.2564059593324301,0.3038221986963592,0.2777267492962104,0.3351173613892049,0.40453504052253975,1.4955929929169325
0.16606159769368342,0.10475042225386996,0.20655003774574401,0.2571437616452251,0.2523544372010323,0.30378624120449293,0.36049686017264815,1.4488530685265266
0.156173845808295,0.10350834335553297,0.19833163502714138,0.2354154930785935,0.24074338003347454,0.2878781237128012,0.3344873084356305,1.4327207256272485
0.2211499655452623,0.1116677113844502,0.28007891289511283,0.340421869961311,0.2640611273448072,0.35872118841000056,0.416912367525908,1.43995420626219
0.1890287953315346,0.10092640399164443,0.23293815045639638,0.28270430899358356,0.25842105254017494,0.32857417589921356,0.3876628450384768,1.4497148638173198
0.14410102635027514,0.0837442502213048,0.1825053000749137,0.22153503518725629,0.22603691541333423,0.27117225611939016,0.3163573587394488,1.4805051871235166
0.2216263135018044,0.11557627960298941,0.2862148157991834,0.321230711691127,0.2568897395294027,0.32364599420804463,0.3927576086688219,1.4307212197527028
0.21565753374486069,0.10620493856294214,0.27192462487505875,0.3206084782207521,0.25048895503545654,0.3277114106064735,0.41935663329700756,1.3894139178973774
0.19237732688471806,0.10679510141187853,0.227989764060695,0.26008299663211426,0.22742439860743296,0.28703033669835953,0.34620423861235583,1.3847006617771338
0.1705018851310422,0.11999208345215899,0.22076967622515953,0.2574039466414602,0.23102197564765686,0.2644155694846077,0.34403571077009965,1.3507217756956418
0.23675486453985192,0.11509031846199812,0.2914497513828007,0.3414807525705413,0.2624570021451243,0.34700577191381843,0.4174905966198407,1.471788625136098
0.2006818399102133,0.11907655565165365,0.2650893092118161,0.3073959575729777,0.2694786904682852,0.3108001786467579,0.36151246202229537,1.3656892103888283
0.16341363660800945,0.10223419926629915,0.19991429672453467,0.23107862110999244,0.21739408046061837,0.27802034575232326,0.33519723949170527,1.3940385841479257
0.2170243475561917,0.12924577985410207,0.2888914928346345,0.32996951226356364,0.2596678556131513,0.3300593869903473,0.38914891859499245,1.3658212912712306
0.22238041222328517,0.10204319303350033,0.27786515324405503,0.3220270258803058,0.2710840542372028,0.34221320067539907,0.38577725518770956,1.3574124351610588
0.1754672025262859,0.11872847364333299,0.23311239628044853,0.2702894082288597,0.24437868670278115,0.2877786525022975,0.3355549416385511,1.3908953977117537
0.15676936274559167,0.11805531441225728,0.20765377847321662,0.23879497873080055,0.2432543400513838,0.2714899615221928,0.3073961149163787,1.3101362558618088
0.23516015701356063,0.1113885750565497,0.29516123544691214,0.3362585001417599,0.275791716139892,0.3330152310898362,0.40200760224773746,1.3113573714106583
0.20153169379758182,0.10054716225486454,0.2597402489981452,0.291479468438661,0.2396386143311979,0.3048156490258766,0.348257841495492,1.3205382575929872
0.15694913756318218,0.09385985734455833,0.20203329534938677,0.2335957685800341,0.23045381458175018,0.2501261950955499,0.27828838662993993,1.3182209394566038
0.1985485451858717,0.10002273989527824,0.2533086123235627,0.3047112725371035,0.23799161408413239,0.24744176256563,0.29988582923652046,1.444434843605054
0.21396435484740248,0.1226863725232081,0.25979470682949285,0.31435686479346975,0.25787965431760196,0.2970066445930813,0.34497042370063735,1.3332017497897208
0.18055516877158242,0.10381992855776022,0.22577765404213054,0.26682458216332056,0.2596461705790887,0.282690066619164,0.3302933176556708,1.4511289073110571
0.15358232986296197,0.08298942708314311,0.19706469583176855,0.23861175322201122,0.23667651351731536,0.23723500345194276,0.2864474152849201,1.4370033854815192
0.2186005052594024,0.08639256225010568,0.26919192078967896,0.33211029208657683,0.2643215508268904,0.3138745730467819,0.37088398041774095,1.40216054885617
0.18841758211956777,0.09106509299506232,0.22561606610015475,0.27184392445511707,0.2569931108556034,0.2731951398960835,0.3460815517130541,1.3729062045487266
0.14158620519335696,0.07754822309723756,0.17420719635164544,0.19194851355633885,0.2302455079614546,0.2243018250884979,0.2710048191229744,1.3724907154321992
0.20794126638433064,0.0974717484754162,0.2534131406193346,0.30189803918459346,0.2600618217055992,0.287100625299816,0.3357172518269691,1.3846484158606032
0.2027158454569916,0.09647963884901757,0.24491422610540303,0.27258057294192456,0.25569102092140106,0.28551706032041124,0.3615046832672987,1.3983672398314855
0.15967261319576226,0.08310723404510442,0.18728912405519021,0.21887928646739938,0.24252823778127966,0.25992580137924015,0.3280830073342419,1.3856798075805121
0.15971190470577373,0.0871085289856117,0.18953145287202347,0.22140848068705016,0.22943023170907162,0.24638417177310248,0.292010442609024,1.3680863982957172
0.22329402975384743,0.08529038712892373,0.2668112373403027,0.29041047948789533,0.2583497866170198,0.30641201825807773,0.3554646196619408,1.3519907870608692
0.1823697691778459,0.07939298985478528,0.2261809567204281,0.2445904530994208,0.23754760304207673,0.26741113958215945,0.3195898647553493,1.4017427028911542
0.13633786876157586,0.08228269119456923,0.17303774475806366,0.17981405899882263,0.22891191960579246,0.24408307171362414,0.2848006562184013,1.3983358983073275
0.21314121875344383,0.09659377148884185,0.24709428811205053,0.29533826440472055,0.2735497550688994,0.2939495603947452,0.3765521274764345,1.4695673250316457
0.18985564872564953,0.10035008966633668,0.23320016219251294,0.2656009191582359,0.2694076651198212,0.30171932185387856,0.3610257381679911,1.404093189296071
0.14778952183119465,0.1084354493267166,0.198090303941604,0.2034455411210267,0.23773433534063068,0.2683130602665703,0.31743401161624274,1.3836600971941104
0.15182621220870707,0.09428546537288397,0.19952438299730643,0.2110261303809504,0.26047952631788723,0.2519921430229483,0.3033145800683586,1.3966550599550067
0.20334275372140542,0.10384910235324062,0.25317086245623166,0.2740678608797289,0.2797013312134973,0.3092965267103539,0.3731197011575496,1.4135195279500152
0.17194631410169509,0.09869224713432002,0.20210105746645848,0.23326800485301333,0.2755028467838125,0.2804474685074054,0.34617866897244637,1.454625591361451
0.12487561513859911,0.09352925037387869,0.15466128653717987,0.16028845672981543,0.25307481873454957,0.24572353289736243,0.29740122569807625,1.396632681481559
0.18919589593969643,0.09813756497481793,0.2419249726670029,0.2696168496794236,0.2746539568057338,0.30377767496806063,0.35745536655587623,1.4323914246183007
0.15878886934052044,0.09502990122605483,0.20312251426200045,0.22202365515157027,0.2661900067443773,0.31052559018683523,0.35281057466292975,1.3511035210549889
0.12679126669881263,0.09511761762004106,0.1590399746521045,0.1553458816738263,0.23770678552311308,0.2574553466049902,0.30433930250754854,1.4590328616430364
0.1446232984957212,0.1070446950235856,0.1850403774788214,0.20384858615717466,0.2507256720075143,0.26485642202606274,0.31246298516841214,1.4649230381691374
0.17826251022671719,0.0855760403867036,0.22349572500190862,0.2381413968486119,0.26858266910692546,0.300486675788824,0.3605332713221644,1.3905294267201462
0.13699961365615404,0.09198304178504718,0.17911106745106925,0.17391297274139633,0.2482759522055428,0.2613504221974037,0.3124881314220459,1.3898850934255145
0.08849768006698892,0.09234526291416215,0.13182629517243047,0.13399160474366018,0.24979184850887115,0.23542278505998432,0.27070973311896723,1.4685538403120786
0.18996938856099818,0.10146352567321215,0.2399830473709743,0.2548882938751222,0.28153584938762377,0.3230763539303765,0.3804983833207731,1.4388081144452092
0.1542111465962761,0.10369706782380017,0.19116110415647064,0.20862551610111785,0.2689665493586379,0.292858132173549,0.3497521482008711,1.4153414195351712
0.10779447300056402,0.08151595033938984,0.14423639552341666,0.14310584455681535,0.2576772745614866,0.25385673284720855,0.3070149783405108,1.4182181901673567
0.14182881675506828,0.08580898911002235,0.1763246688896209,0.1967331521123405,0.2698317736373223,0.2625792416323476,0.3111270200800979,1.4786713758829406
0.179186819689861,0.10246426092194934,0.23329541636110776,0.23952702524478975,0.28104914528720515,0.3406676891752725,0.3762065998825854,1.4386436855344202
0.137260538941201,0.0856251519223603,0.1845768306505442,0.1895994196248884,0.2780379678227157,0.26868518953138054,0.32891087509372047,1.4083323938020387
0.09207395708451527,0.08523781550095151,0.13017516925848316,0.12107016281632471,0.25189685553113866,0.2531312782533158,0.28682723998783366,1.3832497243182584
0.18090159658887375,0.09168509519743179,0.2383936810468266,0.2609968862778963,0.3094729498851968,0.351337654847068,0.3952205127864049,1.4466632623825455
0.1519314261070289,0.1001526880752447,0.20125537429071755,0.2271768770231617,0.30114476273836127,0.3267312437543664,0.3917534304063286,1.4515056035764529
0.11515867632014336,0.08923344516067463,0.15373473213105449,0.16049447855853255,0.2844033749391588,0.29089826679057856,0.3346852707247563,1.3527344848442646
0.13077202882438133,0.09251827112159483,0.165945834590783,0.17362185944892933,0.2928960897949567,0.2762269496843356,0.34186524257363526,1.3874855807664572
0.18380788598273323,0.1044285996207399,0.23743009493708536,0.24911001748603945,0.3117886683616798,0.348508547790466,0.4259183391648501,1.4784406260645258
0.14966858980433112,0.10559728832975762,0.19970350129171993,0.2091137429983479,0.30177666502198786,0.31941051988560976,0.38921628728384045,1.4129662409930548
0.1059820391621554,0.08723758768968155,0.14650674333796787,0.13768852296808032,0.29833794686052406,0.28707210064772737,0.31288927133690625,1.4077039497698558
0.1788202374774802,0.09066848503953724,0.2239229910259095,0.23997755195395684,0.2958620211562761,0.3464615221111827,0.37581383126124124,1.4137054820702635
0.18304719212188902,0.10453233220711888,0.22152874216280194,0.24582678416788017,0.3355072328433689,0.3619689448433319,0.4146275377190263,1.40866489990208
0.14153059963740647,0.10222566691081132,0.18393700770505053,0.17765804857473308,0.3204260954705078,0.3377525321744353,0.388470327439016,1.4562864302234555
0.09760415321874633,0.08389571922792637,0.12144144004469912,0.11780975983225109,0.29203242409846947,0.284662928588071,0.31294217528125023,1.4624568962670896
0.17818431033719795,0.08638426236300005,0.22141615257549913,0.24349355682740215,0.3347950649663244,0.36434338315909026,0.40560288880113066,1.4951906637763843
0.1347563028484102,0.08014101428139074,0.1755817077155348,0.1860774626126636,0.3070759093792241,0.34241705749468593,0.37140285588628685,1.4717144729391207
0.0881245672195802,0.0834252497262721,0.11690430566047337,0.12299439841621827,0.2849673507337053,0.294225854853612,0.3301043592818825,1.3564507351401467
0.10348743777678357,0.0817469875327432,0.12713733303104577,0.13589338052896124,0.29912345477229507,0.2926079209935514,0.32714081101439746,1.3951220956199302
0.1318449052068964,0.07976248309582248,0.18240566416763299,0.18157941538976607,0.326084768981341,0.3420316958862199,0.39199757638473354,1.376749166298202
0.11103192369173451,0.06607453710189518,0.13325037808791249,0.11833519090814562,0.2996015523752769,0.29399685295577427,0.32110274803998307,1.4177596299754358
0.05189251474728883,0.07212233377006635,0.06374326698322233,0.053607457118171054,0.2828746900593482,0.2391406994763395,0.27180563191574014,1.4598509773690926
0.13333716179196026,0.08573660117361272,0.16963399446286895,0.17125960229576317,0.29779611697320174,0.3126833306096618,0.3660523385567735,1.4283497568597587
0.10807272560488723,0.07248540316400263,0.13365567461647587,0.132842448262931,0.2955198004723014,0.30024346201026886,0.34844193844884824,1.459279451781935
0.0690508966292938,0.07571130979574349,0.07104428905138174,0.05657034049754241,0.26892195678452485,0.26590269675288203,0.28450622573128054,1.4687773597685307
0.07950608270155567,0.07833577519615274,0.10447332348054392,0.10377233513740033,0.2727676084855589,0.26473026260299637,0.3059794514916786,1.4786317312635013
0.11198082157260505,0.07885157439980048,0.1565950872020953,0.1464572929495473,0.29991403678553763,0.32300724749357723,0.35865704223567857,1.4133809814023208
0.08496373894699799,0.06905107983127193,0.10555528440184517,0.10149842833964295,0.28056114662313103,0.29759710793275523,0.33202668304173294,1.4342741132074732
0.03776289816754502,0.07720732540361525,0.04795043636518431,0.035359390272694774,0.28046810583215087,0.24288214161197524,0.2782010379904395,1.4734563800728118
0.1352927602124685,0.08178649874001234,0.17969878439012466,0.18076550392836702,0.3359360982966062,0.34533126162933486,0.3946360636179436,1.5133933957527603
0.10945129776265101,0.08073340978643334,0.15912455957997243,0.1533904307173488,0.3319240855683913,0.33846433415825994,0.36507433109240595,1.4112234043638854
0.06806331416038613,0.06936627408437614,0.0934656395109863,0.07789688148883814,0.30776931246158956,0.28183412540850983,0.3019641162930279,1.4764241550750719
0.09706573388761425,0.0754176631862366,0.13857154412753894,0.135292275531443,0.32268670266671423,0.2913813393476409,0.32943685081394364,1.4190533541781682
0.1293264202526291,0.07930963636027918,0.17009105291102358,0.18186763928685062,0.3438501291777817,0.3329906845816149,0.39826628892456006,1.426001120952444
0.09435204659962407,0.07807770494266142,0.12915566418887997,0.11291806074218974,0.30883105709250624,0.3045723298883103,0.33934205350172514,1.456043226637755
0.033861842133437514,0.0669982086834134,0.07602233126516067,0.06266820795455016,0.3064614823516226,0.2547040673016355,0.2792357305528844,1.4493379224870027
0.14001237192386168,0.07155351216307519,0.18606021677528073,0.19392957167104546,0.33797193275504095,0.3564266841631401,0.42673165706349664,1.4601449971132914
0.10957899051409699,0.07892256976822029,0.15160822087605713,0.136988289255301,0.3542795231760117,0.3369065659866878,0.3769156744233937,1.4293171227134285
0.04500451539759348,0.057050232160230425,0.0677533755121921,0.06636372320006906,0.3171777234077656,0.2673102855658666,0.2760105445284855,1.4115983903307971
0.05116185015007053,0.08221850315107337,0.10315279184507344,0.09081885907683038,0.2932269878177902,0.253953407382838,0.2601478345063659,1.4706539914563648
0.10785020120346345,0.08815549298962833,0.16252702317778162,0.15566105864716334,0.3293586562388439,0.3206461329942141,0.3566386964249405,1.4439337538236194
0.06745336036927725,0.08320369706987646,0.10763709485190356,0.08882848265030613,0.3099288720376885,0.27275135154377395,0.31303546627858286,1.413435560917379
-0.002571237402217083,0.06498949379133179,0.024327714276277973,0.019303128625649785,0.2848774226688366,0.23336140365435074,0.21502684116645912,1.4312011751514984
0.09236863885233354,0.07096559857553786,0.1269448303353899,0.1395072039769617,0.321623193893648,0.3026067941663299,0.3234083380264945,1.3684442715542677
0.06782655363831017,0.08625570133426391,0.1004410137018229,0.08576946338743738,0.32044735056886076,0.2932785221009196,0.3280094397289046,1.4580329662912441
0.028155493177610333,0.056172168343636655,0.046575669330074315,0.03549022312891495,0.30344728901077783,0.2456570014906423,0.24803906687182925,1.4230913739236
0.024467749855216936,0.08185909261844761,0.04810233197580066,0.03950926022670706,0.27833579174188255,0.23072081866997113,0.2383933522349005,1.413020373478689
0.08284139079556882,0.06684729626126576,0.13608861465586203,0.12804603582121066,0.32986579986026776,0.3126609313510434,0.33900583117812755,1.4516245326433013
0.05437588558769667,0.0733852172990862,0.07449186393767165,0.06979075231978898,0.29379423122185794,0.2704160256868712,0.289995973251607,1.4443291512109235
-0.0034067158976241324,0.0719899234505228,0.01589295336436536,0.0023587005880409545,0.27814544942004904,0.21805003740667603,0.20727210008636793,1.370589101258171
0.08855922959106366,0.0806862712777041,0.1275960382969155,0.14160214434220658,0.30664372517181004,0.31445609267729774,0.3279251835750008,1.4577337902706895
0.09261107568966631,0.08239889768898634,0.12267168523229101,0.12876922638838523,0.3257787599214956,0.32208212215802023,0.34485684380417675,1.489255523241254
0.0559131175675298,0.07544182262476304,0.07789646571229317,0.07572332832262793,0.29477938208609156,0.28754037593970966,0.283029295134043,1.4804232624255906
0.03880838061042931,0.08851944125543215,0.06333601456001185,0.05410739913521731,0.3048991073144436,0.26280459776179427,0.26167771842485205,1.4582936271607456
0.13988347244078847,0.09004037661039548,0.1735432863143863,0.18638574477933084,0.36301821317257366,0.3699256448528626,0.3947190389755329,1.5046238861669134
0.09029934496428355,0.06452855478323608,0.13659846971047915,0.13844004619743072,0.362881146147914,0.3415972246774141,0.3383858704199307,1.395762450330322
0.05478790368599572,0.07876004334435917,0.07655772811628829,0.06373796391728732,0.33828876947205916,0.2945956316189835,0.28275108574471497,1.4590284166478058
0.10477982422117643,0.07742961925391409,0.1450603809200094,0.14275828858975245,0.3573957749305295,0.33571103735899355,0.32051324580105367,1.4649887204756809
0.1408228089310741,0.08929356217322815,0.18467420838240967,0.1870363747874998,0.39844166065663755,0.3984589516266172,0.39909532105108614,1.5354175352156014
0.09974372179371035,0.08879222455712543,0.14019944422895836,0.13840507143737005,0.37228496107102677,0.34870246543432437,0.35074396069130054,1.5070798820290559
0.045761060670678665,0.06667579762702025,0.08279939871149282,0.05579625393475657,0.35066338013320364,0.2865234503482681,0.2902383568396251,1.467105196391745
0.14129068182449087,0.10133768347204444,0.1920502212256079,0.19930683683196926,0.382209142783912,0.40448730623750007,0.41172652358624573,1.4969749564734534
0.1281027291225465,0.08946248788065368,0.16974008764129525,0.18121247377800465,0.4016102942850769,0.39116663579947347,0.40740028318947163,1.5017243496406396
0.09429158240617092,0.07995863920768168,0.13511983778350775,0.12286297310928986,0.37817673595150925,0.3518314527596468,0.34781420783373496,1.476230037012013
0.04831201160921505,0.06670217324732652,0.07931956577426315,0.06067695230392159,0.35264339427360536,0.2962929028720325,0.31454885822333717,1.4694483002948444
0.14631587165289742,0.09799159541831504,0.20016546232366883,0.20358483634742575,0.41942370972210574,0.41546631434246556,0.43542108510033495,1.5245593940409319
0.11375675858336073,0.09998069595343981,0.15999375815095748,0.1517476613113449,0.4020775196549379,0.3969389288544256,0.39851363474148666,1.4585912790618591
0.07777150869849012,0.09221619494340445,0.10935373090652414,0.09798606562415106,0.3905371422220712,0.35524313866989093,0.34351507048212054,1.5258025973106197
0.04645295242791001,0.06326123845021947,0.07958042197477841,0.053226955596208214,0.35431480992590825,0.30191047570937896,0.3039520525757589,1.5038520081076694
0.12556066826262985,0.09267812790928599,0.1736934277089407,0.17124900710726085,0.40190575874644524,0.4295428034079135,0.42307949497275005,1.4475368905004184
0.09413432254644119,0.07942336562178406,0.1323757669289544,0.11929250200519669,0.3861888154107869,0.3727497097797797,0.3711844108084954,1.4478810394157267
0.05098838977506289,0.06920385923905445,0.07837035461012205,0.062104041809845204,0.35141619916575545,0.33430538770621593,0.3061710581445234,1.5073170295695666
0.05570897703143862,0.08161624944480478,0.09828057007389993,0.085478840529745,0.35772648518100025,0.3329983297237231,0.3218560247185779,1.4484878534378145
0.127667265068857,0.10375972894461288,0.16986955433589515,0.18428276749133352,0.3913194252216552,0.40736529611821964,0.43031831334831394,1.465913272855359
0.08920384703881723,0.08375938665320753,0.126015711489614,0.12384709082566522,0.3770581917191369,0.36706958751372615,0.3531329747020983,1.4676293248359908
0.05117320467520915,0.07342114406598281,0.0550263205072875,0.05825804791554681,0.3540794706927981,0.32512936911422563,0.28704147876746905,1.4347694827820825
0.10244093982585742,0.09182834602195314,0.14374004756022843,0.14883095523406217,0.3539028757392085,0.3794115288458527,0.3518643090749776,1.3916738776405815
0.13501286177483487,0.08581553810638008,0.19473641232680008,0.1988061533398452,0.4025176919713487,0.4303388848392012,0.4406959064274701,1.431684799712982
0.11399859506635003,0.08789876784748393,0.16199234223801112,0.16318697818611283,0.3799485790923234,0.3997214036315657,0.39022748945766395,1.4715575835381864
0.0545733965411198,0.07789856741334775,0.09066748770787315,0.08596343793565,0.3635496034600334,0.34151733806848283,0.3142018983502651,1.423084866665894
0.15446671735753942,0.10132186849490833,0.18895827929849937,0.2068139343175268,0.3950364675643693,0.4140094277584997,0.41156786366071446,1.45511863107642
0.17026328230766505,0.1069969536585044,0.22118717740355393,0.2339238145880181,0.42353734444441266,0.4603850065640049,0.46565421031031323,1.5377169867150915
0.13937011951104744,0.09168704957779895,0.18226458056922792,0.19697974385388778,0.40972928955820853,0.4334840520099825,0.43788201198561266,1.456104305591892
0.07088872085696901,0.08329173963737088,0.1275851077495464,0.12312897972549634,0.38426421060477195,0.3876059433462546,0.3686423422366576,1.5013268039195486
0.15512796628123282,0.09761031327622981,0.21163685818002154,0.2381923345730263,0.46913058436973426,0.47175426617985017,0.4714418197726757,1.5104303903124279
0.18052622618574093,0.11389527046120379,0.22781886860222483,0.248360838547655,0.4718129351700602,0.51460795914107,0.5213273837698771,1.5663795353204
0.12718240568119707,0.0936711516096217,0.20949309963471233,0.20027038256089716,0.4525531396072457,0.49442949473445474,0.5031801047689717,1.5577362039686178
0.06110375780379675,0.09300046993476896,0.13699674865709802,0.12347399893167381,0.4473150797074846,0.432812033695339,0.4365956645041481,1.430927622474134
0.11224914241611317,0.09945915858680873,0.21165243695505542,0.20632978171498634,0.46482009010994874,0.4826615744791994,0.488346279664317,1.5158751441395166
0.15568601592908218,0.09637859164978305,0.25481374928163003,0.2755233679161988,0.4892805984418594,0.5445836534901851,0.5642457755182456,1.5727337019426852
0.11446200871795294,0.11057604206997278,0.2066846127256091,0.21815321220731798,0.4829081463603571,0.5418208865609031,0.5186772161010407,1.5204126905544861
0.05736655747854514,0.11056187799312747,0.1286625788857207,0.13831880968153937,0.4571878381521259,0.4817718031078901,0.4629522983588669,1.4737926877821212
0.10430996094842546,0.0956107115056515,0.19108633386138962,0.19919105202235665,0.4749760087202988,0.4957286803576872,0.5080099609024491,1.4966873320067453
0.13113064528309182,0.10674256592014099,0.22049424995593547,0.22608222184920262,0.5077802471130198,0.5457195414079602,0.5752261218647238,1.5470827791528334
0.11370450701642075,0.09228818210767238,0.1795936005638173,0.19276813493191364,0.46955629853708875,0.49940039537170344,0.5255004348991562,1.4950448938105925
0.06418500433866114,0.09881068025248414,0.1122675426259642,0.12245775100061843,0.45371265328201493,0.4268432100646265,0.4443545497409915,1.4244774456356493
0.15476564257504935,0.11084195285675179,0.22971739535201777,0.24023665174442965,0.46623558793667014,0.4894597688753811,0.4996365641000194,1.54332463160983
0.18213548072163055,0.12483690109805001,0.24162561258500884,0.2575722719040884,0.47673440622840607,0.4852890286042731,0.51041047800414,1.528216607795967
0.1445121289466143,0.12063768427197778,0.20954019006583857,0.22227004613979814,0.4468623658101749,0.4601384146120086,0.4693733537605052,1.440144788807763
0.10533162518440385,0.11046713038463205,0.1582361796556319,0.17198892708428054,0.4189922469161892,0.40876426838850627,0.38763552103963667,1.4297398766662912
0.20658171640033152,0.1023174750729709,0.277504450136165,0.3106332913471833,0.47768912703636385,0.5043096660400453,0.52757054964448,1.4603922084985788
0.19624719974840588,0.1114452859062123,0.2548982645182275,0.2892449717798441,0.4425001696377708,0.5028341639472882,0.5073896629749145,1.4864934014152453
0.17093187737148036,0.1103480760733482,0.21167474268266206,0.23406036336195246,0.4342073851009576,0.4684419309006519,0.4792556102929171,1.488845061155556
0.15057518451921778,0.09563588892853014,0.19752023251775785,0.21561766024065576,0.41664298070820593,0.4461343658461592,0.43227171016698573,1.3971777707936432
0.2598677317600339,0.12662883655279233,0.31121425442374756,0.34449034381495197,0.4997342988587391,0.5592591098698827,0.5821435619270974,1.5249474644304597
0.22676310578902795,0.11755577211396938,0.2837821945363431,0.2950417302736052,0.503234742478616,0.5378149649202533,0.553778078057843,1.500809822500701
0.18021673062881138,0.1156933293301883,0.24312407672978326,0.24633172764209837,0.46946390565303237,0.4916109431025892,0.4891634981181738,1.5029579843290897
0.18336037216602152,0.11123408982241867,0.24135374722347458,0.26592622514234476,0.44228233805124445,0.4686272092991458,0.47951005950762604,1.4862303752526926
0.2574128714114457,0.10647975379928623,0.33710520134003863,0.3709062284595059,0.5070328476498119,0.5748264425488022,0.6030863636292159,1.5509196137778345
0.23905422748733995,0.11530245683272515,0.300308226992866,0.3245945088223974,0.4932138157105876,0.5355628172801246,0.5560107486415035,1.4917780292661438
0.19350114192792298,0.11176597201750077,0.2408954767467581,0.24913159818844993,0.4600132457301126,0.49252164468714915,0.49639954653586227,1.3891065777161706
0.18629676775735066,0.11271836026155489,0.24760089752913195,0.25499832064738803,0.46010386100620954,0.47690108459292496,0.4770501300542934,1.440812261274346
0.2696756694895644,0.12238422691248112,0.32261286701031544,0.3622144212194443,0.4984646114956403,0.5627646052869996,0.5984809222368288,1.4895706644617877
0.23699395245183497,0.10460856343362011,0.27873133988683235,0.31237077466610985,0.4665855339917107,0.5312172312942922,0.5402649658128609,1.5329229538397118
0.1867929637504081,0.10740205669798676,0.22518266482100727,0.2373051632323289,0.4539155519768847,0.46789408029603474,0.4850192651643975,1.464045901393721
0.16548674291241885,0.11302232439405474,0.19478872773929845,0.20277336314263397,0.4292702671744196,0.42454056828880543,0.42378994098211925,1.5181006313705843
0.2617870420881885,0.11882181843904374,0.3026540894084472,0.3335707182761994,0.47353558020041736,0.5204811800728365,0.5732468388608132,1.4677747160353922
0.2309370736910591,0.11056189181391732,0.2705629034981426,0.28868225874541587,0.44078308168974434,0.49042958204753195,0.5087532383417298,1.5144750053838896
0.18384886877288112,0.11368210686119634,0.21748130970976712,0.217804447746431,0.44066745761177023,0.4499940277642109,0.46010070543330345,1.5070515792661134
0.12530954649634085,0.09504236945442054,0.1528849718816173,0.14667180106960978,0.39341764173219523,0.3771268689094283,0.34542028693753646,1.475100009663505
0.24450120730687092,0.12702873776617998,0.2805289153330284,0.29980362163835456,0.42783277859315105,0.47426468475194306,0.5155079446030089,1.479410326556452
0.21557188845983433,0.10565579807730154,0.2542334642168133,0.26657419334500376,0.4214511918073555,0.4496270661165282,0.483531389515458,1.5252714221642663
0.18391315739648428,0.10229287872323418,0.19831667191943506,0.21488115896312635,0.40352915577133763,0.43948290813930885,0.42318629030711913,1.5647285159871154
0.12579891047745972,0.09910445651414222,0.1398439086795932,0.1318128167910165,0.35273089130189783,0.34250722227590036,0.3308060565445479,1.4552339275530233
0.20904161917313316,0.11101498223839205,0.2618868665390585,0.26463219615476047,0.3820552258246822,0.42022820698582336,0.4410395220561791,1.5505894797257755
0.19624226459973915,0.11042766864054984,0.22788105249748675,0.23866459931348466,0.38014556734672683,0.4400954999099824,0.428268796523123,1.4414611377797926
0.1755746286449321,0.09944050678193371,0.1929635581139426,0.1928654199451473,0.3609800849813597,0.3891703132545424,0.3756602494821517,1.5390128954767397
0.12394749616464085,0.09397749495577337,0.13550448951891192,0.13896403284839123,0.33966454364526705,0.33103936412913654,0.325966774965757,1.4916002857080783
0.2434262836200582,0.11112421377479285,0.27179487859780926,0.2992937421687477,0.39184430028558204,0.4341504183328743,0.46343427305628604,1.4241315347646963
0.21978420440630259,0.11020252398215603,0.25243132152280295,0.281275886706886,0.37504696393501247,0.4343531528523734,0.4491958061394107,1.4947841100679624
0.19840702213114986,0.11017938482725873,0.22693694656265173,0.24176673472334878,0.3635252160917285,0.39182447667809034,0.38073424927238225,1.4407429083498724
0.1462297651216409,0.08722450061442173,0.1671684166654443,0.17557560767355268,0.32921541687708794,0.3410095079302104,0.33760814096108294,1.5136731176918612
0.27584755511982106,0.1042993833540748,0.30485357062472973,0.3455145775412766,0.400982245301664,0.47908952520734965,0.499922234926741,1.4886221619672275
0.2535135513638104,0.11741761801539377,0.2944503110218195,0.3331465119461431,0.4191960534579286,0.4739240549709708,0.5021039461815698,1.4575728038380742
0.22478721664825174,0.10457886403023628,0.2666979319286231,0.287685749778724,0.3935906177139321,0.44975377682444956,0.43966600192599914,1.4860325969081112
0.18625695657621275,0.09071655434208417,0.2267412901860274,0.24842466957713277,0.36489315776836007,0.4161377234684632,0.4002064502659362,1.4970380684361007
0.29584548083257717,0.13967556529632294,0.35383778239664937,0.3991237665634584,0.44336484336986864,0.5079811120512941,0.5443277814062162,1.594554499613003
0.2842465621801121,0.1196224163943453,0.3352897806867192,0.3757148226973742,0.4498984155654298,0.5235492664167818,0.5383883178198876,1.5624165401498975
0.255067988010109,0.12432175748776082,0.31227962737682297,0.33140184169661974,0.4383490327690064,0.5092822138258073,0.5103841660143306,1.4889043132864217
0.20421503622846784,0.11889459805788447,0.2764264847256004,0.2782344433448287,0.41262820576461473,0.44042781244722,0.4422096538617895,1.5016017924668
0.31099933131857616,0.11958348705702046,0.3717545334532212,0.4209170771654431,0.4590877827291762,0.5391714773688224,0.5564032477815694,1.4944077638355275
0.3110082897956227,0.11913365296878539,0.3723179683921992,0.3946149498329569,0.4548912661678347,0.5436122186539406,0.5837931142610138,1.5032072445480757
0.27322000197906404,0.10663987667802872,0.3292979472603271,0.35110208891879713,0.45198320330223474,0.5086390311605599,0.5356235708923089,1.5210613078499806
0.20935044088508176,0.11444975630524425,0.2576606012390293,0.2816278883479782,0.4127716660878078,0.4665367357004331,0.46192676836085494,1.44090206701487
0.284304179994659,0.12674752214614884,0.36810305501301993,0.39918068692423636,0.44093008538963885,0.5036303504718564,0.5247365112281824,1.564147480453045
0.3006252912014358,0.12064963665105237,0.37374523238159696,0.408529089478324,0.4751071994333229,0.5434688162936907,0.5650013646768709,1.4792811073583134
0.2755581921660918,0.1131546388980485,0.3450358612942789,0.3807075226343249,0.4526636592110783,0.5178000389034516,0.5451604336844353,1.4487430339760237
0.2094500990568412,0.09084673395989397,0.2655174272458961,0.28623816417209397,0.42821530845184697,0.46055681278701655,0.4685952030029168,1.41864170943136
0.2330614192800176,0.10794756281723639,0.3093810430414381,0.3283543005975272,0.41163351724858105,0.46674618422389397,0.4704049178309409,1.5096579686301346
0.28793195009412503,0.11148250111354926,0.3593763685206576,0.3858365120739022,0.4659400928780627,0.5302634674506231,0.560718442682017,1.4884251435310147
0.26097524432495406,0.11163118762398891,0.32099104814932417,0.33768966396336253,0.43748724028920355,0.4999453114688711,0.5169970878299176,1.509048579814596
0.22413332469877878,0.10310156376149981,0.2610716403710368,0.27821106114354,0.40726579617340347,0.43458074769587307,0.4641042119207538,1.485778930084953
0.2223574107781895,0.09372130653202297,0.2747357982057793,0.2862186224047194,0.3893278455810062,0.438678850567799,0.44339186076061093,1.4285890804321308
0.28013538323628184,0.10879638182783664,0.34414861240966715,0.3634861306696527,0.4237645238207321,0.5223659560736591,0.5375326739360109,1.4759495260227236
0.2568761569783634,0.10471661878086817,0.31711859484488375,0.3312121611197716,0.39700174214253664,0.4765255832732666,0.49194082063874206,1.5161051666610281
0.21852683544519824,0.1076745646552925,0.25201891471015636,0.2577956852822562,0.3893486928577331,0.4270421126753119,0.4358767425564155,1.458107975070859
0.21003302488898243,0.10268940851125749,0.2678887829694021,0.2805423192954489,0.37586649439579717,0.41929584021663724,0.43827231059670696,1.5188560739910546
0.28241015475731945,0.12132277934725211,0.3567846861820957,0.3962911116252849,0.4338488372570938,0.5227768727489789,0.5419737592149196,1.4883913339088728
0.26150702846237917,0.1065794893727815,0.3271956382360781,0.3514314112458122,0.4188917002223244,0.4897274767156087,0.5280542801617534,1.4573819650824797
0.21126053849635984,0.10017148087847155,0.2727626511940412,0.2704497628965701,0.39516825058745375,0.4552141388551492,0.4487766480509637,1.498436556371621
0.1777400254725129,0.10725750884730849,0.24138135256617071,0.23922209142955697,0.36336547655516743,0.4305805545976171,0.4181637957472434,1.5114211219078761
0.28075013357636397,0.11923004172322382,0.35689132112152944,0.38817531192344606,0.4598214741450105,0.5237211842029874,0.5587125758008511,1.4886716881919284
0.2538906995927993,0.10458716925339533,0.32764439886020247,0.3515008991170374,0.43760300979720457,0.5016727244685306,0.5267317166800749,1.4701895012854185
0.2153156536157652,0.09994154403690488,0.267867971482473,0.2959663595996168,0.4204990936077219,0.46647603829848183,0.47248122824619887,1.5112234174763333
0.1478522078155715,0.0909117577834159,0.19930484958841876,0.1976364344181723,0.36644762718280954,0.38639689235908414,0.38677819239261807,1.4539386470490379
0.2481318947197299,0.11204594485133838,0.3327694803323187,0.34743480008604916,0.4019302674562071,0.4645121398717118,0.5021992131366018,1.5004684310940384
0.2613034877909424,0.10443207567002073,0.3342448504786786,0.36685238528580144,0.4040138903371504,0.5032811446508437,0.5275909363204153,1.5324672310644472
0.23204506429143512,0.11503171561783233,0.2921444458342342,0.3171337619547637,0.41484173216898296,0.47157620828223024,0.48988714660849414,1.4712749071291396
0.17416349058456604,0.09088309577776679,0.2276017211330511,0.23218158703478414,0.3581027066724528,0.4112014668980841,0.4244524121381513,1.4422159169565552
0.12537340332365948,0.1147126379800594,0.18187488440681013,0.18368691748749305,0.33191517406858523,0.3655818504084898,0.3664147165593851,1.497483186329215
0.26176758966066327,0.11609387888234393,0.3260111770928728,0.3574579232732212,0.395046429969179,0.47632817897345436,0.5130784252100109,1.4712207986257102
0.23807618824731064,0.10940866457771087,0.2997562792374454,0.32881576472868684,0.3806978392620419,0.4578012737396299,0.4777531793269463,1.4873038944430599
0.19774847320543806,0.11191714944080881,0.24347304208083964,0.26654670686926685,0.3547197224755542,0.42656553808863173,0.42346282240793887,1.5567873556837397
0.13324643103463593,0.11766935051742045,0.17702423655935803,0.1762107326809461,0.32748902674301467,0.336353556275202,0.34912281280780055,1.5054673505830014
0.15902596410819977,0.10950018855466678,0.2124247050166332,0.21867961996523477,0.3232648103399217,0.3359979025895954,0.3391623606005689,1.465139818003348
0.23272752182063963,0.11653867089254852,0.28845211304220386,0.3147650447735872,0.36822711714041856,0.4310201601294413,0.4577348441127331,1.4690121373374094
0.19299424387686206,0.11554979066538165,0.2454894973686976,0.2715668432651479,0.3489263750758538,0.3929586132815656,0.4135727969988296,1.4311054319382044
0.15547927855824772,0.09969721734988174,0.19592534024043762,0.2158588703660876,0.3382588646400833,0.3502574750011801,0.36253009559977034,1.4834058290105725
0.0866183558153723,0.09616558051955441,0.1161120271374155,0.11046142438049172,0.3025938606708655,0.27972037052933185,0.2632384629624921,1.4114025233414065
0.18207527678990432,0.11366927584955012,0.2394702770289971,0.2678805470815027,0.3410653717135292,0.35998129847341764,0.3689058051858788,1.4514439163638073
0.17413367469015456,0.11450566519477264,0.22038060295460712,0.25133192503222207,0.33689313966702633,0.3649763449113004,0.3919461219195721,1.5007548845357321
0.13724002507137464,0.117758195359738,0.18635753059290755,0.19379659822317835,0.3286556854213618,0.33117947037876483,0.328680377309997,1.42699444791095
0.06385777816098384,0.09449528955009806,0.09867074257935479,0.09548185535537448,0.2861103532039537,0.2658101447981523,0.2524504876737576,1.4190635842682
0.12341603601179524,0.1145069992048729,0.171014265608232,0.17979828976345694,0.29432181707426663,0.2883784068631429,0.30749420285530243,1.4692331170530437
0.1670266691784063,0.11405069547049192,0.19846884368107964,0.21214527480724152,0.31179384619222955,0.34305174344137424,0.3565634108128175,1.4564369184190464
0.11676778022870371,0.1003205759219806,0.16187177163127045,0.17082433111731865,0.2907597375580696,0.3245444565415523,0.2986131587178965,1.4860369250137986
0.07413496419216853,0.09714015244251,0.09950759381197614,0.08350061967630187,0.26194393671293503,0.2562150718874451,0.2427458803523178,1.4903403201829772
0.14587417300857144,0.09820924646303314,0.20576768433187584,0.23048470996682205,0.3003630925693596,0.31638027559397175,0.3166370154284801,1.4849470155489037
0.19469795995527842,0.10818837770422705,0.23933606305024557,0.27789385956362306,0.34281246379888447,0.3766741492017756,0.40484635439481464,1.4914019325366632
0.1641346719170872,0.10638718497281167,0.2186109906563733,0.23818239544691594,0.3266435077810611,0.3351552454401818,0.3468128551138859,1.4327382821182102
0.0929399969023866,0.09919304667488678,0.1502958026648987,0.15648038205972667,0.30825989828169575,0.2935652616178432,0.28809127638780885,1.4509656551225216
0.1669195428304918,0.12362619082140462,0.23866046650225178,0.2642657953938771,0.3266384877259819,0.3550002606418228,0.3651669124072101,1.551543988117918
0.20242334535925488,0.13335374261612828,0.2753128449838401,0.3075556653816391,0.3670151793260804,0.41999066237151716,0.458602133671419,1.5423948042163618
0.16206909191458974,0.11175227651479404,0.23501521325046815,0.24474244757374808,0.37258306357837273,0.3847585504980597,0.4101033943713616,1.5508696588404989
0.07177501440224701,0.09838373170614234,0.13916333268385775,0.14771593518136777,0.3355686427306495,0.3568236104676806,0.3488572111109855,1.4746832995853163
0.12186585596020764,0.10821675304889768,0.2083516831567216,0.22714227853540414,0.35528930956304433,0.3870438684982974,0.41759844976129623,1.4900141288136055
0.19108579352107657,0.11250442735701957,0.28387184967013146,0.3002398742470099,0.40868044658495106,0.45387119613274524,0.4997507932305757,1.4903074464141488
0.15901200018431333,0.10804665555432276,0.23103647900107205,0.26843600005075274,0.3899005271387625,0.4293611685758682,0.4519795880504489,1.4819763665120924
0.09894980178880142,0.08913490455990003,0.17616048043813198,0.1980297840255464,0.3730646227822542,0.400457015926187,0.3786484810403819,1.4806366457033344
0.1363358666065551,0.10731051633546085,0.21258562995354166,0.23795231768650457,0.36415326939849685,0.3951404590651073,0.4109326155097379,1.5835226259556376
0.19870344927081784,0.11266039944269428,0.28365779333332625,0.31946365693265266,0.4152500633294076,0.47355066687420927,0.5163096398799626,1.5761486050883233
0.17016289580743463,0.10334598281804298,0.2592398715275279,0.2850642694675882,0.40196726922428244,0.4568540306225114,0.4712817752485348,1.5637505336323083
0.11283332174362566,0.09391638338234694,0.1904011935407796,0.2123438984354995,0.3639394617493191,0.4022531784759379,0.4339367745189162,1.5139640763738262
0.09844993926111384,0.08215496227057191,0.18475525974286058,0.2021186652097955,0.3794854698228151,0.38382872548042135,0.39583900282364876,1.4497976889688784
0.17025818339726864,0.10600454033020823,0.27378469381022286,0.30083771429439266,0.44046675633452875,0.48324502091597704,0.5024332782877452,1.503667194312269
0.1446892450731278,0.1117656235927918,0.23715665256436297,0.2529705409068741,0.41352771385471754,0.4441752709385779,0.46688065511527355,1.489857618687649
0.08691223122706818,0.07856954667582042,0.17344823934564227,0.18915382373122086,0.40252575293417114,0.41623203441559803,0.4101906241194701,1.4947679316157643
0.07034559421789251,0.08613916240606465,0.15595976430666947,0.16162280590801376,0.3872443190595279,0.3751801131189192,0.38080203192588136,1.4655310620644666
0.1456635255124108,0.10951868004409646,0.24021808037943618,0.26429944522339976,0.38955610590188144,0.46026519187920917,0.4550254478693678,1.461741940652781
0.12002047904076517,0.10413890648544658,0.2125656225623599,0.23501675788429965,0.38027810322169986,0.4173735083674452,0.4249929672619166,1.4904178859262216
0.10633101432168601,0.0987194667380009,0.17217616136858094,0.18457742292413082,0.3359672920058889,0.3781189853106716,0.3846661884141116,1.5007739430194964
0.12126395775839331,0.10412840271812308,0.1938585410702787,0.2170954794117772,0.33864121522517704,0.3744143267695691,0.38062729787178684,1.6329279558079213
0.16879233575689884,0.10860470754476713,0.22967568126617605,0.2544227157306609,0.37808160350270975,0.4357400012522314,0.46466094463034585,1.5307472382767835
0.13040287668415473,0.10037042474051781,0.18835565644032556,0.2113865169923373,0.36289365333430545,0.41049600505699396,0.4168597926156685,1.507975771319685
0.07140940665007921,0.09078816993520629,0.13734711659903298,0.14636373773297892,0.36353776150312617,0.35859408527358366,0.3506109169336217,1.4870738802787073
0.1596575025236948,0.11477285531571062,0.23934841568716797,0.27591722385814355,0.3883795399347177,0.41349459331948035,0.44314887375038614,1.4829838296641322
0.17772098832108685,0.11345111816358577,0.24794737951764273,0.29247754653130076,0.419346110186641,0.46929341216316683,0.48464217306703605,1.5312466617851084
0.14438378427832155,0.09954371646378943,0.21099163742190605,0.242039961042831,0.41348133458844777,0.43333640005607876,0.4550025635859436,1.5267962147519663
0.10362277650655907,0.11347372735972802,0.1547306472824011,0.17410586967820868,0.36692200703280187,0.3875956227535427,0.37453235445738337,1.4728673858230317
0.21122407280609395,0.12202547354218171,0.2773186616316301,0.3187907646749012,0.41331635976212516,0.47635440426794856,0.4988643071806322,1.4906746579286914
0.20594411694077305,0.12426194982988131,0.2718392086339545,0.31369486693403564,0.4304623027530295,0.48740431444310134,0.5083535248576116,1.5213544643671968
0.1707118336792646,0.12003808325168339,0.2365120709566333,0.25726144310679266,0.40369765324491386,0.46451287708365807,0.4909573872933648,1.470685294686284
0.12200390376309972,0.10289669957783612,0.1868823880517427,0.21324557006492445,0.3899076090044723,0.4169669055805316,0.44412117197856166,1.4381147606815827
0.22261220326061493,0.12025630184371179,0.30782566340511525,0.34978711691511954,0.4443257784423752,0.5223387232878677,0.5500829916802644,1.5395498145908821
0.20747751523185898,0.12408977096676432,0.27587354499843847,0.2977758155850479,0.4333635924098411,0.49622748918723547,0.5338829225934869,1.4742390859673151
0.16368232581709566,0.10048914645540889,0.22770821907971775,0.25221468353522475,0.4247139913709009,0.46859994538136984,0.4889677856650056,1.5195765948229503
0.1247724806995232,0.10460051111836097,0.17975495119972693,0.1940239880405455,0.3844505414774572,0.40348867962702467,0.419349628338953,1.5604503018224307
0.2254672816466496,0.1142563988926506,0.29642340123414057,0.3419726188900043,0.41995603913248025,0.49315824440418893,0.5433889666747842,1.513498715812461
0.209399972960629,0.11383884192883492,0.27728864131303865,0.29521702377142106,0.4164037609690481,0.48711406072382635,0.5077951133408727,1.4694462958143846
0.16848380567875734,0.12192740452872475,0.21799734381646033,0.24264937942336967,0.4056667008333132,0.45653476870066834,0.4808385029354224,1.453824211859525
0.10073839830110423,0.11772965831792709,0.1417815416023998,0.15554090759085332,0.3709032174583719,0.3826443677837123,0.3872268884196831,1.5592399642704735
0.18281944618997717,0.12712962199809993,0.2509886568517493,0.2722233081787499,0.4107172539695423,0.44202521591492827,0.4517250342628274,1.5269686087693282
0.18424759135498908,0.12643587801818856,0.24895699906045743,0.27914114314283833,0.41407415436505146,0.46671834257238504,0.5014991285133401,1.534349111490569
0.16023910955127046,0.11793410153348093,0.21121894271544378,0.22915574382990814,0.3972000110349224,0.4452780536193808,0.4595865542104241,1.599799480378314
0.10187947475480769,0.11377132504033596,0.1455306210255718,0.14560545214828413,0.36470957657519604,0.39073419937484966,0.3678163831976111,1.577979779922455
0.11708637647909201,0.12765420632870614,0.16117723572907514,0.1667173735035937,0.3541469277927194,0.3627182700811886,0.3627602851969415,1.462710978699477
0.18091700862122076,0.11247858604909973,0.22065181667506642,0.2365496754726205,0.3851004875894981,0.4254282525782153,0.44658774819606994,1.4236427250199841
0.13925632213684053,0.10231782654847832,0.1816200521929833,0.1977706859870261,0.3707780635585937,0.39660097764376734,0.40403408555504355,1.449221447014153
0.10036425935062797,0.10970151081949468,0.1366402596957457,0.12977010410502818,0.3412993091604178,0.3517631084188579,0.348174897121868,1.4754384576751831
0.08156577997728813,0.11140974359732729,0.12766093257069444,0.1333976478256333,0.32003274489413747,0.31888568604397655,0.3165876469279627,1.4220683293686414
0.16362001552519495,0.13222771068077685,0.21070408389552941,0.22791467697839052,0.36086369332903,0.38502418748400236,0.43245606351414684,1.4245538688094934
0.12234410666093404,0.1278807954821344,0.18174183725028825,0.1951294223858008,0.33673978861456466,0.38604945469950686,0.3837185303795598,1.4916526564625983
0.08471096352482915,0.12579333729370823,0.1344265401871497,0.12093017377351153,0.3383622373467541,0.3302734603904377,0.3384906551846859,1.497491262877619
0.08551104500877402,0.11137714490787826,0.1294348383149116,0.13510808622388357,0.31165803520191854,0.3235218400450099,0.3103388453949,1.576314437452679
0.19085725753946425,0.11533712609565097,0.24058928197974247,0.2900179239933501,0.3553368058537845,0.4198278306113223,0.4458292721595033,1.4645414121690097
0.1672029945436011,0.12920542518639466,0.22344610916210816,0.23929572354544082,0.35747023588380067,0.4102455533463133,0.40174032679471106,1.4883692854998194
0.12706676845451892,0.10865272836396006,0.18618527421151895,0.1866606397609895,0.35117707568589196,0.3726852730189898,0.365698768733736,1.4909168398067798
0.134624838691068,0.12230012589347357,0.1868445758627901,0.21197223788822916,0.3365643497080277,0.3666983497367242,0.3638526814763606,1.5117971419370817
0.21445013131842858,0.136590247106433,0.2755020058818389,0.31871088120520946,0.41025329204451216,0.4681925343044801,0.4859941479587512,1.5742678281688423
0.1937773231458413,0.13261009532141144,0.24977423158127354,0.2847273431305684,0.4025603570630262,0.4401048340029387,0.4518008121487152,1.4614853238782335
0.15319112994122103,0.12022063573815553,0.20815938668250641,0.23231621891305737,0.3766462736296317,0.4186318098385925,0.41885789412022495,1.4227392617050738
0.1671291970915337,0.1244730938983098,0.2449252764852929,0.28313599191394373,0.39982903884427384,0.43792640768653235,0.44732099412001447,1.508982458157702
0.21877809430835965,0.14180493304743147,0.3009874562737586,0.33830609658894123,0.42579907266787725,0.5021602764109434,0.516768243190914,1.5386386894221111
0.19146647264742137,0.11864797938054274,0.2702387667555356,0.29997151213666073,0.40133633828443704,0.47184134503445246,0.4944597266892257,1.529329347414268
0.14995376110780392,0.11023695871648917,0.20644180163432838,0.23016505718759922,0.3948464760989487,0.43010519857016355,0.4484295724950417,1.5173983278641623
0.21022091334913898,0.13136727318940927,0.2956887278246428,0.32912289538233386,0.4234180898041915,0.48440776006584946,0.49423388098836224,1.5087948361272765
0.22269554246244125,0.1240062775790892,0.309970610342332,0.35669105309979954,0.439147387803582,0.5172495815935505,0.5487530085504044,1.5353479013083768
0.2044831152581043,0.13088653278174028,0.2705608611575539,0.31798693988134336,0.4252995497310621,0.5039187582967958,0.5062371675493607,1.516442215987987
0.18006755814458258,0.12441779128394062,0.25312112399925646,0.27741855997757603,0.40803862584562645,0.48476102711361774,0.4776486601814741,1.523676263573527
0.25848448414859915,0.14004537818197904,0.33059095817780537,0.391807608686163,0.4558969682426483,0.5574677416863196,0.565458492518757,1.5291191739014958
0.23552982630068775,0.13078236959304837,0.3144522499287674,0.359786752546323,0.4380036804444369,0.5488373018586636,0.5711223040629343,1.5312415620386532
0.20407092562691379,0.10380258975727513,0.2759796373855647,0.3094540458649908,0.44909586352724085,0.5253076424537926,0.5250629510104614,1.5217640477867849
0.237489310687761,0.11187132227460372,0.3154076973589168,0.3483295761332511,0.44904791388503534,0.5393081570362908,0.5472236292286761,1.5131656002461689
0.26069359421097,0.12043263247980855,0.341195344243783,0.39112667404997414,0.4743190097000479,0.574398634329152,0.6049957946438441,1.5408147547220488
0.22775833067017537,0.11449928447437645,0.3099518421439452,0.35675441077158454,0.46652807810679636,0.5620799804188162,0.5814767219757524,1.541019663476923
0.19463644999949645,0.10096822765428161,0.2609850605036216,0.29383070295878017,0.4460092071162303,0.5208420385193578,0.5237763345860167,1.4741103335108008
0.26602912775541254,0.13210483465233314,0.3493135543115313,0.3996983117422741,0.4647627577223965,0.5651576361205803,0.6157223041385893,1.5291092003160367
0.2502331189172111,0.11791157737890935,0.316111563552833,0.3669893800809193,0.4740757719435956,0.5626629133030575,0.5976717793109665,1.50687030199531
0.2222299818000439,0.10954725861489148,0.29382827057662253,0.31491651978605306,0.4674825571005947,0.5409771431767264,0.5575375337143456,1.4812388290379839
0.1995651919479974,0.11520858641375649,0.27215011660414196,0.30925434085318926,0.43666990412719897,0.5168031551498156,0.5259399512285781,1.5143880497602236
0.25826132389562645,0.12141287692640546,0.3238456202941842,0.3775196634690424,0.4748603924216231,0.5806548524300414,0.6034112586512123,1.5025398276391033
0.22411340754795278,0.10590767728119571,0.2974776763081026,0.34729691141012603,0.4498027261643392,0.5486624309591679,0.5731984790904608,1.497506351626657
0.1838861813692405,0.11454508705351812,0.24824184493240622,0.26312993327908596,0.443135402518529,0.5013646897938597,0.5165717731418289,1.5102047525112323
0.228984003354325,0.1108021851779,0.29074490213067405,0.34094246469326484,0.4705892745337584,0.538720163621991,0.5395357611555021,1.4529303371088063
0.24247761354858308,0.12802363153416896,0.3086471624091039,0.3519730880722419,0.47258401055017357,0.5488706417089156,0.581057822212439,1.468120092915354
0.20195410329179073,0.1219394298220807,0.2738176041147009,0.3105044484140427,0.4613274195720495,0.5259806481261792,0.5399135210834075,1.542299780482513
0.17253228149766434,0.11452862335028044,0.22489082687803197,0.2605497588793912,0.4255223261192884,0.48507610774447907,0.5021555420721129,1.4333050477232547
0.2561735446453647,0.12058553746213291,0.33522370035682086,0.3942632189286774,0.4799122845274562,0.5708935667906951,0.5998973136677547,1.4909250898934674
0.2534289548795913,0.11518863767412686,0.3154539253409092,0.3640181915208152,0.4750913388526627,0.5545529645515201,0.5713474400972526,1.4595063506971022
0.21097870566711396,0.12047026269141937,0.284101408584596,0.31402337707171313,0.4475466571779765,0.5303889984937156,0.5448059674186063,1.4800787753458728
0.19579433376230074,0.11717480972397906,0.2565625738226339,0.2938920971858878,0.43544727445686293,0.4969303418917961,0.5042596658586285,1.4680671593038543
0.28155297193712553,0.13291581139377745,0.35945084691003765,0.41588833087843813,0.4784387387027842,0.5824870395603148,0.6373229153458655,1.509960863635273
0.25944640037316913,0.12869849816229598,0.3293958334517109,0.38561366284549015,0.47307780765052143,0.5581390788015573,0.5801886841877856,1.5191628516430609
0.221142640884894,0.12451044417322948,0.2882563727645836,0.327363960783545,0.45459529236230056,0.5369768755569182,0.5579112706392708,1.5151577314546336
0.18460217639170526,0.11136418178398702,0.2434248025137573,0.27400751314101984,0.4287082651133013,0.48818728100293857,0.4897830094936919,1.531374828066378
0.29372002605445774,0.13679221146541348,0.3627158745254021,0.41260259780759867,0.4656669671490366,0.5777801008248241,0.6246864321574751,1.5741561615353903
0.27528779232765616,0.11423261826255626,0.3460912193516404,0.3957460794747564,0.46812977426722957,0.5768000885555568,0.5989915220227857,1.5299125820887725
0.2324458236608596,0.11416889553464421,0.31103321665165956,0.3394388171156623,0.4680538755413063,0.5455025058177853,0.5534405756408202,1.4953707251582598
0.1746620738010159,0.11825172739192287,0.23131138410493235,0.2505129231459132,0.43711507805229494,0.47910243144301756,0.48225560729851197,1.5760778050559372
0.19509527751029107,0.10480017798645815,0.2667408655672196,0.2904735414506316,0.4356053057169072,0.4797706445241558,0.4972522654380157,1.4974293558114886
0.26251461054297615,0.12241256785822568,0.3481585120533246,0.38067087380451786,0.4837695053664156,0.576668036463846,0.6057218365250749,1.476475422121901
0.22762959617429615,0.11019429524164737,0.30284308027915763,0.34406933442104093,0.4433093242103261,0.5385378160716602,0.5742316665927165,1.5438720305849891
0.19028902646151652,0.11460012382547563,0.25790123249983127,0.2847373177940699,0.43834485960972014,0.4682880293136793,0.5175117913750908,1.5292284398468787
0.11177648995634104,0.09495420138814017,0.18475855960971638,0.1894539748182122,0.41233532645110876,0.43628044036198765,0.44658039381328596,1.4703513986039844
0.16961499897412588,0.10732684319342756,0.24985259773851426,0.2810629051388326,0.4134295768989918,0.47646608430580417,0.5101100038068246,1.4997755912750217
0.22457124824645752,0.11533719275749606,0.3041205851811416,0.32676757709942894,0.43459955135688666,0.5338965972029808,0.5761143575001155,1.4952816496143084
0.20604044842566832,0.12101093067260818,0.26783677970162667,0.29501186134262114,0.4093945934698453,0.49278241318591803,0.531556729192611,1.5044259133441849
0.148439696765314,0.08870121951005758,0.20037997836590002,0.2175632596726926,0.3822959464811516,0.4584760547238934,0.4742125560431211,1.4655960792981964
0.09244005066965989,0.09438180743207294,0.14841052394469706,0.1641343612327695,0.3657569355360674,0.40228079778622233,0.4063502809293851,1.4571870901595017
0.20496390543813328,0.11903855724780842,0.2567849319504763,0.294757770802585,0.4035464519707808,0.4839617069164912,0.5296818765115096,1.5007638508803016
0.16478487250519747,0.1188388122865094,0.21974039755039845,0.2527957152155038,0.3903298901640592,0.45800510178455633,0.47628761098585215,1.4704686659457888
0.13241957856465683,0.09274295307463663,0.17988259946446702,0.1977438521979125,0.3598979827584142,0.42989460283954467,0.43963641824046445,1.4885786426060221
0.08571331704888732,0.09769688898580814,0.1292679278442441,0.1394613087743842,0.3253490936551306,0.38098968191965804,0.3774113071287612,1.4616144014087087
0.17759144071504346,0.11549095341375568,0.2477055607939505,0.26963765769739717,0.3814754070843743,0.43189704402513246,0.4813761273231468,1.4868291653403332
0.14674410849459998,0.11409882510159423,0.20739881144725628,0.22002377900938178,0.3709917551902282,0.4280774241509979,0.45623256801811973,1.5186570551197558
0.11353432219763071,0.1039419841573482,0.17429309785694672,0.173126704074609,0.3438083450245576,0.40190859136211976,0.41409322363049905,1.5201170639190054
0.07616739936069167,0.0969464325617936,0.11955417863609169,0.10997791151447822,0.3248614878543349,0.3499748804794241,0.3406702588847447,1.5313064182039822
0.1892525590414325,0.11761557811314133,0.2609540547008996,0.2820038325884873,0.37644618970348737,0.44791746315491293,0.4859317833187262,1.5005730139535292
0.17404114797273174,0.11525635773585856,0.23732588949622008,0.2552064417607104,0.39842684342541607,0.4373122949402954,0.46887222857817934,1.3946755503506316
0.14817769553040913,0.10442436994794975,0.20248064316716344,0.21954744811243293,0.35578080882760216,0.4051292040935836,0.42500673940076944,1.5300920505482705
0.09917012628175179,0.10108622181274535,0.15524930044530824,0.16428209447655973,0.33332713468579717,0.3643112701531152,0.35466641395566467,1.4442762075296764
0.21652691956377448,0.12080872863800883,0.2850609683824907,0.32444504175243377,0.37302845308120114,0.45845429546175703,0.49293783367425814,1.5000085108974006
0.20492206813847397,0.10984172953891894,0.26794086464383504,0.31114836248634353,0.37061801835468994,0.4658272071759397,0.5005430280495768,1.5113373413792521
0.16890423945291694,0.10782205688261265,0.23422157661478887,0.2722512211274486,0.3699146887288945,0.43172301474053015,0.4505596021123014,1.4837226915072443
0.12786894909050692,0.09111219452610744,0.18401571580785758,0.20976374261040054,0.332200316893827,0.3812881151451683,0.3902495553682649,1.3797214392231962
0.23039885270489338,0.12012450026461399,0.305348792764663,0.34758978161530957,0.3977079154374438,0.49038379009845795,0.5271709653833591,1.5626211030124924
0.2240937793182455,0.12495804207786027,0.2957892505050974,0.33974426314349576,0.39407795354463054,0.49830516509860356,0.5244085104178072,1.4856606917015174
0.1895344378457436,0.10020925755522458,0.2612032215122572,0.29354459707472,0.38388940300681973,0.45087212774713187,0.4797613472066641,1.5873722273922104
0.13578015572331542,0.10689928985419715,0.19319017294043794,0.2211142559537047,0.3679666780474041,0.409651897836314,0.4227879887537996,1.5448008405795406
0.22299971051435202,0.11489077800822611,0.3000074470091735,0.34114911531320496,0.4236062708101362,0.4898756107486323,0.5142687894376898,1.4917023328979173
0.21831105341285786,0.12265185572587811,0.3068300168418663,0.3439776873368333,0.43453506202063763,0.5148680454323921,0.5432159860177395,1.4956923939393343
0.19030237524403829,0.117739999854924,0.2765357003553713,0.31142785703450027,0.41491092460399565,0.48443117204021663,0.4947127048945145,1.4833276955352774
0.14987828446361337,0.10845476847345098,0.21005145081575483,0.23168315404780898,0.40013179918675,0.44706550193958217,0.44875527254411535,1.4062725679432433
0.20041986186257846,0.11659330022106418,0.2812701495266755,0.31524917947357495,0.4175604626536244,0.47772791953075544,0.5098503518065967,1.4942299984096397
0.21989753772543147,0.11693434960171377,0.2970296332120272,0.3354325312324914,0.42559183660050237,0.5110885592411951,0.546979504405408,1.608829683753204
0.19941866746398026,0.11689386809946911,0.2783941846206268,0.29791385407277166,0.4215697475928666,0.49405356722629384,0.5039936635197889,1.5010448627479307
0.14792351602204482,0.09973468295169682,0.21237796768448391,0.23224067328980968,0.389684949759696,0.4340350868697892,0.4603063526765519,1.5102418067991124
0.2109005138697033,0.1152072408740701,0.2889117773907225,0.3290736231604548,0.40525674066877826,0.49581350303426347,0.5289446799909203,1.502406914381836
0.22732842644943543,0.12978730224210994,0.3106313379334559,0.3524996522574211,0.4243851714239836,0.5258856346054305,0.5727040339708921,1.5041077958926312
0.21363400578436303,0.10160434840859255,0.28790012058598363,0.3221207379579414,0.41324443657277704,0.4995722714392533,0.5283477423650104,1.5338047324408632
0.15444269501400248,0.10613500762769038,0.22222864282017996,0.2575584830755709,0.3973703191510503,0.4635253050351411,0.4697226284344981,1.5215852048972027
0.2097824699850908,0.12848084953105912,0.28172856057078954,0.3296213215826174,0.4022861127613241,0.5039663741624184,0.5211496978992538,1.604390951790052
0.25956255368127323,0.1274728307020044,0.34460585747055494,0.3952719946590103,0.450782344345813,0.5837346788627383,0.6097781744293604,1.5636751940713216
0.23837210794982888,0.13189969805210006,0.3135273102728544,0.36012969607028217,0.451535990532745,0.5510846984294526,0.5856282808240268,1.4820137650200622
0.19051115291289525,0.11470387816380026,0.26726896605548445,0.2917348475623923,0.4304219023700776,0.5032278126375012,0.5252858071508718,1.4607266890554573
0.18130308885579843,0.10975138685210532,0.2540971170723332,0.2848386079853974,0.4301429664926438,0.4902069080571722,0.4987141130182813,1.5042398936939465
0.26264421673249255,0.12928877328943583,0.3635165001096288,0.4149121888357115,0.47544861887330886,0.5966307631261694,0.6298778588691547,1.551788770839777
0.25437052787069275,0.11419478470442246,0.34125661435072074,0.381491129964492,0.4814772569898215,0.5651928839475944,0.5978990676041015,1.5039050311103306
0.20261290752254882,0.11774358333380003,0.28871191754286946,0.322925611401936,0.44962585408195166,0.5220954729303612,0.5479616957633415,1.542707516494271
0.15125944395924296,0.11836988951988073,0.21740003977673852,0.24429041407805224,0.41874977233937444,0.4602660085638446,0.483158217546854,1.434030486032136
0.23372565758483968,0.10989027396703607,0.33877796093239904,0.3748407395961622,0.4477549042049124,0.5305600364430614,0.5972286241297805,1.519537776572934
0.24775075838836014,0.11168647875000402,0.33568803164932026,0.3701921947449012,0.46407488094194277,0.5537652175537909,0.6164210853626138,1.4898768463963954
0.21194751471621973,0.13089636415387818,0.3056418212200351,0.3278513840418096,0.43940906052394774,0.531279653065572,0.5597365550357676,1.512475270053101
0.16074818544770747,0.09580500725564031,0.22977891891844002,0.2507226488785276,0.40311381448938716,0.47430149589604664,0.5140931681195766,1.4954375698672862
0.14336784905570865,0.10568390431607969,0.2269546146434383,0.2389863894096879,0.4045196521159913,0.4662945596732549,0.465500995712096,1.5042388430283369
0.23940860689607663,0.1146899560437825,0.3072161229154381,0.33939872995038545,0.4405740495634488,0.5415708789185055,0.5975175742048092,1.5447729011139928
0.19846922277779672,0.10574809394884845,0.2867466648819582,0.30146145076008984,0.41278270370046843,0.5183631953525604,0.5300384208475626,1.5604193516473996
0.17506165639965526,0.08748580307213569,0.24563773928705823,0.25074303039182916,0.42050786864109546,0.4794657570362091,0.487196463891134,1.53817739856301
0.13301752450621349,0.10526969866156148,0.18864746572468455,0.20760542869143192,0.3801343918192016,0.44195610609190844,0.4480304626280361,1.561735921986418
0.22433697213126289,0.10913531426587572,0.2894231043284988,0.32795404917714727,0.4206088017643279,0.5271120134365249,0.5521874260346081,1.5039997598914407
0.18800842338751741,0.10768821693679366,0.24818661175014503,0.27967057626083264,0.41511681732613637,0.4980684597947438,0.5516773268050676,1.5248626888520784
0.15362336132092322,0.10584733790073869,0.21494762594411992,0.24257419889845755,0.3895596137669993,0.47081337158441083,0.5083386762370316,1.4684806734598421
0.11645262819170991,0.09931731716625752,0.17915447921411687,0.18673614724303092,0.3764014845396639,0.4180440904352718,0.4306935500746722,1.5129229209397619
0.21588089086308668,0.11100212469385873,0.2983279910195643,0.3460806068608747,0.42935242971236526,0.529442115526769,0.5613992414910665,1.4945664985869311
0.20338297912415434,0.10768350971966502,0.28611949791188734,0.31770940279195226,0.42213895416446323,0.5157549111370578,0.5416206819459441,1.4786376468529128
0.18125030873822282,0.12376867756566105,0.2512829104327023,0.26282875723279253,0.4108323647125891,0.48804262657972947,0.5006012900826249,1.4625884660535866
0.13428423163292444,0.11694263819811622,0.1945936654806787,0.2052219680704508,0.38646799034597507,0.4248445695288691,0.4596358619684252,1.5112318903431685
0.22933861907916747,0.1256695984165396,0.3284568077112239,0.36000408466015793,0.4173799275947,0.5182237879327126,0.5746807509475047,1.537319203827692
0.2371124232751498,0.12330891255158433,0.3104938570296874,0.3504169199344728,0.4227387497178798,0.5303707044685034,0.5743679578706452,1.5246710864217607
0.20376102557212178,0.10903329579301653,0.27808869456479807,0.3073507278861288,0.4135155510708797,0.4854286320537143,0.52426053573856,1.461831177969699
0.16073693387860852,0.10716402289998578,0.22473463945840416,0.2391201031580316,0.3808507350361424,0.443308296899173,0.46898852057457735,1.4415992248110931
0.24411523491001913,0.12997163064936745,0.3201736489235751,0.3608957091759475,0.404822947386469,0.5201568714995809,0.5576315217188633,1.5510976564823846
0.25830502130204086,0.11444509639496565,0.3356707211231463,0.3840051599320082,0.41381078564636653,0.5384537931662977,0.5848594598662994,1.5930234579411084
0.23466520510592553,0.12704630620803273,0.3070381740000797,0.3500399779336906,0.4308579979489521,0.5090746621942247,0.5468454284127392,1.5210079098427458
0.18062534270142702,0.10733087029026712,0.2582452613181167,0.28047515023354824,0.3869322525216796,0.47425425502186835,0.4857757691810405,1.464936971097493
0.2015283055916961,0.11457200529859561,0.2760071001515101,0.31718624138370644,0.4178719784978701,0.4812751966879908,0.49774698188748023,1.4460653964029777
0.25877169356918234,0.13141119544354113,0.3441164468566395,0.39614458487544385,0.4541150313654794,0.5610660887596254,0.600636397882929,1.526260805629791
0.23351313480194896,0.12929703747658983,0.31550564137214926,0.3616308303578002,0.4484341755667514,0.520153789965603,0.5592876432150502,1.547834258821373
0.19304226497301233,0.12352409877287818,0.2730027565493249,0.30139493281442165,0.4127754097126499,0.4758468331825527,0.5159710911289364,1.5348774989734675
0.1563185356221931,0.1224783889065511,0.22390919920016453,0.27024967889104407,0.4134932976102318,0.46449873090321075,0.4623297577264949,1.4865867623461937
0.24112227859567445,0.123947204488317,0.32142429518635224,0.38355966021239807,0.43026332714623056,0.5456016140967618,0.5854102820279754,1.5246137713153773
0.20958258410035285,0.13343032745222327,0.29370188348964926,0.3260047992454824,0.4332224620962024,0.5125742974835968,0.5627789848862842,1.5096374538855335
0.18472498345655966,0.11848921666503498,0.2614072330450662,0.28508478282691296,0.40903834589145777,0.4825786636734685,0.5158265829661464,1.4949235566337908
0.15554394528387286,0.11185925980021237,0.22032739045824562,0.24011770219962708,0.39432715189991335,0.43280697506204274,0.4590317705559277,1.508646721639933
0.2292636703441341,0.14229673479750887,0.3135639034415561,0.35573013540807896,0.4041925052979156,0.5292215542470522,0.5700970998047944,1.4785069901319015
0.20823052643849652,0.12740611667787927,0.2766991439769546,0.3137121909883735,0.40140750962634386,0.4987437474575862,0.5354772326033866,1.492492601162292
0.17038435308442892,0.11820812703730163,0.23235730095609936,0.2697838482834796,0.3669288708243755,0.4678357780901389,0.48462986916680906,1.5412715297153188
0.14857574069483523,0.10220307195109406,0.21680254242213437,0.2418623303420614,0.3620747631334009,0.4409033649741933,0.45899341113862907,1.4857455899424437
0.24201370323806415,0.11902342764512584,0.3250499380401058,0.38114240484556283,0.4089300456349498,0.5347607911998742,0.5909001170214152,1.4721813651236444
0.22834128611218835,0.10299973238363877,0.30152748178993133,0.34658117559107593,0.3884645329095578,0.5253013841254002,0.5738342773168671,1.524720655311847
0.1826415945856515,0.10425058716431858,0.2584527587064574,0.30395488677195615,0.4033679300795288,0.48997709392111977,0.5253515624722928,1.5660925673193005
0.18046235627836715,0.11080078512682397,0.26328433449182126,0.28197086898776447,0.38071970408381156,0.4555973116925598,0.4980973881084677,1.5406339302706273
0.26939564700891344,0.13192308132546107,0.3431868072793643,0.4097486761508351,0.4429017783101576,0.5579201402943174,0.5921735211920081,1.5333033894046515
0.2523630037736938,0.13127457345510313,0.33261874252449863,0.38130058865183164,0.4477168844642806,0.5455225331854874,0.5867793716286295,1.529558400930001
0.21577969556531307,0.12048207421988794,0.28939410066135984,0.34057541156703286,0.4325635414633652,0.5210030773149129,0.5304686316677177,1.5420301930272937
0.19838344071544364,0.1315984224301221,0.2690593563567438,0.3023035195695997,0.41524579410343326,0.47250271487969364,0.5170052570653992,1.5379563746469995
0.2749027623973497,0.12161349906985344,0.38055993548239375,0.4234979929131943,0.4696555970672638,0.5737439288892646,0.6281176985002428,1.5675754974926208
0.2621901724943377,0.13350542040846464,0.35238909949397146,0.39214748839606617,0.45551325347605365,0.5543537185635199,0.5957563863992158,1.5293363613786555
0.23422363375836672,0.11268182158661043,0.33152886448828045,0.35447240553125886,0.44499441098571463,0.527957102264055,0.5595816935103061,1.5561599020573027
0.180733700936359,0.11801656385711666,0.2638065180087873,0.29120905630930727,0.40975089604325776,0.47798184364122065,0.48587977613938255,1.5449874209198189
0.27536322477333974,0.1329887186865459,0.3685389451518892,0.40889690724990313,0.42759304455744856,0.5429559012235068,0.5894822247569398,1.5780476851309726
0.28582920004067286,0.13375112304645817,0.36667470334007807,0.4095161258100611,0.464648273429327,0.55987629769072,0.6181179488894876,1.5657448219511136
0.2501047181238863,0.13317248796495576,0.32475691407209767,0.3548767100243499,0.4106165948423588,0.5255975999921277,0.5854502982635301,1.5898644724850164
0.19570469132578897,0.11596805606371795,0.27688202173173204,0.29018701856276574,0.4141186855992113,0.48560377637024266,0.5206770684049241,1.5230895307365546
0.20807331438762233,0.10888335001189675,0.2946787278004857,0.3179015699335387,0.4032692915537223,0.5087923193479291,0.5374534767307294,1.504775337929849
0.248860040394955,0.1263233745509592,0.3326155955729684,0.376109986397433,0.44023928412421437,0.5770205095593296,0.6037142795569229,1.5087070455672795
0.2338061679417488,0.1355656430827882,0.31032615582683476,0.35588851514761555,0.454979735150931,0.546609432139449,0.5756087683122004,1.5707507766515654
0.1726610574077717,0.1085873171638434,0.2634669295734847,0.2849752494690687,0.4214313810791027,0.5074419466544932,0.5197194634920228,1.5734986836053169
0.16792941169876913,0.10524454603683916,0.25461466946569966,0.2557227485661754,0.41160637767927166,0.4922204130651826,0.5086148820597693,1.5376027932793632
0.23927940007841245,0.12139495290898178,0.3173158851853184,0.3555774229540295,0.43992050675389255,0.5630682615293185,0.5878731199361608,1.516808754004328
0.2021521704871831,0.11251148819787322,0.2954560187641546,0.32423706278585396,0.43204222557567595,0.5239085967265212,0.5660922209485703,1.542272732304958
0.16269977732572488,0.10360813600816668,0.24578462148435426,0.27482438045430757,0.4079387376730301,0.47964169020051695,0.4983071353068746,1.4779232227652566
0.1514318334598717,0.11171665216742137,0.23119111643338858,0.2563070023763562,0.3905124129171162,0.4471928938076655,0.48154156899162637,1.478860975918153
0.2556250617105548,0.11268638273559363,0.3518255322081495,0.3857912211286035,0.43940266482941903,0.5426668946665051,0.6065982191086523,1.516377725106827
0.23647461874497913,0.12381119559196091,0.31403368938853543,0.3653566848825598,0.43806117169791436,0.5255831058300353,0.5718634221229295,1.4719772911563984
0.19221582184564107,0.11109931970111325,0.2806580012734945,0.3085778444227927,0.3984382281946852,0.493768337164749,0.5214417874142798,1.5030321554420207
0.1596849351430864,0.10237720106971548,0.23844418640703777,0.26555449698809364,0.38876353249156353,0.43716474598679955,0.48111188017710105,1.5691856718396469
0.2628630929588844,0.1042025932131865,0.3546435376146944,0.41122591017369636,0.4282077825315807,0.5119599741895128,0.5837308064703134,1.4251660804083799
0.2541498515665358,0.12367914534892537,0.3238412769721614,0.37756392458779514,0.42501469978088674,0.4999559816192769,0.5676467281930736,1.452278106136116
0.22902480455723295,0.10855621088535782,0.3139391123590458,0.34101182928156465,0.3809936746228983,0.45365766495882553,0.5001071626899614,1.4565953607194055
0.18221467516248877,0.096672798580892,0.24457872798257357,0.26628746229084144,0.3686838391420778,0.40077500530914467,0.41966428218963403,1.4648603130827096
0.24895437712788365,0.11925539401606428,0.314770673845029,0.37219598534275045,0.3801777383740092,0.4558275443089646,0.49740689047233044,1.528453008169095
0.2718298962327319,0.13731226568568652,0.3465708227784651,0.4034209207675584,0.41690059945749797,0.4740983171064912,0.5134451160747725,1.5337169717537151
0.23350804099997405,0.1186946565141,0.3230542847254444,0.36088878646620987,0.38134661244183005,0.4606223560140617,0.4864524522886778,1.5217478890403302
0.1815069039394907,0.12163608287180978,0.2498774749630938,0.2694317001733784,0.3521301255857676,0.387867318523214,0.4212398427109976,1.4456930222010502
0.181395769583383,0.10761489305489128,0.24986661437459856,0.2798705112963974,0.3540035217203903,0.38607149177010225,0.42095913614168723,1.546374534858731
0.2469223855608156,0.1268014986150374,0.3329734562398725,0.36706709237944,0.3920178182412114,0.47208347136731305,0.5140928232300772,1.4884047930204136
0.22575913492880556,0.11669449536752309,0.2805568736559856,0.33010862713001027,0.3825373310952651,0.4366201638755892,0.4827833887971435,1.5156693474733594
0.17963019252341045,0.12019197335575171,0.2536498783448184,0.27008536375009806,0.37788328856860187,0.414424616231355,0.43845145752410153,1.5273116585716477
0.15058286820647251,0.10926151972517502,0.20942795536406483,0.23319033773329062,0.3712917284366718,0.3767715694473742,0.39518093716962627,1.5885580925477687
0.21638345795855393,0.11706396897819835,0.2982317940964724,0.3276879081658365,0.4172206028689266,0.46940998890907976,0.5183811235441947,1.4878127257763132
0.19732864845597747,0.11189017228871304,0.24899348206410127,0.2690079201272791,0.3908003090702411,0.41955417107195975,0.4635094388266969,1.5663787736635046
0.15386524872877022,0.10868374646698693,0.19938092939627958,0.21327822543428693,0.3736817968036129,0.38249676479837225,0.4091295305712731,1.5181268603088829
0.13457637077701792,0.0972328292667694,0.20380689960387974,0.20455822748332186,0.3871310301712632,0.40715639575795237,0.40886565597148194,1.5283017733440938
0.21735272490268742,0.09999511495966981,0.2739774937914681,0.2949615255247781,0.4214840355522959,0.5047509373851636,0.5253753949968257,1.5533196026632945
0.1825768769668128,0.10281187213150979,0.2409526119007559,0.244134595601308,0.4056077475847843,0.4628843596242732,0.48972307044686697,1.537576607947057
0.12083261554232971,0.10679244441651507,0.18129867185772697,0.17059397585520247,0.38366370385044307,0.40274727395680626,0.4268164973069651,1.5560865184671577
0.1288292511287127,0.09728216141812845,0.21162237157540406,0.19633356443791353,0.38510934833748517,0.39739558855178236,0.44553706215121586,1.5523881502438026
0.20239654357202405,0.12151606211497167,0.29603030681949005,0.3124664557483627,0.4119806112843066,0.4858482020395283,0.5401165870834308,1.545970555580652
0.18330198243650198,0.1098546487749097,0.2661607269763041,0.27859548902743797,0.4023604874266706,0.44708455825286436,0.46935317733067133,1.5595187755295623
0.156817921630169,0.10457679673853168,0.22308515851613542,0.2263000344682298,0.38363307457108464,0.3931704706879243,0.4057840573468451,1.4715050767393492
0.18062405538682857,0.11953207642284293,0.24873678070178726,0.2630398782841317,0.3991160408767226,0.4031326631416423,0.43626536379241987,1.5488521396051853
0.23836511463081864,0.129375323911166,0.3032403514451747,0.34230038781496513,0.40938359180449646,0.46631087919925623,0.5106204267345631,1.5436431690739296
0.21041199547464584,0.11427190186944594,0.2726131591286024,0.29781018598147446,0.4042003396592875,0.4366546533668781,0.48141286743191797,1.549556596758341
0.16619538325074762,0.11349188966206711,0.20849654512826665,0.22679308826263195,0.3876431893229279,0.3676058455825721,0.4031364284618604,1.5825864881371572
0.1968176872882642,0.0951189622903776,0.2557828252585808,0.2835881598370686,0.3808507342624572,0.40975639796481816,0.4156769061342407,1.543686764412679
0.23426525537143786,0.12485192029029972,0.3120998694267358,0.3322953529142965,0.41754273397652353,0.47298100938316046,0.5200136796546172,1.5642288617498488
0.2105535140055696,0.11765884311866388,0.2661324535887513,0.2990717393747893,0.39899676910816523,0.4509026727697684,0.47182134171715423,1.4960542001140784
0.16158472526498263,0.11349916746567153,0.216845939367837,0.2263486770219572,0.3791973384420888,0.4051641983425835,0.41465582580823657,1.5086721772345433
0.18823139142519518,0.11009810014861204,0.2371177349081067,0.24897801291275792,0.3877601601048641,0.4097763186517003,0.448934495243966,1.4766909843575655
0.23048209267000483,0.11631906563345312,0.2934648501519044,0.31849484920674664,0.42719606550741707,0.4891035744408327,0.5315642062804866,1.597725162968871
0.1992916206419058,0.11730727539214685,0.2573017837316933,0.2796719488590141,0.40349104073632386,0.461964546249398,0.48799938451512004,1.5285347264803182
0.14886547284291937,0.09948018701237865,0.19897988343617773,0.2067934982827109,0.3938166437350916,0.43068125495729953,0.43598977146972095,1.557974187161381
0.14116159678511794,0.10392803673701287,0.2059523809785232,0.2050053321667031,0.39569558326197013,0.4036224348726085,0.4348857332708433,1.5419169283699277
0.2289241948311735,0.09954319776821953,0.28681922859125636,0.32023159489476316,0.4495411164991125,0.48964962142126284,0.5256377561719746,1.5476599280130567
0.228961785412182,0.10792777733646422,0.2787688595385435,0.30605754209043295,0.41345327846434676,0.45061287671891526,0.47309025605648,1.5643606929502691
0.17959740365548055,0.10288825557380113,0.21157211361963518,0.22164952225564344,0.3836579213970541,0.4020904245449519,0.43619983385290023,1.5528954552534908
0.1404624152029446,0.10860919244314755,0.18740999835675806,0.1894651810569908,0.3835163136019609,0.3888591753348441,0.4213830703013654,1.5123922432011303
0.19601626761951385,0.10752924839155789,0.2556425641485862,0.2647758781122196,0.4182384468359651,0.47442697788695165,0.506999428082247,1.5518161963578245
0.1655087713298344,0.10620686630986774,0.21216885356608667,0.21892366723584925,0.40961368208762905,0.4428298962098113,0.45341770218071287,1.5469751136291154
0.10920860820013081,0.0776441632629302,0.16757517473830247,0.16956498498785333,0.38288013280404165,0.39422505147777726,0.3927122227243252,1.5632613163989075
0.143514876218381,0.09929516417631001,0.20886167047044274,0.2059078492174168,0.3877024086982689,0.41359082470714364,0.4390158529956846,1.576440305004288
0.1849787599749695,0.10121841364749129,0.2518316392419207,0.26163324737160704,0.40302100169456906,0.4562500925457194,0.48607782082194456,1.5435956640996191
0.15279942194478704,0.10234250741100194,0.21090747312467756,0.23604647212079766,0.3825741520778231,0.4048807658549133,0.44662257479006284,1.555892404500522
0.10610902852002342,0.1048695966049781,0.15626967197015007,0.1471482537373982,0.3572313952362557,0.36941325112315293,0.3633391338706511,1.510941245876512
0.1762180785658826,0.10593489273735339,0.2457814266092983,0.27793729500500114,0.3737380743987751,0.39341022968933437,0.44970453794355353,1.5570426868293876
0.20914897080270262,0.13142050619994264,0.27604138474064766,0.30943478551683135,0.3992351489189393,0.46226173855162767,0.4834435102516111,1.4737073320048177
0.17938570188215608,0.11731243719549567,0.24580992212501243,0.2719520580255179,0.37289656602349297,0.4169575991158177,0.44973283243765416,1.5586370202868103
0.12160764577225758,0.12086799001769502,0.17863060952501017,0.16970012473006826,0.3584035286916399,0.3707125123935919,0.3786111935735224,1.521331450513599
0.19468077230589112,0.12162625187790069,0.26370053624591616,0.289778354391437,0.38183335970853816,0.4242492225778533,0.44681667258889335,1.5195548922277609
0.2186434136806549,0.113871840668771,0.2911082381116827,0.31732016508312944,0.415210025061434,0.46437623073821455,0.4715661788280669,1.5610789286999436
0.18376945520194893,0.1045448394087406,0.25478691122352004,0.2829385688271249,0.4039267586731999,0.4135886771670113,0.4415256072778787,1.540236892962258
0.1427612914513356,0.09662627394858342,0.1856536833660344,0.19682388724928565,0.3693845232963934,0.36931076834595067,0.3630391820154663,1.5226798072167664
0.1863179027656049,0.10816136581260694,0.24445747553050462,0.2815139981840972,0.3855649060402057,0.4061931601261096,0.41019131010948157,1.5355137899864286
0.2131053434073979,0.13730937703150958,0.29164908326018346,0.3171484064327805,0.4038946173882305,0.4515007499744177,0.4727037482248843,1.5368565151558449
0.1896531514268415,0.11750116084383898,0.25595252852538797,0.28134770091312206,0.380096208520303,0.4186401200519511,0.43305612801376475,1.4973310950520475
0.1345076626616851,0.09491632371298717,0.1789285669358726,0.195923881493845,0.37240623154299995,0.37389945670265956,0.37654440127513755,1.4579635659566543
0.13176808204359233,0.10997491992354066,0.19553234195413316,0.20183640346171977,0.3523631869448298,0.34870747252976064,0.3528779502907726,1.491885404393794
0.21559833430306066,0.12641444770691418,0.28973830779820564,0.3128101874777833,0.41327097714965344,0.4505261420811762,0.4737434231523294,1.5441225020644924
0.17612439712380978,0.10986883267830327,0.24391058370178598,0.2685574177543065,0.37419978970568446,0.4112749204232724,0.41721188317074565,1.5228283578424935
0.13176749136860536,0.11309143145932624,0.2076750695303008,0.20782349902969352,0.35113997970750604,0.3625573183063751,0.34239315462814757,1.5278287260289867
0.07269303134509451,0.08900541910063242,0.11801627546946614,0.11120831350323926,0.3393322894525403,0.29773623916185604,0.3057075156700002,1.5002774877382692
0.17913276126607022,0.1149067660659375,0.2548475559258623,0.2623331836276304,0.3650256266032361,0.3970055784689779,0.4175370512635688,1.4438221227518782
0.1566577695332839,0.10289544261893799,0.23465849032331004,0.24762826632996837,0.3662506297719825,0.3979045418848673,0.4139210741034318,1.5223825424264552
0.13403836430499094,0.10132991095414579,0.1896924005838214,0.20928417643801972,0.3472061673872232,0.3439968728266074,0.3655090893055117,1.5661335252168107
0.07975232069248692,0.09867278228310768,0.1327757842723066,0.12468072191859289,0.30486059559057693,0.3022868581482,0.3043352020139022,1.532648740802292
0.11919990783127578,0.10349134879789468,0.1714378053573164,0.18461248451493195,0.3119194664776948,0.3250689202509419,0.3391187485654431,1.5376585924293424
0.14927505528768278,0.10484128102959742,0.21449802164870468,0.22077759366728356,0.3306586431644391,0.3736791728780544,0.39972633862859985,1.5169830615081334
0.12831337783289032,0.09361207912189079,0.18266259624844905,0.18776131908124666,0.31212465375281917,0.32719554966330805,0.32912652271836546,1.5074289472592366
0.0657158738803043,0.10251703141688456,0.1015915689601354,0.10362871231869471,0.2841775335617666,0.26785310716315675,0.2842003312013868,1.4522856019828625
0.09613534285946251,0.10246641766009981,0.16580822029458375,0.17475747695519345,0.2963559135575629,0.29836389465390223,0.31961078123963477,1.4865203499790463
0.15351598779057676,0.09796153427768228,0.23801448173540626,0.25200698022052054,0.34954046081540796,0.382939949341424,0.4012658434773862,1.5438661947331616
0.13720422632726492,0.11791018665769064,0.19423120063392796,0.1967426778284629,0.3350905825493732,0.32987668398025266,0.3515562373605961,1.5723544631065056
0.08816738890477464,0.08730846931323728,0.14388736044917583,0.15064180615030487,0.31719499246814387,0.29612074101296865,0.29239017822146923,1.4272444214003022
0.09048540966965611,0.08718479106640342,0.14677428055663988,0.15133611877964626,0.3221527892937747,0.29035565032900407,0.27809700800714243,1.5242584880914283
0.17671550422212892,0.10630353828400112,0.2677564193226304,0.3017031624042724,0.3765319386384354,0.4092280136131717,0.4385528107106598,1.4968641606201512
0.16388063732989372,0.10195643010689132,0.23348113475301385,0.25347878069570595,0.35354998010106525,0.3718699505428691,0.36912869570636603,1.507778668233281
0.13156669956453604,0.10243589650846265,0.20725312018238262,0.210242028654126,0.34820612900420206,0.3445877223749528,0.33682972377005443,1.5062472891557603
0.08100972919995265,0.09716327403422398,0.15362832690565703,0.16567091396586703,0.30547941375944626,0.2862095350867758,0.2778395773685906,1.4810121651486048
0.21761605354324293,0.11259786448266779,0.2952929630999432,0.33219889997660296,0.36573951270235283,0.39221614859656767,0.42264541439356207,1.4978188758356223
0.2262664344750809,0.10845073106717762,0.30075939951401026,0.3296436529716438,0.3632561568402613,0.39876231462691125,0.42177301311480964,1.428758581880683
0.21563857978785403,0.11619158660861517,0.2873846318672385,0.32408500397932977,0.40843985858762216,0.3952685270800635,0.39037120650957985,1.52382117317437
0.2097268106539147,0.11428202568691866,0.26309725098953235,0.324859700839895,0.4748773528045017,0.29820348280833153,0.23809982010550051,1.4808468444571985
0.270171896388709,0.11746019727406315,0.34292924653834145,0.40760202990481054,0.39411011501451065,0.31319772433789483,0.2705854550905765,1.4162903509187028
0.2999046882557777,0.12656980209796323,0.36113763760513573,0.42002962810101185,0.37651036508780233,0.3586223676489206,0.31634411580649524,1.5623120442873026
0.26907761984698675,0.11563436213921523,0.34251262545044514,0.3889176260005218,0.3350874849754825,0.2957258507336005,0.2881724889183423,1.510093360582764
0.2330789052060232,0.1304061362579846,0.2987755936745524,0.3266429675075833,0.3130292863238315,0.25016246025239236,0.2352460273485722,1.4699299814838969
0.25840128437689536,0.14098226050986404,0.33442163602185493,0.3797347889152507,0.33396080904851533,0.27829612206050847,0.2646865871742508,1.5468592204536966
0.2889301514346321,0.12410467957638573,0.3748784866688629,0.4283362647021614,0.369173673726187,0.35724526800022754,0.3436178636254257,1.5590452612077264
