0.0572929562068298,-0.44993909637655943,-0.12686378994664077,0.057917183802221994,3.718862717101821E-4,-0.02103206942392936,0.046425803664488056,-0.5799009417657186
0.0853320847468354,-0.32373626563842356,-0.07783608636332277,0.09699360211207725,0.025185623527895266,0.002036026379049775,0.08092073255847684,-0.49359988505780494
0.08240969227485714,-0.33008678106719275,-0.07864446248006045,0.09466446351572667,0.010731492006436243,-9.53933686850697E-4,0.0642701350167189,-0.501154654646361
0.07542862009182859,-0.335169544073761,-0.08527537586194749,0.08776723679913932,0.020549887941590274,-0.00298042005968866,0.08075300960242758,-0.5049424568202081
0.064472556307211,-0.39435674274037474,-0.11200492919460145,0.07804474811856611,0.00939665969962721,-0.016363620786373788,0.048077554148397136,-0.559751183089364
0.05341414830099659,-0.428858600972106,-0.13064519504447247,0.05600413951195031,-0.004116469434675971,-0.037769526168459064,0.04132024477184121,-0.581337586716499
0.04998700538694798,-0.46948430500408395,-0.1416863795400547,0.060611368389021654,-0.008917238149157517,-0.018129860505610124,0.04012694166083447,-0.6146200348043261
0.09753340744264472,-0.3376504610839762,-0.058726408018643685,0.12200639827403889,0.03101260152718176,0.015936410317862977,0.07420207903085145,-0.5034565182422371
0.08753703817408275,-0.3095353614908686,-0.06527405808848549,0.11953917704354187,0.02572986853694085,-0.003080726146228604,0.07856489019064228,-0.5038717439155391
0.09741936336852428,-0.3131423968201393,-0.06482752737599906,0.11845024668416804,0.025746674955692574,-0.007713479703739273,0.07695692495871254,-0.5055420590601432
0.08418387378981887,-0.35611177554073575,-0.08505945274404379,0.10850307537545269,0.01626594805215878,-0.00637353145221405,0.07095955859259863,-0.5214838806620306
0.07252766419480422,-0.3951744974652747,-0.09895475412961294,0.09457025145182198,0.0039258920825074334,0.0015865001169575682,0.06553143924100704,-0.5757170027532899
0.09084441489969741,-0.37374339027363135,-0.08282750752622575,0.1055910125640258,0.01440639264059789,-0.004076307476492173,0.07135979453115562,-0.5476215828632698
0.10301422088788706,-0.29869229837846795,-0.04632114249299271,0.1414741855312426,0.03525724689645339,0.012576995164114787,0.08635159115670109,-0.49797927767098765
0.10329549303883226,-0.2939765065737632,-0.05253616390483057,0.1373017292888942,0.03743997540019294,0.0042918911478521254,0.07900167184621042,-0.5215986158657825
0.09434815091233609,-0.3257008285235192,-0.06751628743521082,0.12630786782627876,0.02422115683585288,-4.386045484859494E-4,0.07906471739157693,-0.5248307545624116
0.08842967207018566,-0.38021885442149367,-0.08615347343180152,0.10813411560388711,0.02843933094542877,-0.005181891779150669,0.06928477930857603,-0.570498607405647
0.08265215113235766,-0.4143300555468482,-0.09342948482769355,0.0992796662028234,0.005826601426036232,-0.006538884287725311,0.06397669642657976,-0.5923155432846695
0.12015932734001625,-0.3091757508133739,-0.030442750368890936,0.15751494945064143,0.051662689919295304,0.030705766111844772,0.08347515366724521,-0.5005802281487604
0.12258495081844585,-0.27981748711772436,-0.027543299087418642,0.15531121830894098,0.05933068697392279,0.02918016295954483,0.09912508584776461,-0.4968860795454208
0.11216682921811764,-0.28542484728591244,-0.027104401362545487,0.15646677410013102,0.043795261378023656,0.02155444137007631,0.0910284353085395,-0.48825472607823917
0.10353091933498976,-0.3133962569945773,-0.051490837424754715,0.13418660223099277,0.0385918019861801,0.008260156694937546,0.08503091618220622,-0.5197172641476577
0.09722423223817461,-0.35113740238719526,-0.06477481854535587,0.1241891996455336,0.031329895222451234,0.001130714328841956,0.06995403500986996,-0.5377067020284566
0.0858276646895287,-0.39058845823133276,-0.08380510117562603,0.12128317556891495,0.017544605803699206,0.0025749116061141567,0.05554985071184878,-0.5829463847840457
0.12214837376956376,-0.28711651623090173,-0.026346410631900397,0.16220083258865295,0.047022074141878076,0.03447822772921471,0.10813932276231107,-0.49240066227636264
0.11608744783222204,-0.26074201211026704,-0.02529873954669233,0.1676521971386952,0.046114581956301616,0.025626396693214225,0.0919002771143654,-0.5033826578268716
0.12036339699933947,-0.26425813734503883,-0.022131880270183004,0.15662390925537606,0.057185605093857395,0.024882270030462887,0.09070667089732404,-0.49706196708128564
0.11124894812961225,-0.2979149080672923,-0.04201775537251373,0.14674838330887638,0.04383315709125341,0.013418085781788559,0.07776059474591888,-0.5235561916453142
0.09869840537123664,-0.32947875885716826,-0.05743129057790134,0.13144004392070185,0.03119486676452483,0.0039183164304842245,0.07127819540590467,-0.5460319435437768
0.0872463640367266,-0.3779788799661751,-0.07702650242495174,0.12349712849761041,0.03924083489452902,-0.012712231617563727,0.05157755265351562,-0.579723695645813
0.0958303525478092,-0.3877515709390893,-0.07241345264212024,0.13090998153954495,0.039272498291561195,-0.005344899304969826,0.06106720240810117,-0.5633742068660975
0.11310239742353358,-0.29125664293022785,-0.03277918713410417,0.15399262306531988,0.039858981318721474,0.01328259043144098,0.08040779897775238,-0.5079272162557259
0.10790401508693237,-0.2947102635991581,-0.033872795234556094,0.15176450865353006,0.050898610372567175,0.008053638219629337,0.07081997580824897,-0.5285626209735574
0.10463010358226402,-0.31269052866014785,-0.04465758968177199,0.14773734833093655,0.03819676317891916,6.887951974554745E-4,0.0667651909413855,-0.5241892061864248
0.09235238645008913,-0.3482310188457875,-0.07293017888181394,0.13522401562756198,0.018672416591455396,-0.012919251935613506,0.05769124379986133,-0.5638835649792103
0.08557195597997509,-0.39662678471502655,-0.08938482422957315,0.11177427084319015,0.020765778643782443,-0.01802830752271135,0.04111164343887496,-0.5962618164371922
0.0941804749746543,-0.3886711244080574,-0.07564002072256176,0.13087610559424892,0.03245644703286055,-0.009508215151805163,0.04777967407226625,-0.5722996205376496
0.11273315034901778,-0.30043908248111434,-0.03960689112199671,0.1457829906214292,0.044540930824730936,0.00334273035918462,0.06995002688827881,-0.5331998002716768
0.10233557765140779,-0.2983489462403008,-0.04548822228949821,0.14010410155704436,0.038614049283507604,-0.004677067547693801,0.07240663787910405,-0.524003455143505
0.09287729685287884,-0.33319270368648035,-0.05882408331847177,0.13068112412576183,0.03538191023232558,-0.005771945400501998,0.055718175027862776,-0.5589087037445359
0.08700096219259285,-0.3808633263067566,-0.08233662214549131,0.12077563717599278,0.023690027420905323,-0.01851673647359155,0.047285892409326305,-0.5952532279237936
0.07881192485875134,-0.4188657053759424,-0.10177909716229071,0.09845080066613392,0.016012682990298774,-0.03690693718454983,0.037723253801302536,-0.635529278537018
0.06183698644536599,-0.46913710954299986,-0.1287761079476648,0.08494207026545114,-7.9868125464233E-4,-0.034740639911358236,0.016037077190354805,-0.662488135322559
0.08911474652984068,-0.4494723423160991,-0.10264104924984285,0.10382173058472491,0.017744866448590114,-0.02255787697049693,0.02738058319404557,-0.6404741653417813
0.10144412970276911,-0.35577778288996814,-0.06525727132772623,0.1308690790510395,0.031077532606775975,-0.018676005198845037,0.04648841616667086,-0.5761088660034749
0.10551971980243896,-0.35127504381298014,-0.07189441514812873,0.11993288996136575,0.029123489540119223,-0.024872474557141037,0.052525854965098255,-0.575093145629084
0.092166147322522,-0.3765130943353385,-0.08829098644583463,0.11285322452938928,0.029352023256178403,-0.01509046491449927,0.03808162461532864,-0.6101875806487659
0.07805464863190106,-0.4235479373382229,-0.11108318846924145,0.10285368014886581,0.010865559262578055,-0.036231742222763895,0.017613511563294156,-0.6495526616300247
0.07312833597658507,-0.46527561310589427,-0.12692671242818532,0.07999244957505054,0.011341689493973073,-0.03800791038235883,0.02133204985132045,-0.6750746537261381
0.05423939625008674,-0.5173366278348988,-0.1544194503147217,0.061777464796521804,-0.002089617956691693,-0.044486146647496116,0.009820070932420167,-0.7119822041038875
0.06187941871898699,-0.5342227520235385,-0.1517115754982508,0.0683329821767342,0.0026288717949034756,-0.05112541592371397,0.020223791396963318,-0.7308102040177953
0.09412228560214246,-0.41213472123028816,-0.09428279775915274,0.10878914142294278,0.029655672107320428,-0.02317202396010505,0.046583934309153655,-0.6261181612258474
0.08245047517913595,-0.4152857498374476,-0.10394374425296916,0.10643180421767447,0.017494115754700893,-0.024889195109759604,0.016111147501378414,-0.6358497670933454
0.0814607245518933,-0.43524721372174313,-0.11576976070292337,0.08852873679324462,0.008056580054844302,-0.04087248671341065,0.027622116436315118,-0.6662188205837738
0.06748521447965278,-0.49576388584803677,-0.14599222747834217,0.0786428049551276,0.007024642167818614,-0.034360089192692705,0.013462455455111664,-0.7000496148597658
0.056931411085861326,-0.5324712482510782,-0.15904323536500767,0.05319484654633243,-0.010157857924537318,-0.05579186444966087,0.009783013749918862,-0.7392442745907546
0.057777070300780865,-0.5549348539948834,-0.16328398743580372,0.05056543076870454,-0.014546664353307079,-0.05051836360357919,-0.0018286121512669307,-0.7295289375769541
0.09091707370591809,-0.42692077327568795,-0.10062757986372953,0.10454904272696469,0.027181351616142414,-0.02135609424962593,0.047017121590683546,-0.6375682401905605
0.08757270033338176,-0.42346688437543584,-0.10932311211499574,0.09240548599407877,0.021169594160030704,-0.028953269109479096,0.027531878390093044,-0.6412036923215991
0.08136927910037646,-0.4336899159101758,-0.11263592099977582,0.08283377879830944,0.008877250680995452,-0.03046990325812941,0.035293030422093676,-0.6710415186609464
0.06720937447250483,-0.49707785556807893,-0.14204848512815313,0.0666000043617025,0.004783444921070004,-0.03267315705059523,0.02796856742844808,-0.6845557666734338
0.05780842796221506,-0.5384772204985592,-0.15881764703936385,0.043593959428030474,-0.007884973711252298,-0.04846469751573775,0.016110792181220034,-0.7528075075754612
0.048494461436634106,-0.5795892033687954,-0.18491946774676163,0.03810863222706422,-0.0032497031105022545,-0.05351360189070659,0.008033307064347203,-0.767252977872451
0.09604037245545041,-0.46225475190192605,-0.11046667832578363,0.09075143705302378,0.02079690035888725,-0.01931749887864929,0.058181257360987504,-0.6960703145258959
0.08466954813100787,-0.434704030886738,-0.11008092290207731,0.08959063345537487,0.021152839882284294,-0.01656142281357696,0.04148978161181244,-0.6466552937730965
0.07962484422834,-0.43935518816718505,-0.11455754975590873,0.09369628374938545,0.01586918619386425,-0.008660090739429225,0.04531513941323782,-0.6562744107604122
0.06917434599020963,-0.4766030912279,-0.14134089417787296,0.0748507043603291,-0.001764906497699866,-0.03352829228698584,0.03375929979356939,-0.726262670333961
0.0556488425082487,-0.5387157664139895,-0.1613666584611735,0.052870213399468916,-8.618133220303282E-4,-0.03403632700969174,0.01968475415158741,-0.7384178931785796
0.05047433334902279,-0.5857893348621427,-0.18259296553183452,0.03359813770108721,-0.008776021276623655,-0.04217583386720574,0.003187492929197247,-0.7840833600619378
0.05530473850962642,-0.5787799325963513,-0.1716264329518146,0.04019879816034679,-0.015042413490195023,-0.03170752966053786,0.0159813158179515,-0.7593498714218458
0.08352120757757107,-0.45087444981440367,-0.11052193799995866,0.10156098524417757,0.011025711911941473,-0.011580176842175879,0.04718053305770461,-0.6635467952685646
0.08308849718206619,-0.4584046940399636,-0.11720699896351545,0.08924463547418836,0.015696271160421667,-0.013709262496600443,0.04713398869633102,-0.670462605962264
0.06861579139229021,-0.47050879764960285,-0.1237736462789719,0.0797919606433728,0.005793846682239094,-0.006767982480720905,0.049373244196720595,-0.6921900653645858
0.05244149921576513,-0.5291005426187297,-0.1592701615453478,0.05813865375207578,-0.01114576825913728,-0.03113129254860527,0.035974295267732756,-0.7263059629769061
0.048758086133289844,-0.5742101435519367,-0.18222146710192816,0.04160444622757691,-0.010418674842047025,-0.03654800338153358,0.02007188216369709,-0.761953231189882
0.057487051866245455,-0.552753945144188,-0.15498744025537356,0.06382701728396711,-0.008212252768938147,-0.01563101839584729,0.03837698081988006,-0.754082140713946
0.07466638619208416,-0.4671872650713844,-0.12109035099897053,0.08446553900681063,0.012374911129612181,-0.00845747679904007,0.057937456309206194,-0.6746534698262994
0.07669808909962349,-0.48660360824704885,-0.13549635528699183,0.07947112358403463,0.00429312202280253,-0.01299880937187563,0.050453479169996616,-0.7107025404255555
0.0649185320112914,-0.5150561517095952,-0.1477413684282941,0.06584289493904502,-0.0028369758191177413,-0.01959849862117108,0.03912652353390787,-0.7266393911062983
0.05361714623754432,-0.5773013066299032,-0.17151692899643792,0.04461449000550218,-0.0083554558456558,-0.03515943439633816,0.030057630491057717,-0.7573589280972689
0.041314301386811296,-0.6161074763158494,-0.1929574105201846,0.03559496297519954,-0.015524805173117533,-0.03178601910170727,0.018550341024791018,-0.7979148648948777
0.0856803608138839,-0.49415419500693814,-0.11891837159133499,0.08783812083371166,0.010039698485190948,-0.00118129150688038,0.06264975277047855,-0.6989243888285908
0.07881999914769607,-0.45653268805936337,-0.11406228310919433,0.08985319112723451,0.01287514581460925,8.913801459841816E-5,0.06874029210088689,-0.6773508408150836
0.07864263457076331,-0.46398330896571194,-0.12048203781232615,0.09468134290498231,7.131102021951679E-4,-0.006205303518116684,0.05468708405530599,-0.662426443060149
0.07106366585823684,-0.5014755736275549,-0.1381899876138259,0.07185428045810004,-0.00929734851102539,-0.008552447214997715,0.057455907416021745,-0.6903947387573218
0.05422979109835584,-0.5539226661983352,-0.16114753128448386,0.05426866122468519,-0.012356106361184734,-0.021602839967654,0.047720508257045526,-0.74463080456569
0.04535298538621451,-0.5902332843224494,-0.1837104444939494,0.047617831265800784,-0.017848964523436168,-0.037117139727692844,0.04904128781144763,-0.7583329211821744
0.08646551520987295,-0.4811872548497203,-0.1146261210941621,0.09655531456825255,0.013140379339911464,-0.004448762158244795,0.06572849029366275,-0.6768187307896596
0.08686720261604067,-0.4384316682172814,-0.1048952463730529,0.09706802335102283,0.01887161035216623,-0.0012582894454668107,0.06719475090705061,-0.6756947536383343
0.08423013512945256,-0.44422205102943996,-0.10797131620447635,0.09462862569141403,0.003362226454775241,-0.012885540689884756,0.07424149671035647,-0.6734022420428929
0.07441975647054808,-0.4773485698654382,-0.13226725874261214,0.08172936895106082,-0.010526549833345594,-0.02035558702460497,0.056332708121041554,-0.6950314498568314
0.0600904624099736,-0.532689048489264,-0.15360487460799446,0.06335169762801006,0.005429639876583561,-0.028856118806597574,0.05260420207061408,-0.7327131497281443
0.04752747859048638,-0.5700230266513902,-0.17083921911821445,0.05605906225068704,-0.0037975971503078168,-0.03235053894162802,0.04570315604477393,-0.77108660269512
0.08678900063072378,-0.49321234848251805,-0.11712972702214533,0.09813187138266302,0.007219946118206432,0.0018873307628748358,0.07660700581288606,-0.7172342781540852
0.08325166205644029,-0.4398014616622267,-0.11283978199661251,0.10210564924495649,0.020419347842518795,0.007023691266859563,0.06823679143002796,-0.6692903433758796
0.08502388627207634,-0.43722668691482686,-0.10788494809902018,0.1093489017383904,0.010822223409931445,0.006481106406169305,0.06767673879555774,-0.6653632843821197
0.07439643516334005,-0.4825297235404555,-0.1251388318832774,0.09021366381619965,0.009497328979259215,-0.012224945209777273,0.05666366531711533,-0.6931258187200466
0.0641718830633632,-0.5205751770751538,-0.1392334964880047,0.07650703822675878,-7.222417141914228E-4,-0.016093964793188528,0.04593149768401001,-0.7226981077277168
0.07476273892308273,-0.5125705609786294,-0.12915569455396173,0.10106183287803498,-0.003586097715029792,-0.0076623426921708,0.05375161658973033,-0.7245051298080082
0.0940960966866068,-0.4015217265021029,-0.08421297047805222,0.12230984300017193,0.019353571487691117,0.008693354655021766,0.08009608544278536,-0.644840598853817
0.09065490380650593,-0.4088942556431264,-0.09167193334316295,0.123985029397101,0.017486040383810734,0.010167425143466044,0.08298600129820008,-0.6304943083297119
0.08559532687672419,-0.4251651685899758,-0.1050164495494626,0.10763376146626981,0.013659824071375755,-0.003951252213610065,0.06705852359879454,-0.6551071040316033
0.07404665935792151,-0.4779883970136764,-0.11825374478086513,0.08334468802217919,0.0040942419464082705,-0.0036330916351727744,0.0633371748258104,-0.6886956761934118
0.06364135546920088,-0.5132755328587348,-0.1424557581012846,0.08561855871576221,2.719902838094093E-4,-0.025592841983764564,0.05257930577176432,-0.7179202292488851
0.07944105784419592,-0.4891981512252309,-0.12206949842693525,0.10274441003251233,0.009489202775621222,-0.0030674780496374727,0.06344953959937015,-0.6905252429021822
0.09812644044227982,-0.39627493580388207,-0.08032767580820624,0.13441846074635524,0.037058183391667804,0.015325573749414245,0.08339598971360596,-0.6115149059849473
0.0946915415256671,-0.39975935394372436,-0.08756669335565787,0.13185648982091477,0.030613369036758667,0.00634239601199287,0.08005734896850479,-0.6415399877515697
0.08535991101365396,-0.41661665411672355,-0.09689218458910998,0.12012421991653362,0.017611366162091847,0.009654070052835249,0.07565647495260011,-0.6474263769064504
0.07561025011164299,-0.4603600357640963,-0.11791091981894894,0.09438452761197913,0.025308167290121593,0.0021306113355446825,0.07240920011094085,-0.6877480116425884
0.06492463636944389,-0.4998283424572488,-0.13300950462321381,0.09513445268159255,7.874005880705379E-4,-0.017091171497046687,0.05659413141836697,-0.6972545516063534
0.05365824605638491,-0.5399564964098666,-0.16149452087570174,0.07242635925758564,0.0042519679553049755,-0.009101302975580374,0.04215754508138181,-0.7286766556959731
0.07500481215516537,-0.5151710582331954,-0.12950493571147068,0.08951950210497797,0.011012011254654617,0.00330112104951364,0.06389980425325836,-0.7278023023801946
0.09125546034945964,-0.4035594772497088,-0.08713183472068187,0.12319816209509128,0.028418046298712255,0.007083950793694565,0.0839326553883885,-0.6019743084825669
0.08885832301321116,-0.40188788095126404,-0.0966010203004145,0.11534283187464335,0.025032654137434933,0.013994831619374254,0.08254275032336886,-0.6157221444046517
0.07101203547841604,-0.41948223299549064,-0.10641691654478029,0.10713395742429276,0.015179166916100903,2.7850584449599576E-5,0.07361259579105767,-0.6393057930986075
0.05991119908141424,-0.4589726181992272,-0.1265277010810702,0.09117398551892619,0.008290862750620073,0.0014765490334067066,0.06102657351956909,-0.6781590253996289
0.05662961325163696,-0.5084083440346515,-0.14392053123764606,0.07277897521259367,0.001954646852967875,-0.00865440152065831,0.04545558571554947,-0.6906430848816206
0.04874912742571583,-0.5545422313058009,-0.16304906997479293,0.05874323383181566,-0.00933172552864636,-0.023717038335785104,0.036014784735937756,-0.7198438813151918
0.054421560554174804,-0.5478986695513631,-0.15492300315184088,0.07111173623196797,-3.194440404464192E-4,-0.019118662511161184,0.048304456438542254,-0.7107288983445129
0.08586249388094624,-0.40876180518830435,-0.09220437999877502,0.11011060426748889,0.029491094156361773,0.016852504824178285,0.07502766576366528,-0.6208037498551704
0.07593721893108017,-0.4148928357561361,-0.09972372114245447,0.10540482529461001,0.013079258049830194,0.015190036664977386,0.08420274175805052,-0.618261976443936
0.07774730100438856,-0.4153421511912326,-0.10308735656911983,0.08820352213617895,0.013190803893538655,0.0074088016231533445,0.06512891488872749,-0.623623088849371
0.06370596119030603,-0.45692172305159184,-0.12284164175377896,0.07998438629625708,0.013327233914155858,0.003755554622123168,0.062055663673440786,-0.6412760557772269
0.050803851413575934,-0.49169046272980543,-0.14286815150993948,0.06478871011942156,0.004256903825690911,1.5057466708557347E-4,0.06396789010654166,-0.6600649587925201
0.04260349866442319,-0.5277404414362505,-0.1671029525864339,0.04913882669808071,-0.007078100028834361,-0.018114912615143072,0.046114475874983886,-0.6776353628043665
0.080303048207188,-0.42276293035896434,-0.1057952593832199,0.10051382142241723,0.013378811818604282,0.007695604707940718,0.08769695080749633,-0.6084292409244799
0.07463670250117371,-0.38649709879021416,-0.09757887531484305,0.09821180780466254,0.02205797027435381,0.007096459363319465,0.07935240809101578,-0.5686001669549648
0.07504824103093015,-0.37991096794429624,-0.103100842325537,0.0884277657876767,0.014031830621223361,0.009120695631944004,0.060472177628892676,-0.5601686895493782
0.06640910800064864,-0.4264570553621955,-0.1220980523686508,0.07726280788847652,-0.003046667852073523,-0.008811280531975985,0.05777345515570041,-0.5951807423008674
0.04880261807570244,-0.4512120126477222,-0.14255681681205654,0.06310196018386774,-0.003752751150893278,-0.017924270735136288,0.045036029130776256,-0.6253871768167967
0.038880236713496656,-0.4985596581503729,-0.16380616136432158,0.0472039433685811,-0.019994247953232635,-0.028047089290848013,0.03994021959215159,-0.6565327258717187
0.07405173776931562,-0.4016445911243847,-0.1012469327783219,0.0920543903705684,0.013688127762568543,-0.004337809040586893,0.05581562962339713,-0.5866148338772145
0.06849157330967628,-0.36234894832155806,-0.09763794082878996,0.08311688856062874,0.016304227539328274,-0.005178185378518535,0.0682438063618595,-0.5553507841361676
0.07325194432627921,-0.3552474344008194,-0.09895108607343667,0.08799045214244659,0.014241841991247157,-0.0019052384475703203,0.07258402793042298,-0.5370411999189777
0.05557019503970158,-0.38677630499988486,-0.11444922600603166,0.0729407823685449,0.014639550662162722,-0.0018756428197067012,0.04002200735926127,-0.5533478719606829
0.05106045194245425,-0.4197427035324308,-0.12858411490532784,0.05755384893057292,-0.012290976121090537,-0.018148120284267846,0.04885141771671155,-0.5885332790606522
0.06595621102353644,-0.3961185898465566,-0.11070402872241963,0.0809410180781448,0.0014754629594221607,-0.011952287015863112,0.04695710095444244,-0.5574764071371878
0.07202138883159512,-0.3198640579687,-0.08434660252500438,0.09751553934256355,0.01989294712947457,9.53576055458106E-4,0.07794331257463406,-0.5237220565173267
0.08290853116991999,-0.3233573976520365,-0.08746066593829592,0.09413851897500723,0.004340761472730744,-0.0018543593639737904,0.06111220017572127,-0.5158145544917669
0.0665130932590555,-0.34268655789777386,-0.10176675307214024,0.07970712611576981,0.014616834456093856,0.0047242570946662175,0.05314282198199799,-0.5206881225230007
0.054476201945750514,-0.3843041463684797,-0.12221140583977692,0.06725120739981402,-0.007761876521062444,-0.014288098022059886,0.05187013041448236,-0.5634082658553076
0.0802799299317273,-0.3522331361956903,-0.09689370486102125,0.08203412223632887,-0.008573327881518046,-0.0020073438459642847,0.06741197828983206,-0.5380281764526648
0.09031066709669049,-0.27406254005262365,-0.06905257309611984,0.09867994868606172,0.015571158452825265,0.01722855933097338,0.06403115751501703,-0.4913706626273317
0.08632570086977384,-0.28033391281336917,-0.07076158525665023,0.10304473342451201,0.017615814346563827,6.263700709952124E-4,0.0665897604671668,-0.48602191106410747
0.07404530943596871,-0.30063069360940203,-0.0804456821981383,0.09020591092370746,0.021315648940093676,-0.002889514637869745,0.06925813017306238,-0.5203529808209518
0.06812328552742336,-0.33916371766043174,-0.1034290149349637,0.07817040034420689,0.0015831934287120872,-0.013946827383955956,0.030149416631666818,-0.5354717202228783
0.06803996814101095,-0.3621161108195334,-0.1060823155684996,0.07976849724521899,0.0035591833527512987,-0.010127188223261838,0.053884351398563776,-0.5572108555946594
0.10545592086890704,-0.26012384858752685,-0.05083164310018332,0.1093948503264142,0.03329228087475711,0.01572896381475461,0.06301199040639574,-0.48146593521361597
0.09531330267364908,-0.2671539136713499,-0.05300177444847157,0.11387884914445884,0.024613175878214218,-0.005370550009773978,0.07318200756244654,-0.4753587153562361
0.0952598570655274,-0.2721944289350849,-0.058531315747055765,0.11399147954969775,0.028359514163476426,0.005268269259304524,0.057373742822159186,-0.46617948832473755
0.08429119203373253,-0.3173652471050332,-0.0823163104204035,0.09567192240424362,0.009689368390574889,-0.0037860914127949377,0.04873970454844314,-0.527991036189195
0.07538915229139712,-0.3506867238981261,-0.09969820206876945,0.08786337375410873,0.016995495622345928,-0.011767961054492206,0.043121674846494235,-0.5603919874774346
0.06308701106773802,-0.3959366854955529,-0.12020831893164315,0.06937100831295537,0.004123841248102121,-0.01648910876346079,0.02537150435839321,-0.5678346123718383
0.10185620037445765,-0.2886328488208037,-0.06049059317152892,0.11524735836320242,0.04160215043609716,0.021489017111313395,0.0727719885262746,-0.4988873834058289
0.10006975930963269,-0.28984909559027705,-0.0612709808918935,0.1158548155322784,0.02765916091405579,0.0032403662805155446,0.06772597527407054,-0.49331219079590943
0.0990789402832608,-0.28834157861026205,-0.0623355939396323,0.11576775696243798,0.01897247919892243,-0.0019218851957876356,0.049507723919086366,-0.5175279031292738
0.08641485389275794,-0.3322054054344231,-0.08599037415609483,0.10008117470578126,0.026953679213142765,-0.006870988331772772,0.042561144853121534,-0.584982271086991
0.08232296164248626,-0.3660945147155267,-0.09757835282428012,0.08704106310899029,0.010760983767694153,-0.01451257462404591,0.03256995051647321,-0.5871021980640843
0.07904128233281332,-0.4115960918717589,-0.11716286808321841,0.08819233108614792,0.0028593958460614495,-0.014270860829988513,0.0328454180653693,-0.5974114461691241
0.10855626398499889,-0.31424653140117603,-0.07019418665972564,0.11388012042683615,0.029041579755158056,0.0178941718536954,0.05909741626652885,-0.5716618667991898
0.09530853110202361,-0.33670719622399703,-0.08264125766007555,0.11373168374546674,0.02539298375134114,0.001117064764158107,0.04769939254964011,-0.5710601732430088
0.09564286219089367,-0.3535290247882728,-0.08603171628578998,0.10700837901292656,0.020044485141607386,-0.005939603659713513,0.039341281291117094,-0.5902944695618882
0.08479304666085488,-0.39971160232327013,-0.10768798847859969,0.09221364320093402,0.0033393515649456137,-0.010572673946131785,0.03543937223267438,-0.6228792040970756
0.07493758806133537,-0.44041232077245757,-0.12374750221810675,0.08700360707260031,0.0037202019383421134,-0.021672091284838206,0.03401298714000071,-0.6664554231529418
0.10598378237147411,-0.3895592355444858,-0.08895422955542362,0.11497010499822342,0.028834001813853736,-6.143393090897075E-4,0.05189588087067362,-0.620427505794575
0.10129414171780052,-0.3632786456047971,-0.07958019406796576,0.11302736831591974,0.031011012025872267,-0.0023949317669754223,0.05231313331261819,-0.6072980158749058
0.0976927401400286,-0.35919430978612005,-0.08797316837822829,0.10578670713311018,0.01753714450478164,-0.008251120435355818,0.06282229557171813,-0.6119780274969829
0.08547912860159844,-0.4025753018976993,-0.11101634682385642,0.09402709672572541,0.012088621434311369,-0.018093284107943006,0.03222472066662718,-0.6646761628686946
0.07402531107141269,-0.45673929341456615,-0.1347704019911145,0.07689788826747294,-0.006193619244086968,-0.025251078326264553,0.019662154196277787,-0.6878491384537556
0.08910335537105238,-0.4421136947956848,-0.11379263350482827,0.08682770265094739,0.003369674385511551,-0.023360634122363774,0.03765864393630952,-0.6913778059898146
0.09662245793138433,-0.37742535253743,-0.09104616873187839,0.10590591367350367,0.017605582720313064,-0.02366754413722734,0.048339110022870016,-0.6321456989867018
0.0947081173317654,-0.392620364223201,-0.09755308610927169,0.10122475166499557,0.007064089903152212,-0.023794403847388554,0.05042947031985006,-0.6403487849085112
0.08466145617662697,-0.42033467328780627,-0.11865608610565971,0.09197985679406194,0.001984266495324132,-0.027792133997019474,0.02865310290828998,-0.6717637556890357
0.07578070861763565,-0.47353551346276485,-0.14108222219161085,0.07203213134694206,0.0037087472567700086,-0.03066481204392734,0.015096549763429341,-0.721156393780051
0.08030192547764181,-0.4820229627001615,-0.14184537846208212,0.08166583287088693,-0.002197979095970551,-0.03827411734683755,0.016397452614193658,-0.7241127888534958
0.10049949100774049,-0.39524779112652275,-0.09942906387821217,0.09747651698691677,0.011677771752588521,-0.018489005034035774,0.04374212142256476,-0.6514912321078105
0.09384442621211919,-0.3995614444167879,-0.11215191801095896,0.08480750288934856,0.012553083806695838,-0.02657844489327951,0.030761594221432008,-0.6858389757358867
0.08216147422729606,-0.426531107547401,-0.12458703639330293,0.0769699651357163,1.7197272434811765E-4,-0.03406984011110172,0.01899985929672802,-0.7008474575777058
0.07363253628690494,-0.4839327597379587,-0.1563844262240747,0.060173009850917676,-0.009944898295026079,-0.04198179798229262,0.008761636625025333,-0.724459641165947
0.056904377485954984,-0.5299403122755764,-0.1741294545810406,0.044150455283768354,-0.02691538125346597,-0.06440801453535999,-0.006218956489651105,-0.755848279020549
0.04454549697108462,-0.5856230265204311,-0.20202789366042664,0.026372313899482358,-0.022898988768505865,-0.06789799815625226,-0.011241932251365574,-0.7863845640122986
0.08900842415040117,-0.47355917632146577,-0.1272686923830835,0.08628515526804693,0.012293142388844823,-0.04316304320778553,0.031244793630820278,-0.7169308064727907
0.08344842580922861,-0.4447756752026,-0.12624975320370777,0.07658662963704521,0.0021342805827518595,-0.04002009576083069,0.027415487130027755,-0.7078666319166224
0.079581779178541,-0.44344940095008334,-0.13420478126002758,0.07612052328488846,-0.009308928418438682,-0.03303561177462438,0.024666594823037544,-0.7067771495462138
0.06777852461770253,-0.49108661646610435,-0.15963745157157289,0.05557851736484471,-0.013163640627408062,-0.06143808537832617,0.008480035277743847,-0.7302165933692013
0.04746875881360026,-0.5390309414079293,-0.1861497744662808,0.03723944644791315,-0.029279542469384207,-0.06591398041100426,-0.01061564940447636,-0.7717659849429691
0.04371206180041855,-0.5880343420306872,-0.2034198261106229,0.027237406941888937,-0.040372507428273516,-0.0785533956830806,-0.01961668020830174,-0.8044940245788144
0.0828378527639759,-0.49273195687440263,-0.14238924766735056,0.06450582549791843,-0.019290600325387458,-0.03761092557564751,0.01694982709591197,-0.7413011217704464
0.06650611971912221,-0.4829310961098905,-0.15221577247256857,0.0648887785807408,-0.00881963022122433,-0.047423459567117,0.02285441076407352,-0.7269025355892443
0.07386836597104558,-0.49350043175961883,-0.1543386876350312,0.056849981909567276,-0.020733290900622994,-0.04881960010436821,0.011500811333397809,-0.7324315554367861
0.052689801389919695,-0.5544102528272178,-0.18767874011956065,0.037216377145565124,-0.02039195241418826,-0.055018625677481364,-0.004029356413769754,-0.7852272550346431
0.03756656217785249,-0.6094488161717898,-0.21318408797346375,0.013443039317696122,-0.033826315099509396,-0.06622072831611998,-0.006792861772187719,-0.8272588051713619
0.04329176021735237,-0.6222805327641039,-0.2051524388062528,0.028328992064837084,-0.03969270882750599,-0.06659702170937669,-0.005020146413911689,-0.8166213417004949
0.08797083566987673,-0.4773728515390001,-0.13894273648728747,0.06673852349848099,-0.019948760026926683,-0.040578912420065505,0.026006713124250323,-0.7177730860541311
0.07785586120707197,-0.48918134480657716,-0.1505655781940254,0.056106182426348156,-0.018661444972481164,-0.045468943386023426,0.011123933287968681,-0.7277358015823397
0.0721120103413701,-0.49718660975888057,-0.161644905602434,0.048192262527186974,-0.02894258117900148,-0.062426547337340335,0.013962584870002856,-0.7369326460226264
0.04872726656829076,-0.5621899886111082,-0.19215024035908135,0.035077621141535946,-0.0361392712632659,-0.07460565329883503,-0.013095817237176484,-0.7762999312061197
0.0407202868884631,-0.6078439575627418,-0.2131550399912152,0.013089714305523007,-0.034745452587792866,-0.06947230164317765,-0.017811020011293702,-0.8316533430301225
0.05199073467783719,-0.6181051569432093,-0.20035289354055139,0.029663364755936436,-0.039026181719984065,-0.06460598942105192,3.022340903270222E-4,-0.8241991282676872
0.07989838823940122,-0.4793691062544963,-0.13716034867891222,0.06584391608530298,-0.007653909266969424,-0.03940256464209493,0.025168125165101817,-0.7191634469885252
0.07194059994395312,-0.4887480767469804,-0.14713374613975497,0.056984885006766774,-0.017707383132837026,-0.04959569975395025,0.012220142936667214,-0.7331568772075417
0.0671905531657696,-0.5112844736967785,-0.16067702091366606,0.05293650482225307,-0.02486422278796928,-0.04281740378086661,0.006336684640832269,-0.7423911420671369
0.04912681402570701,-0.5770234711690364,-0.1908755702930192,0.030357347599637093,-0.03862279151821521,-0.05731157932016989,-0.003308660753927438,-0.7991288960495847
0.03731463838548004,-0.635205556565347,-0.2180315219410876,0.01386683334939949,-0.032512445266070486,-0.06656264354479946,-0.008849926813727356,-0.8288136574699508
0.04087805206763102,-0.6556373490301628,-0.21656222355887242,0.016002099749213704,-0.044195851688810156,-0.06750888116933192,-0.021034780716117907,-0.863709443755144
0.0868457515144522,-0.5019842450097018,-0.14555415804347646,0.07870623249419956,-0.01779345516824404,-0.04488555284906622,0.0415627720557971,-0.7594648859636933
0.0676757384290015,-0.5188736433087527,-0.16329617666910456,0.06060845818329366,-0.024860745408668325,-0.048609216983959806,0.015348681078262923,-0.762107851534215
0.07076508609643457,-0.5233667797650688,-0.1665205332147964,0.05218839399355906,-0.01990638793080712,-0.050769063855753284,0.023765997167682826,-0.7527413944048768
0.05124463624745387,-0.589310476379348,-0.1987546854516591,0.035717433578107714,-0.035756591401940735,-0.05315237070600314,0.0028438642193306953,-0.8089249481931718
0.03984338384461102,-0.6384412686984653,-0.21665182256909657,0.01829168093050884,-0.04381810106026974,-0.06374286582785693,-5.777114850967764E-4,-0.8448519346482679
0.05445124363798111,-0.6323893060324193,-0.2014716735722703,0.040347531896165335,-0.028502830150178744,-0.06944690779646398,-0.012030646492750947,-0.8429398925574793
0.07947356014077149,-0.5202493449574954,-0.15607259272048624,0.07173686888196938,-0.02408382232124277,-0.04591542019306739,0.019651781749486622,-0.7579835865965017
0.07476578426978255,-0.5428472456099841,-0.1664718142880249,0.05615277373559241,-0.024332240466878905,-0.05099830290769567,0.010080108246435328,-0.7664648907785631
0.0670995499598384,-0.5608894355495541,-0.18012761748090844,0.05540292759174591,-0.028546862338464284,-0.05977779990298659,0.011544831364813586,-0.7821986882534883
0.050359243967570445,-0.6266974357638184,-0.21218433765326572,0.023486885958088916,-0.03379937866963921,-0.05614492665257639,-0.014722365141381507,-0.8307844064340535
0.06488066488727351,-0.5937866651667756,-0.17581033663401344,0.05461509656194883,-0.030182132309844546,-0.056090332491984696,0.01198687833693451,-0.8187307434799839
0.08488884315003146,-0.49920631709252317,-0.1443102978829531,0.07086341949358925,-0.009767629898815812,-0.04608197857709719,0.01629587124196334,-0.7419307313377755
0.07692553833982843,-0.5274983432902314,-0.15446604983965626,0.06978176266022179,-0.027129390531975068,-0.03913813111051329,0.02352949787814725,-0.7773035343406618
0.06650362058394567,-0.5534890484430753,-0.1682542615079445,0.06009338781646421,-0.02972975637936709,-0.048659167700675,0.01113252903592593,-0.7700429236817878
0.055608313691085,-0.6128476962271528,-0.20330080417199645,0.031946292787513965,-0.03970585533058496,-0.061370135629318374,0.0031124215804396406,-0.8207287537015702
0.07943118555965434,-0.5505606034464358,-0.15903576042336107,0.07154283603403983,-0.019027955576776123,-0.04045634446620813,0.020392864194741577,-0.7711837507278391
0.09446137777096382,-0.46189418430917695,-0.12786284945498,0.08928453228446942,-0.009281717428416655,-0.03433116925480755,0.028349359041144273,-0.7266117726288069
0.09162763729446496,-0.47457328599737686,-0.13399294656017824,0.09571182685301796,-0.004563551678070528,-0.03143725553190258,0.03417436773604625,-0.7218380180002659
0.07896250699497431,-0.5019079782782236,-0.1449673489240548,0.07128462172813085,-0.007281536273939461,-0.040472311874022816,0.01372368475187046,-0.753303223266355
0.06534931403725285,-0.548835098013603,-0.16971516101354378,0.06081640536397181,-0.018109200091488982,-0.0624451904827452,0.005809429978676824,-0.7820611610645385
0.07591948859747055,-0.5378483566726714,-0.15071644132820913,0.07504425327078029,-0.024076410600831908,-0.043218006256955044,0.018838010987146242,-0.771972432411008
0.10806623768929159,-0.4249967938598188,-0.09462347242248832,0.11211756226939072,-0.003309168622863029,-0.01856040079523126,0.044892401882661054,-0.6743792293576965
0.10144842176836409,-0.42996485769668114,-0.10186465902739683,0.10580056015042943,-0.005528927857720521,-0.032278957353774874,0.03045864433148495,-0.70359827699078
0.08770791449415415,-0.4401304151282782,-0.10961538782006183,0.09693350214984855,-0.009396935981221268,-0.03048874263654149,0.0249755596594486,-0.7097086102696621
0.07871879169343038,-0.48626166568362017,-0.13946151659472555,0.08735442042571677,-0.008734808563007308,-0.05273204771671379,0.011419538702811092,-0.73313475923631
0.07692533716592939,-0.5136616576710158,-0.15218955867819312,0.07210874420415776,-0.014427034367869384,-0.0423640010280624,0.015556502273385618,-0.7791778945760516
0.11234712983574854,-0.42750214283972743,-0.08941446704770566,0.12021447822935073,0.004164848824075183,-0.02419277783338383,0.03940242607681404,-0.6774860205707349
0.10755949891820595,-0.41021246593394806,-0.09130432589513844,0.1157202565631158,0.006723893010470628,-0.02259576485753739,0.02217931698249031,-0.7046995500837031
0.10748099341057674,-0.40522114274365373,-0.08850718276287532,0.12267283491706407,-0.003297005186028969,-0.019093807866817754,0.03234427266353533,-0.6668335128336428
0.09258728427530852,-0.443594969456879,-0.11633749586331309,0.10998782493791157,-8.378896663011973E-4,-0.03296255368157056,0.01226801788002134,-0.7105327877123064
0.07416460354385591,-0.4847543700892049,-0.1302862039993635,0.08581890147233352,-3.3413069914544323E-4,-0.036646120239655224,0.009022200186535252,-0.7314524075119825
0.10659257675863701,-0.42938945281414787,-0.088496147099979,0.11914879145092906,0.014579300899056912,-0.013042176621487525,0.02932806769418049,-0.6890616877981002
0.10910033634523192,-0.39706940283796893,-0.09090631445274311,0.11812930174271219,0.018410689550889682,-0.01004891462383834,0.029944320515733352,-0.6613812061356984
0.1040464672568824,-0.40722672100821644,-0.08839932540420035,0.12231465408541471,0.006374739759569863,-0.020854728710620093,0.0376782989905972,-0.6756808789481316
0.09689699502651314,-0.44816949533327777,-0.11242666340272003,0.10329337150810985,0.004690452156726982,-0.03577194602174387,0.01481213876689262,-0.6904914096046537
0.08070427627515925,-0.4926029167971703,-0.13162210885217648,0.07559800401856885,0.004226853217637167,-0.047432124704800675,0.010044539881973695,-0.7344269311770772
0.11249254461623542,-0.4429555259910062,-0.0945275677314408,0.12522297776179994,0.010265272379644492,-0.02348943008813468,0.026447024392947483,-0.6880329421478818
0.11232700777268816,-0.38477583508435714,-0.0748472570431112,0.12670459355286257,0.025337084618994664,-0.014106893919964282,0.028689198702481874,-0.6467178685399817
0.11544878621866875,-0.37830719889468145,-0.07861675771601527,0.12618630879983084,0.012957822524110851,-0.025281287601200242,0.03141326783749508,-0.6636326532019071
0.10279116293541034,-0.40406509885759606,-0.09663635423653123,0.11292012775758747,0.009428082333752733,-0.033921109685154,0.006842536308856327,-0.6850769373283991
0.09433403660219931,-0.4479479980912387,-0.11737526911253815,0.09503601277577453,-0.0022005969881270272,-0.03547966552170201,0.00983120734617061,-0.70519720401581
0.08880381719896244,-0.4825537750318568,-0.12184806907778069,0.09227504637084437,0.009887211655396327,-0.04275689246590573,0.013416862456642108,-0.7319178836286367
0.11445639756935007,-0.37036708963179654,-0.0688081895120551,0.1321589512892982,0.023294650728750005,-0.00840697909071786,0.03165832562908494,-0.6431801955909218
0.10906287099735736,-0.3702958143820792,-0.0759049297558685,0.1205070239217183,0.02206689659726396,-0.024155049961499656,0.01445234503314425,-0.629097040745679
0.10744796850143638,-0.3793662822805623,-0.08529523864307138,0.11590149081668472,0.015781307012008913,-0.03517872845012727,-2.304728844127105E-4,-0.6525560724947388
0.09088587635964673,-0.428285338255451,-0.10882834517111079,0.0943543186950625,0.016229114695621175,-0.03411821113914616,0.009668519837786048,-0.7017878173859877
0.08146898587673058,-0.477706146505799,-0.1312187203696959,0.08523103580318926,0.007238001985886722,-0.04222259781262572,-0.017307424377798034,-0.7212616088125824
0.06490886210322026,-0.5156007923510777,-0.1520731254893212,0.06958543333753858,-0.0081207712275264,-0.0543106343394186,0.002166256113713506,-0.750786678262909
0.11052780997012104,-0.39847540616285176,-0.08291283134317837,0.12175764143725434,0.015617618422694384,-0.027422338726754685,0.031070880781895703,-0.6596215943468761
0.0978157642849657,-0.38860137656827176,-0.08967131693811749,0.11589690470831698,0.011402290072690145,-0.03216844468078111,0.004723073403743743,-0.6536636354598223
0.09778875045372316,-0.38854706907551473,-0.09500712497319148,0.10374810476904293,0.009593653704204052,-0.03656487003352176,0.0023565586365379694,-0.6550977583172528
0.08420281505558305,-0.438032439846235,-0.12001358747419898,0.09031178663429623,-5.938762071725194E-4,-0.03818788426607344,0.0019394212169867398,-0.6775028154404551
0.07565377819206905,-0.4742805132482663,-0.13966856371539063,0.06986927615079719,-0.0014524051376732148,-0.046831412506338835,-0.0132693233221865,-0.7112943713932841
0.07525471282717984,-0.49119255284522434,-0.14022124359116891,0.07694888092010663,-0.01040860877775007,-0.05794490321803182,-0.02583938061308364,-0.7326057972773601
0.10451630850287136,-0.3982476684009741,-0.09592936777884688,0.10459975745596402,0.012531678976386487,-0.03810934574407916,0.0047510103509448105,-0.6582278966461595
0.09629885443154067,-0.41275074848030474,-0.10778754706912087,0.09420753810624358,-0.0021850777408717642,-0.031726810276483185,0.0010311629927756963,-0.6666364326848218
0.08427751172648738,-0.4370465225645105,-0.12198680482497108,0.08278820656144037,-0.0011110844108108819,-0.05731578145515109,-0.011562058859619997,-0.693598652614956
0.06849411549980404,-0.49025167534874087,-0.14894623080930164,0.0586842761058266,-0.011621028260248245,-0.058987498349601555,-0.022375662727513738,-0.7305200312482782
0.06407932806048343,-0.5314101731963787,-0.17033414263302182,0.05253090835679764,-0.028123713161357387,-0.05823956679475476,-0.028720502689770548,-0.773420179527886
0.08650170136877865,-0.4727887688467864,-0.12489465694031059,0.08237760095429418,-0.0032264703165446724,-0.04365620842363056,-0.0046834990232950645,-0.7137743290704195
0.09890285348906591,-0.4054217476284026,-0.10061080200568794,0.08770906303456283,0.0016763591963168557,-0.0401222099925064,-0.009339123634331406,-0.645348826598742
0.09848399290700204,-0.4006608938832661,-0.10640999447786037,0.08695417968181038,-0.00878521664649758,-0.04017164592304528,-0.015180290694835973,-0.6597956846266122
0.0795106276980749,-0.42928049298889065,-0.12591696584316564,0.07729430081974002,-0.005531127148749938,-0.04949549410947792,-0.024815676866524108,-0.6898678675612046
0.06953616468737434,-0.4878630889386961,-0.15084805518481778,0.0630534690071672,-0.013263585980128376,-0.06725476946572016,-0.026996688953803263,-0.7231021524451751
0.05835929820822292,-0.5311429874103424,-0.16964071680386403,0.05191714477812395,-0.026926829033022962,-0.0747499030175639,-0.03879801424404223,-0.7770585772007166
0.08435220500739946,-0.49136243385191813,-0.13510086190796491,0.08179171087406459,-0.011870963789176766,-0.05671100395711112,-0.018334095094480717,-0.7309317857398301
0.09969175218562311,-0.3963045151553372,-0.10838623445929695,0.09405393742994864,0.002521989990744761,-0.0539950653333387,-0.007237783331990923,-0.659397498876731
0.09145154923466689,-0.4092465177775194,-0.10950913657870323,0.0934294825718444,-0.0011671711465514952,-0.04879450690037836,-0.003123718684559839,-0.6633407577491298
0.08486407464267666,-0.44109034061844593,-0.13062949610326305,0.08000407117456297,-0.008788995688340125,-0.06249771929840372,-0.011012585676354431,-0.7008935357146344
0.06923945957006912,-0.4943595974309451,-0.14912493985554212,0.06734216798973962,-0.02262136883308926,-0.06730026426925605,-0.018855788579566206,-0.7291788677065688
0.06272849799781663,-0.5361807360573498,-0.1716314162530512,0.05236693928334232,-0.03250750221001996,-0.07403997890890203,-0.013818199950220851,-0.7835478461038515
0.07895181741456618,-0.5041363934654413,-0.14302119087673948,0.07491305000361174,-0.015499777997661729,-0.06180038158914125,-0.005905313814989072,-0.7341466741297672
0.09172334515457464,-0.41550236592580553,-0.11631372776572828,0.09503236068403191,-0.009899941507246452,-0.03141339981992533,0.005711738543980132,-0.6855227197441871
0.09172439229134008,-0.42402458001754884,-0.11709110478139816,0.0954090546211136,-0.010525564829935486,-0.035157049779910084,-3.8557449520745807E-4,-0.6654804062083906
0.07570872225357951,-0.46614667915559777,-0.13572533595006642,0.07992189129262195,-0.016743278459706096,-0.06333077340196801,-0.014388111974601943,-0.7082599853956453
0.06578565260496748,-0.511593023145322,-0.16128232897924466,0.06102579966250629,-0.030054706140111746,-0.0546390250762537,-0.027720738868558047,-0.747694270450157
0.07741426414104521,-0.49725240307314306,-0.14444837727857263,0.08092535432534842,-0.016017291813871525,-0.04674861505282073,-0.0017775884682020866,-0.7295685846554407
0.09474982461597185,-0.3979068112228639,-0.10126344938249178,0.10711773565556437,-0.004419267298646396,-0.039262731278380425,0.022579732131520012,-0.6601810887374988
0.0887467410038057,-0.4210765615327665,-0.11067109533759688,0.10352447260910154,-0.014225600704723907,-0.04006350382989454,3.692321904569689E-4,-0.6716252390810519
0.08509802378356096,-0.4327582489718755,-0.11929423714168867,0.0847668866283321,-0.015408722695837644,-0.03886334460417279,0.009981581354982052,-0.6802765504996392
0.07315081185936048,-0.47824397287022075,-0.1491224678474628,0.06269807954204797,-0.02971287684325282,-0.05658525210064262,-0.011180639301786083,-0.7142405276184904
0.06413025465502822,-0.5216090421489393,-0.16681185701585696,0.050145260882573026,-0.022208497775136157,-0.06194954014676883,-0.020794911353624518,-0.7666807364604323
0.1014769465705111,-0.40355615970933134,-0.09783429116940934,0.11250489374434183,0.001498266307820273,-0.028667888645624397,0.013317245604833917,-0.6492955880586612
0.08869076704284859,-0.3828409404237885,-0.1036285232118524,0.10323872566372524,0.0033043624007746833,-0.029060508853825544,0.01958340090133018,-0.6317230876252179
0.09091401456813498,-0.385568922815137,-0.10500161928789668,0.09582324852031668,-0.009610383785923372,-0.03706540107855492,0.009167381274922682,-0.6191541494257685
0.07924847343550534,-0.4204942782861573,-0.13008291734730393,0.07047775018608944,-3.333218059094717E-4,-0.03879423313098487,0.0022962191835071643,-0.6410251255299871
0.06680393935393902,-0.4570649112043632,-0.1463379503339586,0.05280280377958288,-0.014787335152780233,-0.057670126123259384,-0.0037690487481799916,-0.6821482770749256
0.074646834168866,-0.4539462954758895,-0.13490699878140253,0.06544984765778258,-0.013103610395232553,-0.04838271820263549,0.003982133881521431,-0.6641716451441497
0.0930970055770113,-0.33787380063030137,-0.08589970051317324,0.09518360741207776,0.001074706653163468,-0.02651098068833563,0.012845867283392917,-0.5869649062121072
0.08864395557947712,-0.3309824142646403,-0.09658488910291561,0.09478535170232807,-0.0028160496590611756,-0.03490692368390626,0.012921397189936453,-0.5637237388752843
0.07605984773994974,-0.3464002622993227,-0.10733344720586906,0.08109458974242902,-0.0047515192405475325,-0.039558765845293574,0.013893851428156932,-0.5574169637997506
0.06656512549188766,-0.38052377465763504,-0.12297635477068268,0.05626329558155296,-0.021512090930493655,-0.04703030852468047,-0.007925884575303088,-0.5816445215456815
0.05138595449627008,-0.40732236496969393,-0.13595366990552946,0.04949447018662797,-0.02803230554606804,-0.05742962413318076,-0.02106954865658386,-0.5907407626368268
0.07966463274859988,-0.3155721088388015,-0.08919488776606647,0.09072488142823311,6.882030996950621E-4,-0.03602733230579158,0.015421876791291393,-0.5164812355909557
0.07109314989264504,-0.2963764674421022,-0.09173049634181606,0.08007166356344803,-5.855133568510731E-4,-0.04279124498799175,0.010683206965433597,-0.4854219379061006
0.07281310306644233,-0.28636087660431453,-0.09419317994023656,0.07468829063590579,-0.009407910480482118,-0.03933945858084251,-0.014636313839670788,-0.4733349587593244
0.05080867495762752,-0.317633738219898,-0.11227690687005827,0.05004600467263611,-0.012884534252828359,-0.06342489221322332,-0.02015003860226789,-0.4984078211359422
0.039627973574301985,-0.35414409379284184,-0.13668068105478307,0.03681274683156645,-0.03700696318968768,-0.06902201879896822,-0.03136741437710096,-0.5174842518425647
0.06565961112134155,-0.28865753158834406,-0.09293516691440883,0.06785169416787651,-0.0098456933464904,-0.05393119910323542,-0.0050615728662283775,-0.4535740232854309
0.06960796325986175,-0.21396178033499816,-0.06739142820861795,0.07869609451574801,-0.005996139897777706,-0.03818949819070831,-0.007313490970101787,-0.38434574908275965
0.0671543007532582,-0.20233569232239618,-0.0676206543429808,0.07373725739316553,-0.01154000269705906,-0.04575150876001034,-0.016121013081999785,-0.37927120876761994
0.059115142406086695,-0.22118580291830792,-0.08264797646642483,0.052042690692861625,-0.02042247415986699,-0.04502150720051297,-0.015387619220936824,-0.3910940723850256
0.04228422025066207,-0.2604311515913896,-0.11046432604220165,0.0348231765147523,-0.04199645055793947,-0.061977746266415466,-0.04321524690452645,-0.42881027206890865
0.03208543192785943,-0.28815368843446404,-0.12277944885649567,0.010814088620666323,-0.021781251813973217,-0.07599089468283411,-0.040749242413452874,-0.43654230294922064
0.06937636272234486,-0.18791155130722692,-0.06589209297458781,0.06082470560534605,-0.016040723223833764,-0.048041429598082386,-0.008089940590864073,-0.35890472421716363
0.05826333427935182,-0.1588808617697548,-0.056928862327147105,0.053304483207177164,-0.011901359525375908,-0.05383759050560684,-0.013683358828840466,-0.3202313579654385
0.05838422684561969,-0.1633993271433412,-0.06000630689408563,0.05458339933190152,-0.014472207125159883,-0.05295939891400276,-0.03593285795925058,-0.3147013276502107
0.045976584254027744,-0.1944337953817933,-0.0849001918060734,0.03916942747762466,-0.027592380390632148,-0.05313208038899691,-0.03931158753547319,-0.3423350227883982
0.03303194436832988,-0.240550728407549,-0.10653507556191846,0.021408647405108512,-0.03720707215648822,-0.0688153546408702,-0.04899467318170784,-0.3680451190013756
0.01654334887652563,-0.2817867593140615,-0.1304511216325055,0.008826212788394005,-0.046227395617730024,-0.07737964202535963,-0.04893838168656463,-0.3999417027866096
0.045040709640632406,-0.2335538330763857,-0.08564486036069162,0.04283821560859921,-0.027816747981509612,-0.0681907035061877,-0.02985104392241832,-0.36651357784968586
0.0498579592607754,-0.16733693144699935,-0.06361815655396763,0.04718248961243706,-0.015027559034252581,-0.056998644308774056,-0.03127510401087902,-0.3106661023450256
0.04848293692976806,-0.17659668320510474,-0.07179206550149368,0.04070970772849975,-0.02356147116878465,-0.05942652952598728,-0.025307509358978915,-0.3325268929253923
0.0411632775882773,-0.2165462203937788,-0.09609939750038804,0.03430102460359262,-0.03325587351186447,-0.06579051072954226,-0.04397081946077015,-0.3431250646474763
0.026185651210714596,-0.27508333436759524,-0.1281443824445595,0.010058562092074905,-0.04828755184344615,-0.07969229157195322,-0.05274319453408931,-0.40147628520316897
0.031934090077811866,-0.2943194317520399,-0.12421962571308406,0.006522676914671244,-0.04029924722163443,-0.08102112425170577,-0.042687745944476885,-0.41338458077810103
0.0638105692317781,-0.19389537555133898,-0.06819558419815323,0.05805244977186445,-0.017534115840912082,-0.04905082388429344,-0.028498975214325522,-0.3123566820296724
0.04904549261249109,-0.2017064689886513,-0.07915799324341136,0.0486107538445544,-0.02445345493775217,-0.056680552654263895,-0.037591979628987776,-0.34882524134585113
0.049077834459858076,-0.226538515859743,-0.09624580743642212,0.03655220851849352,-0.02144603252261796,-0.05242369247618313,-0.04367018961288787,-0.3651941493053475
0.03381502813322441,-0.2811886925782997,-0.12780976188608786,0.017507195317734005,-0.030882579828742898,-0.0806164840800259,-0.04804107815209722,-0.41618974630160877
0.01785688310627265,-0.34261535016432976,-0.15389038926621876,0.007692578420734596,-0.04769023571769549,-0.08804463288379193,-0.06314366148934994,-0.490398221854473
0.03205716810953748,-0.35181813750782326,-0.1379786511630692,0.017135560349177396,-0.0379863449161801,-0.07504853718921532,-0.05251838224944301,-0.4835003754138117
0.06792132820616092,-0.24659157663034276,-0.08450939269460755,0.05716281698842816,-0.021697929110664423,-0.06265404390716182,-0.012452659948985097,-0.3948666931632509
0.06565049921783568,-0.2643876941593205,-0.09900424251950897,0.050614088400992574,-0.01947194979311446,-0.05876550094689145,-0.032680419381673396,-0.4159943516896419
0.04990699764229352,-0.2844648603011732,-0.11295603976644149,0.04279624654829071,-0.030474387859492875,-0.059908145213281735,-0.037283741242684736,-0.45277074884345475
0.034370084884563556,-0.36581379321023794,-0.14263972752702303,0.0194332307916946,-0.041434587469121216,-0.07949571226818881,-0.050657604097643,-0.5013283334560023
0.02090952354303024,-0.42023913451960854,-0.17432893760912502,0.004429760516774386,-0.05003054488269899,-0.09789392312417983,-0.06159310413893411,-0.5536113243245495
0.02497921627679568,-0.45339795573557234,-0.184319285317523,4.5218320706800656E-4,-0.05825452172171246,-0.09855014007173375,-0.062184217818857614,-0.5827009649809461
0.06599910009230961,-0.3191227238918269,-0.10120834077249165,0.05718271763084303,-0.023230477367813106,-0.0653642872671484,-0.017439033733908645,-0.45804777433174715
0.05574034670978715,-0.31804017584824795,-0.11735866360424112,0.03884844769600697,-0.03705391295053768,-0.06310902497170782,-0.029088458022598566,-0.463144832908691
0.05143775049836515,-0.32719948415803846,-0.12069250248427427,0.03489058875598639,-0.03284815572620441,-0.0718767085810352,-0.03333679179583114,-0.4910680245650217
0.033026212135822665,-0.38610541824381694,-0.15597466066453658,0.011858711835415788,-0.05178751650754702,-0.08661761882577719,-0.05374280435019901,-0.5310814848495702
0.01884059342434813,-0.43135860676398097,-0.18079424783033135,-0.006597718877145308,-0.05845741585257413,-0.08972988288880296,-0.050107066482223496,-0.5469142873974506
0.040594880122936355,-0.38171053793271914,-0.14072410765506035,0.027249629962134193,-0.047012581768667044,-0.07020130581674758,-0.04540827325570885,-0.5114456761902643
0.052792222498443196,-0.2933624268230985,-0.11742853536814003,0.03476785691322279,-0.030978876987479545,-0.069712577810162,-0.02780758435659369,-0.4312069676686281
0.04445802172357587,-0.3024161995016302,-0.1152554896284971,0.027902510724984526,-0.034289728198991946,-0.07570147438726181,-0.03994476663603135,-0.44811322730046643
0.03165363979178475,-0.32699357947324864,-0.13658327877716725,0.01759918931037623,-0.04707181047534674,-0.07580205690595378,-0.044024344493542415,-0.44592313492554064
0.017620422853255647,-0.3827196860651564,-0.16487328946620614,-0.018921577671335392,-0.06048166307370504,-0.09594954920183062,-0.061144051907154606,-0.4766528908149368
0.018047673112664045,-0.37991380864477386,-0.15758787855069398,-0.011520860249991905,-0.062207099594308125,-0.09006698155068177,-0.06696779464669178,-0.48055702933790867
0.058289458986046025,-0.2267957867268258,-0.08363256647345335,0.04454721943707344,-0.0303078684511581,-0.06380613086378294,-0.03285551767326444,-0.33754923870134607
0.04248290390884608,-0.2225374590274012,-0.09563576075072842,0.030293095002760655,-0.03476782706014239,-0.07198807909810054,-0.03319359884195872,-0.32904554559775445
0.03787611928984758,-0.2149692455397409,-0.09896252275552246,0.019178746388071845,-0.036636833182183214,-0.06875085184143424,-0.05147723141790045,-0.32702306584723695
0.019289591982480824,-0.2471987784163579,-0.12528823127604075,-0.0030679410528898984,-0.050603335693321885,-0.09461598235781592,-0.07675407593588283,-0.3481077100789475
0.0029840690774891802,-0.27937040062884566,-0.1467947131688394,-0.027588292550541463,-0.05686243370205553,-0.08379958795394071,-0.06683779214932307,-0.374690437881801
0.04053300822390124,-0.17127912575529353,-0.07283404147175195,0.031243486315980517,-0.030757597451804643,-0.06796526970097545,-0.03486702965878516,-0.2728508556780386
0.038126604820877555,-0.11719450301854258,-0.05921817516768919,0.016602816077167636,-0.03698332642675,-0.07165015212495261,-0.03749592455183306,-0.23611526558760848
0.0382046721548723,-0.11609022011706024,-0.059425136833484535,0.01764666751444212,-0.03279364073855011,-0.06625602835620244,-0.05281367081326013,-0.22393556040337692
0.017194726986305944,-0.14723693058179826,-0.08065344743243427,-0.004948940983988141,-0.0418680087857116,-0.07555060785893863,-0.06706382612723516,-0.24350351819307856
0.0025616748978394884,-0.1836733090073182,-0.10680111766353445,-0.025263414828894586,-0.062469023334257315,-0.08771519422148574,-0.06456229624641649,-0.2666771618498998
0.016491663409308407,-0.16288881544367415,-0.09458888077775385,-0.01398286080411376,-0.06010459736722029,-0.09357119653525715,-0.06651002096021039,-0.23990988788870163
0.03555834704601915,-0.06484934081845539,-0.03561968916477037,0.011937170717826283,-0.03037972122221429,-0.06242650857326596,-0.05229591316786864,-0.14309499226387862
0.024220819022638077,-0.07485444964745971,-0.04629586729339564,0.013733900782210358,-0.04360457386582236,-0.0684366851835717,-0.052066666354758005,-0.15066467431122937
0.01842171445319846,-0.07839867501672412,-0.060310395104473086,3.004715639974815E-4,-0.04031102492813223,-0.07447609350637609,-0.0639827286038262,-0.15567636967569182
0.004259405144924894,-0.13588616852122617,-0.09034018343415934,-0.020199693639001155,-0.062312588161384894,-0.08646650858255407,-0.07144911959265983,-0.20650132842965413
-0.00506826534753488,-0.16115909686444202,-0.10384888698768152,-0.030738193204510107,-0.05535866523028029,-0.09471307970862451,-0.08813230662011735,-0.232410465660022
0.042198724128019366,-0.04291243336025353,-0.02212405406046206,0.026408023809826466,-0.023106824837815072,-0.05980149030648727,-0.04292612734202481,-0.12549895649738893
0.039811621657164266,-0.03192970012474617,-0.025401407894828636,0.02308873535133172,-0.03142218222073175,-0.05926321153537553,-0.048431172127178304,-0.11148672579012388
0.04122000159905419,-0.034587998969089824,-0.03121069574053801,0.025352805587521253,-0.03050159394756942,-0.06488215634048392,-0.057284650234032064,-0.13136233666165895
0.018603734090124,-0.08280684024884956,-0.05955120684617363,0.004025808623549172,-0.046577637350625194,-0.07710759961216526,-0.06386630350004636,-0.1620829963980728
0.008480152570728216,-0.13205395161886965,-0.08611389025263809,-0.015790794509750548,-0.05683165312936952,-0.091732093886682,-0.06309063783686578,-0.20174215423308867
0.028314183051531286,-0.10225461724661454,-0.053646910297746306,0.023138939554827518,-0.038792567720378666,-0.07556806475750698,-0.05989642789722562,-0.17464706254582998
0.046712736993895575,-0.02919909737579572,-0.017043630237041592,0.046914471373259756,-0.01869211783159283,-0.0543940584498789,-0.04211135692844593,-0.11715094634370556
0.042073856442178446,-0.039646961117031344,-0.02172543438032035,0.035916712342706776,-0.027738948136960446,-0.05666923641636429,-0.045657300595595335,-0.13224440080813277
0.038226915796559346,-0.07140606134848997,-0.0397276709453759,0.03186429698233037,-0.04089995264577133,-0.07076185712526371,-0.0577607574472042,-0.15069926761418628
0.018906688662073765,-0.13124628369698121,-0.07361391934803775,0.008362284939835143,-0.04131484281758864,-0.09165547712918594,-0.07059050686027606,-0.19938532497726916
0.008492301974587228,-0.17529785061614359,-0.09348926019252882,0.0035532594163296513,-0.06389033391270986,-0.10199540324884743,-0.08085344669883589,-0.2509823905242374
0.05320901629246359,-0.059480516767460405,-0.01900881402598895,0.047572293925600355,-0.029253558459926523,-0.0612470463865811,-0.04390436198998103,-0.14318950152187532
0.04081446207534242,-0.07013656459150817,-0.03120172765834486,0.04093750273100343,-0.028807046292548752,-0.06694067048617407,-0.057679716262650414,-0.15482840894193595
0.03468031535360101,-0.07989568224527564,-0.04331654675544102,0.04131473735996407,-0.03537165556040738,-0.07379398118034379,-0.05680848368799742,-0.1752213186109841
0.020920114044193413,-0.1341278067163243,-0.07296174254703461,0.0210903638457248,-0.04105100247280141,-0.08170264691527174,-0.059171570440001174,-0.22556967123047242
0.019462763869592663,-0.1640301396312746,-0.0854389987485083,0.0220442570436887,-0.052451037653421455,-0.08383041403950398,-0.07959662717608394,-0.2620870771273045
0.054246127394967314,-0.07354615286733751,-0.03159114239489573,0.05837553010320402,-0.023615660389471868,-0.05933404090471967,-0.04609761943767531,-0.18361846996054793
0.04229477618473678,-0.10404727493355498,-0.045635341947656005,0.04206263799898333,-0.028800719811696136,-0.08266351089371976,-0.06395145271182093,-0.21706320420942257
0.03968750970922078,-0.11913887361989559,-0.05330539356145793,0.03465574957713874,-0.046706185200330534,-0.07212878196150133,-0.05874755475781134,-0.22238318995633116
0.02329094344884556,-0.17494065920087787,-0.08281184643358062,0.016473453526714338,-0.05337923767434036,-0.09547296881059335,-0.06978073048832512,-0.25933655499274466
0.04915928024535942,-0.13129962003282725,-0.04606217978546337,0.052230724433824614,-0.029051006734719106,-0.06696481751981251,-0.04863634963274211,-0.22004544359972633
0.050536986056791494,-0.12412937696004266,-0.0430998916514502,0.05117595967391661,-0.029310061504296214,-0.0657891187623776,-0.0557583828112055,-0.2193288126350772
0.049763078351214,-0.12792789190668533,-0.05244895433748209,0.04976122095925014,-0.047758586056350326,-0.07623813874528394,-0.06162620433539195,-0.23789662435081452
0.03195828185499688,-0.18121564732717954,-0.08684356451885676,0.032324862292502136,-0.05329137549200982,-0.09248029726711895,-0.07350337748137414,-0.2834087748944281
0.03871781554550184,-0.18699155526969286,-0.0693201208224914,0.04917476812010838,-0.034935888135906513,-0.07011886755456337,-0.06809049250373865,-0.28925176470147057
0.0659564677131337,-0.09077498385930614,-0.024398509178244036,0.07211194485546249,-0.01091248638720182,-0.056636897488307414,-0.03464115852325232,-0.21143048388218327
0.0644095845591934,-0.11459835628817522,-0.03814323667309411,0.06599497958983047,-0.025518090690516377,-0.07406615951551197,-0.045873645464394215,-0.22573919209511062
0.048439430517327214,-0.1397046905976205,-0.05424324602771348,0.049942004320897314,-0.03906779456318182,-0.08003543846787221,-0.04818954806861779,-0.2567982740755785
0.04403140866517508,-0.18287164572459713,-0.08044553170846762,0.02998889346812422,-0.03902247715057932,-0.07742807018403851,-0.06189442073118603,-0.26786301375049226
0.07414719040453072,-0.07055036441049976,-0.01347931574329048,0.07705763108577889,-0.021606106894095558,-0.0504455135725308,-0.019711843134671732,-0.19947618307921605
0.059390442906650076,-0.07789823529836185,-0.02747486427098551,0.0736101099860981,-0.022872830054152877,-0.06310352470281107,-0.049292206583201416,-0.19228502535423164
0.059001799723094994,-0.09432225861405663,-0.03523767902385324,0.05472582665260875,-0.013890681126153229,-0.06197156039859859,-0.045166445007359994,-0.2144793045692107
0.0403015379713954,-0.14546487649800807,-0.06489468495256834,0.027657151202270108,-0.03531445080400937,-0.07865962722109222,-0.06234697697476125,-0.25483613120122317
0.0592942703567499,-0.09110049769524371,-0.03138679767596825,0.0581453093108572,-0.012410202654821028,-0.0627365293790012,-0.039540515339679956,-0.20210434974899744
0.06570325246518784,-0.04020434575520197,-0.00965210011997183,0.07325871998560632,-0.010698737934598183,-0.049515533162524855,-0.03050970115047326,-0.15195056668821313
0.0665637583570997,-0.040937218697028245,-0.015471005938378028,0.06080014178700041,-0.026882690240442594,-0.0489774539064181,-0.0294641971635493,-0.15293347070019653
0.04501226847790291,-0.07975999372381483,-0.04143123945402331,0.04660773580147708,-0.019545037009637712,-0.0718124924586626,-0.05957174994986145,-0.17432924162665617
0.030179403438347432,-0.13883914100902256,-0.06550342125092631,0.01673460831152592,-0.034376745357570695,-0.0790868248887532,-0.0688852812145234,-0.21542875506100992
0.049084948223681535,-0.09026167601945365,-0.0313109697181325,0.051054131959604954,-0.030319420166311693,-0.06513592634032433,-0.05352331577888797,-0.17218600240616863
0.06680923209670539,-0.013976751584492362,-0.001882952604481633,0.06515110897889029,-0.002660517909923704,-0.04917840688453999,-0.047522985806654115,-0.11616367894806634
0.05380878194171403,-0.023392724955234416,-0.007713410778367673,0.04915351853962159,-0.014809004175277016,-0.057913999210815414,-0.055479466482265476,-0.11230745038561725
0.04214299901492748,-0.05544485950218995,-0.02923067328832957,0.036317946163430995,-0.029839904013200615,-0.06855485639001892,-0.05632528580161471,-0.1324326592273864
0.020240858591468354,-0.11005329677899416,-0.06114934390877686,0.007204870255299666,-0.04244003066912349,-0.08579024389860744,-0.07044451208687563,-0.15256753685274116
0.01002653314137479,-0.13724646299521862,-0.07767122665436352,-0.006646672490439012,-0.04943884361732052,-0.08762921575581191,-0.08344836660795898,-0.18120598552193995
0.05163495057977662,-0.005061675267613202,-0.004997090504947104,0.04315545360342056,-0.02061792882678477,-0.046087866579256884,-0.04313770571826773,-0.07087788400779167
0.035053321834459264,-0.01223135808110332,-0.020462092033234642,0.025611076181866317,-0.03335496559367995,-0.06499225962178645,-0.06086142856794322,-0.07313907965562114
0.029157525942426356,-0.018786871195433447,-0.025542135016381154,0.021101767481468546,-0.03430812970020922,-0.06737261367066705,-0.061945596327962274,-0.07119487207075081
0.0045587859395699905,-0.06779288949147284,-0.053947469010624825,-0.009124023903560988,-0.04780092365024927,-0.07532812355248143,-0.06753790128763312,-0.1072047404978151
-0.010092719271771567,-0.11868198687433944,-0.08398996183770129,-0.031047128889900452,-0.06678418564648118,-0.09245960302284263,-0.1062573239618935,-0.12224209741628225
-7.32068561359425E-4,-0.10971034884634996,-0.07223187936172652,-0.02442924423258926,-0.05441397352879105,-0.08668005393052387,-0.09754056886898638,-0.12583705375416432
0.020196903847328782,0.002868633659001134,-0.016259577978071225,0.0043709012846503805,-0.03853699936700093,-0.06843171674725729,-0.06632337189822986,-0.042771095699406105
0.012359152202587424,-0.023922493109730065,-0.03287424410462109,-0.0074747741812665755,-0.04601308246821386,-0.06981363709402431,-0.08315341749244301,-0.049144388181249145
-0.003372021118178435,-0.03670668691665332,-0.050420236347938775,-0.01881632966180346,-0.06052077168982191,-0.07973830813721086,-0.08132952699624263,-0.05938672544412237
-0.028502727646340698,-0.09712629197310962,-0.0897349243001692,-0.04801001723836996,-0.06612746279918863,-0.09473990285800382,-0.10981863211011292,-0.1121471652403238
-0.03677540046791121,-0.14644079322821063,-0.11567872106615187,-0.07486262850298339,-0.08134198928118808,-0.11117445546393002,-0.11759515615325487,-0.14838157510029532
-0.02262924388935631,-0.11475611606464342,-0.07840134225284429,-0.053714680186037866,-0.0758652071103036,-0.09300638333332115,-0.10504584808573379,-0.11160012974996436
-0.009694058986648494,-0.013233646397704127,-0.043491399137013276,-0.031920352398047344,-0.05956624310654825,-0.0771305137386739,-0.08081163747771908,-0.03179668565588644
-0.015265515368614953,-0.037781079084313,-0.058885586707345894,-0.04352376450472861,-0.06363032657811483,-0.08575525643226015,-0.08567755873285442,-0.04471049465509347
-0.02976942872118595,-0.05776609781978121,-0.07876404996914807,-0.06689432386157337,-0.07330577296392247,-0.09516689647062823,-0.09934888161822517,-0.05562136538443662
-0.05172525598443593,-0.12349128286365622,-0.11551448517044491,-0.09064087086996339,-0.09053879668873575,-0.10884303792456886,-0.12064022951137271,-0.10823153344065939
-0.06494986052293157,-0.16288632746384873,-0.13773498326386463,-0.1125074490764643,-0.10506540523921093,-0.11889672494726986,-0.1326751215477183,-0.1440889069957927
-0.023490670839898285,-0.07260793632555812,-0.07339734989984602,-0.06034579503340638,-0.07360996962349219,-0.09316159846189252,-0.09640587354351542,-0.07461587414389784
-0.03417681288510649,-0.04902578345004908,-0.07351839627197264,-0.0732376960495491,-0.07050600220948074,-0.09075722507355552,-0.09384438672677924,-0.03304021475253545
-0.035673563035345,-0.06132427460646598,-0.08329901356717924,-0.07216203411067199,-0.07686971767626108,-0.09648536462926036,-0.09657758462840249,-0.05547001447830881
-0.05752998995540189,-0.09989411244181452,-0.10896841232669979,-0.10377565506363866,-0.09326137993777324,-0.11377623242738114,-0.11509477126795227,-0.0676961134198573
-0.07496132265607645,-0.15111167857752106,-0.14124821722248115,-0.12661469105396173,-0.10490089191196471,-0.11143904022973108,-0.13573775794806428,-0.10592721323838963
-0.061659502500442616,-0.14649132113626898,-0.12888542174723747,-0.11009944208631985,-0.08506718615056266,-0.11586877349979306,-0.123928946858183,-0.12402355060157026
-0.03610503410574588,-0.037576636720282615,-0.07410041801756807,-0.076371895661135,-0.07739878179663981,-0.0833925695582607,-0.09664317656780784,-0.003572240447948389
-0.047244490621724054,-0.0660731916988363,-0.08766494214889718,-0.08684806575954283,-0.0843950332710872,-0.08901951203817628,-0.10743900076406913,-0.02336277107364097
-0.05705380912543181,-0.07452522658193929,-0.09981526845688338,-0.10188424752683127,-0.08409014518260274,-0.10290109159306933,-0.10175991750805319,-0.03633755194321429
-0.07282241311679545,-0.1302482970816502,-0.1328719771289157,-0.12012890790314779,-0.10459316720582673,-0.11569021767086998,-0.12367687953469009,-0.08632060176710621
-0.08563377858218021,-0.16751168970834932,-0.14954024172870392,-0.13608290967999698,-0.10445398876386822,-0.11727090137894873,-0.12563983399323697,-0.12199870911743582
-0.034696963933938944,-0.05084120752998053,-0.0752910194803381,-0.07949931714646154,-0.07535020292639213,-0.09264441713311487,-0.09363797482917482,-0.03539431801816961
-0.04912299704038853,-0.048920343987545356,-0.08149027494421074,-0.09407938824967763,-0.08357338323562112,-0.08804656352691222,-0.08918914797439599,-0.016167605400959194
-0.04482335023426533,-0.048344859641031676,-0.08589469428887829,-0.09560496035050213,-0.07207178570886899,-0.09787387512685841,-0.0902268967694573,-0.01907171304828271
-0.06756550288431128,-0.10026384291426914,-0.10912412647888306,-0.11410722178259118,-0.0872493382482582,-0.10852713760535669,-0.09743409783294132,-0.05339084151358562
-0.0744847041517999,-0.13979947041665886,-0.14132456025937248,-0.1314741439993885,-0.10921635204965709,-0.10992638870408634,-0.11303968262331016,-0.0731617804434068
-0.03873140390418287,-0.07474211242228153,-0.08738035662372025,-0.08170302946329577,-0.07729679001969084,-0.09358031320395953,-0.09152045545281384,-0.041263158418395944
-0.03794897704877401,-0.02044554963437542,-0.06720741064115904,-0.08237234253967919,-0.08081796885087625,-0.0874359091777446,-0.08528675077956438,0.005715217276994484
-0.037652902266694904,-0.030531268367803982,-0.06851885479517003,-0.0783888104282702,-0.07493815580236399,-0.07811268591385401,-0.08072825422149002,-0.010615048059731378
-0.049682105670113864,-0.06138945553817627,-0.08638806785569826,-0.09518980911305686,-0.07162863998867285,-0.09679877427881439,-0.08970306053146271,-0.0254202774754208
-0.06437774116214015,-0.11513495035974154,-0.1193788600123315,-0.11532871189534633,-0.08725616411331158,-0.0951014537487942,-0.10608834352701035,-0.07278811235140303
-0.04261900982340821,-0.07457108601536544,-0.08679493725088155,-0.08622787010067538,-0.08002555271506077,-0.08570136641820912,-0.09158246226938838,-0.04333074942667387
-0.02570608557055627,0.00881276255601592,-0.04368494152308312,-0.06039657579095979,-0.05638678959926851,-0.07076820147477135,-0.06324396506894092,0.022717750896662014
-0.025958064537979223,-0.0040193472593980225,-0.055439823311692366,-0.06679280783472587,-0.06634488693617732,-0.06561551022673283,-0.07366549537452295,0.02191847380659761
-0.026696088589012748,-0.028812733333908755,-0.06529734950313883,-0.08354866050729245,-0.06930563670139127,-0.07954348765135469,-0.08349293146842188,-0.013128658869610241
-0.043371429269179876,-0.0710226556309559,-0.09893505285475603,-0.10103770950551186,-0.08332031834774564,-0.0900428953436273,-0.08709867413497854,-0.03970391876312608
-0.03227895808924674,-0.06665108185487251,-0.07914372894617273,-0.07989685659450468,-0.07319054699367569,-0.07970482007403296,-0.0832997828731189,-0.048880175520989486
-7.735732153541652E-5,0.040076095022530164,-0.021570347731346848,-0.044677251939969284,-0.045972108547959,-0.05397050766688969,-0.053144685054878585,0.044450741706524945
-0.0063894126250325384,0.0248081319497007,-0.03180400523171103,-0.04720304753371288,-0.05210547133640137,-0.058537374815345176,-0.05904236043166367,0.028934544372510352
-0.006608888854048462,0.012849311586477497,-0.041186099081038124,-0.06027818336114612,-0.04993261422800026,-0.07080428674076604,-0.0688405479425622,0.014680919867600083
-0.022510928596322793,-0.024842832285963245,-0.06311130585078539,-0.07946966162075168,-0.06134925385329794,-0.08033914334304455,-0.08541150102846175,-0.01643741093795279
-0.025687517666947,-0.04936811692331435,-0.07077475966213576,-0.07382641482003882,-0.0662871157687725,-0.08117963045370687,-0.08717438793740036,-0.030226597863081756
0.010372689521996867,0.06902873395448303,-4.5341321861025956E-4,-0.02586252130048665,-0.03597529205299204,-0.04302442443133364,-0.03671890160434412,0.057922428311463464
0.006165117738588897,0.07273464434531257,-0.004683898596002031,-0.02750227768552959,-0.0473228013549548,-0.05568103555958232,-0.04541512565071982,0.06133079015941014
0.007234328923364752,0.07518619367789632,-0.006143590521872159,-0.026470791052330623,-0.0408667906508701,-0.051227159208345946,-0.05483893728153941,0.061245207600798934
-0.004017875479286335,0.03199453673958515,-0.026650798415712097,-0.04710616787223911,-0.05215328179067043,-0.06798257760222906,-0.055433727425505765,0.028298227564761257
-0.011219672646388592,0.010459416182995852,-0.039679808033954655,-0.04796583520230947,-0.049159011894749874,-0.06934474196055974,-0.07045990787176389,-0.0031657587106797514
0.023387700479498685,0.09221273387234336,0.02130312008206513,-0.012904098448193903,-0.024973412686511664,-0.05239659902405238,-0.041667528733535096,0.07621584865202126
0.014115594890807987,0.09257452986192616,0.009385285218590502,-0.015272639367248587,-0.03799144707726426,-0.05540139209524254,-0.027691292517448965,0.06435943473141385
0.018525878961196673,0.09286247142170827,0.013457768517851302,-0.010754646862111675,-0.035334860348984566,-0.05193649349140603,-0.04214317447104349,0.06255145243866443
0.0040253042833993165,0.066887993095645,-0.009951373559024186,-0.021743442184209157,-0.044002041258776534,-0.06411927955470172,-0.048773816413681885,0.036109662037177116
6.848162397877056E-4,0.034527229393161545,-0.02543129805661916,-0.03622727859742115,-0.04769661594473375,-0.06586245458966518,-0.05747367065844081,0.008447649055867645
0.03679676283771022,0.12478532159853138,0.04029392486226281,0.008748463105798817,-0.020966043277572996,-0.04236829266570035,-0.020438612921329324,0.08627388008282967
0.02921876389499429,0.14039327125037512,0.045616204242488356,0.013768822223581719,-0.017760659924796307,-0.04012671873859819,-0.02445593097266037,0.10018381061421212
0.03870977485509258,0.13890430073392543,0.04349641615901769,0.006569459779296263,-0.021178696601616195,-0.03719486139068969,-0.029990364575678885,0.09538353508293451
0.019710727420707036,0.1093873067080543,0.02162820361259713,-0.0014579236596145534,-0.027502478887550842,-0.05669185874788219,-0.03415759492501574,0.07620705854725687
0.01452351394576135,0.0730886133941956,0.010677471021615731,-0.0083518825069165,-0.04185601651531354,-0.049261849109733684,-0.0417169638055043,0.05433152808402956
0.04552921405818431,0.13941030160121615,0.05959940923270413,0.030762227581478684,-0.0011638607598022962,-0.0386399163004494,-0.026942403520674705,0.1209791553767494
0.04430183833298477,0.18006043525401164,0.0705796031689797,0.03736905885494769,0.006588433303440303,-0.04102706781741484,-0.018187705648716093,0.13432464402144745
0.050126391522020086,0.18518887861560104,0.0796106226938818,0.03797606438519246,-0.013068963797313269,-0.03696704291350847,-0.02658093711581491,0.14117479464539473
0.03499724698952858,0.15446079340325342,0.057562711001105805,0.03305348613012633,-0.015798863550130604,-0.04516694428562895,-0.027256638415379453,0.10738752904062805
0.024056840572252554,0.11917228480410369,0.03326864671047059,0.025879856069477916,-0.01776761917232744,-0.0521148103089099,-0.039883584781161434,0.0846395722011409
0.014759835942532058,0.0894500797732653,0.016196079701168053,-0.004881155734229982,-0.03635065995099735,-0.07320894927151118,-0.053814760498129235,0.06659309767369781
0.037041292534871643,0.13596150604883844,0.06017458571540826,0.043573048952821214,-0.01536014048102877,-0.05165793314410832,-0.028465127666945478,0.10788638191710341
0.05391617267552755,0.19263982179193984,0.08269707411871227,0.05249156908433658,-0.0036771938888050604,-0.042054925004486446,-0.010923713797054951,0.14090071723246048
0.05065884673477959,0.20402508792944857,0.08790444818195287,0.061090454816003524,0.001973707607360359,-0.04681568222765745,-0.020882040384820826,0.14999180021937467
0.041422374221189405,0.17787071689919312,0.07239895065016165,0.04393829117845519,0.0013824573564386313,-0.05819997876120375,-0.030480037828017288,0.11945591976609667
0.03415177858224279,0.14146618202302302,0.04726533228127235,0.026400965019763144,-0.011738126990293684,-0.06550391166876894,-0.0415074602175021,0.09987861421141808
0.031117129878374523,0.12154419171402846,0.035581271125643125,0.01802746287298639,-0.014329384698096326,-0.06729191893065273,-0.05657687904354857,0.08062931306768234
0.059659849751470595,0.2022602269512893,0.09352607237484878,0.051998593497178475,0.006274251859736195,-0.03540608868444295,-0.012213696327707716,0.15855218032891985
0.05375414141272467,0.19570659092281317,0.08013777083421592,0.04540354777177446,0.004124772674383141,-0.047383940055037814,-0.0356085824560953,0.15083457037935458
0.04715078219630969,0.19217554810043436,0.0714692975511526,0.042480545037195505,8.669298708716263E-4,-0.06342018764326447,-0.028627340222462473,0.15102868017330495
0.02829530591015414,0.14280176589518595,0.049983541825729914,0.015954075384320636,-0.01240902333828466,-0.06175745414662898,-0.04813358370719701,0.10668846258614716
0.025803151091433947,0.11611203760323822,0.026292805275703907,0.008852578201391929,-0.025848829319775054,-0.0781846119088409,-0.04738599772859502,0.08499966903092163
0.014965964489716453,0.09014038001675341,0.014531365698833097,0.0028102865392033403,-0.02760414091560818,-0.07879937036351864,-0.052933253925055095,0.052900694831848505
0.05186085715718772,0.1941215472433539,0.08135123291869317,0.047644456890238815,0.0032702526802253704,-0.04622535573921535,-0.01405528732630873,0.15863208856277222
0.05282176212557769,0.20577059985451907,0.08214571799768149,0.03623743119705285,0.005586602653978504,-0.05679121006078033,-0.02659573188117822,0.15439194559800654
0.038328395409440705,0.19810671797059115,0.07366355487977821,0.031137296568339395,-0.002558872750698102,-0.055098749951305134,-0.0284158208925336,0.15756500558203052
0.033335308797406954,0.153916924819937,0.03916484035563597,0.014701494844333682,-0.016232770475925862,-0.08030606735541654,-0.05379182423874106,0.11703667794334034
0.019453689852375184,0.10826623989324065,0.02079565914467962,0.0020385713530465433,-0.026878645252528716,-0.0924798366068805,-0.055465154653713246,0.07781702372160142
0.003692360285833137,0.07969842246166632,-0.009114244976046449,-0.01983427550446629,-0.039891912309664865,-0.10489871782292137,-0.07073630122516922,0.05221592252491852
0.019012710700839118,0.08381354270214275,0.007222794772273368,-0.003833647289718228,-0.025325606204935357,-0.09565017988527946,-0.06616251229279849,0.06297827246735972
0.04187547796307146,0.16858345364507293,0.06033912098397708,0.025324508247069024,-0.001403192046785275,-0.07491387610707109,-0.04324315917868042,0.14311919297303569
0.039225995784806796,0.17415064673146058,0.058843275292915526,0.020669332641080118,-0.018239014635595262,-0.0844544319395587,-0.0528286570399187,0.13630782565151287
0.03263733994648198,0.15800419824576878,0.04012976863570633,0.0024768354616881787,-0.02367774336312262,-0.09610725488773676,-0.05407292070700321,0.12619711759540125
0.027765416078199746,0.11113194296121821,0.010454171853681414,-0.019154243436600854,-0.036143684843141184,-0.10143749295176178,-0.05805687321752891,0.08628444184190386
-0.0027831323041680226,0.06459509785692162,-0.01171695587093581,-0.03149012453020717,-0.042107253554286336,-0.10866439608749985,-0.07742599743772774,0.050185973099746706
0.028842044629664672,0.1217026380317486,0.035703603371018404,0.007849163453886173,-0.023032056399220513,-0.09328052879175011,-0.05135857698774787,0.087830630662117
0.035721554387484505,0.17205128664307948,0.05235735549850332,0.009920335695023793,-0.016584183482380548,-0.07953903365979603,-0.053739529210385044,0.13867027595107098
0.036903011189359576,0.17651840467436214,0.051401824751767924,0.004404985291598211,-0.009497656379994411,-0.08555895808752711,-0.047390181601229035,0.13679278864318858
0.01961904339688735,0.1293019607587554,0.023341570236547853,-0.013359599517154009,-0.02433923374544296,-0.10379377817799083,-0.059847924937817654,0.09483889689267885
0.004984589317763666,0.09514969216701197,-8.438007354296402E-4,-0.02271919921419614,-0.04856259454796783,-0.11398012505944864,-0.06473221901012856,0.05400642845275623
-0.007705661209024006,0.04445717911244916,-0.028796822954519182,-0.04934421763213282,-0.04653787418153962,-0.1285469716084196,-0.09620355009394325,0.02923235502561753
0.019111935129894633,0.08784651100035347,0.010185403174407278,-0.009439769293042485,-0.023864864424885092,-0.11127538420295878,-0.0731689310022473,0.06400671063542224
0.03689716382349027,0.16442081422284285,0.04758371926066377,0.009863314401492223,-0.01664424774068326,-0.09650585102652443,-0.061249499952045885,0.14422351352047086
0.03696727895545434,0.1590002141727222,0.043689226327977816,0.00924282666549006,-0.01593194679331699,-0.09222801902896584,-0.07296374468067718,0.13138206130245741
0.0218030572184086,0.12597183049959373,0.021621273130089103,-0.015502930690505765,-0.021807692746314496,-0.10801076615606024,-0.06322204105333402,0.09292448893702494
0.0029658125907294124,0.08414494905118718,-0.007936333193529368,-0.030385737965326072,-0.04541450368705354,-0.11424302078841855,-0.08225361037109098,0.05514319314746337
-0.013501290289636049,0.03829692216361558,-0.036015243396304304,-0.05592794475367394,-0.05284451800284438,-0.13784105891844647,-0.10619882733705362,0.019279375837795525
-0.023130569625533847,0.001793276635307473,-0.05260591783720381,-0.06316842917014337,-0.06787024814573764,-0.14368625954940023,-0.11010775356436177,-0.012095967210661463
0.03096132135984412,0.12671020420171214,0.031160563869697986,-0.0020956651759364135,-0.024248537916163156,-0.1114444409137143,-0.059412019428028935,0.09237602770741117
0.018510201561810685,0.13466268679057727,0.02465400341892096,-0.010723154342070334,-0.029337448016464356,-0.11271006601484285,-0.0635532632575898,0.09183204340766123
0.02046289999090098,0.12646465826032094,0.01819960031961845,-0.01685086919306945,-0.032863382886665654,-0.11345870704803344,-0.07327915777586945,0.09374653734737298
-0.004872531928123597,0.0732860664571298,-0.01436088340683013,-0.03484821789683421,-0.04620198852564188,-0.12672929152719675,-0.09029182034549631,0.04061246269573436
-0.02037304370210086,0.025112763923490645,-0.04598930600852271,-0.059774713257494755,-0.0494500110633257,-0.14348384949208814,-0.1180641187177296,0.0025756484614997284
-0.003078497675273631,0.032840437354777874,-0.030017257738222183,-0.04115235943452229,-0.05831711519301647,-0.12960686924196108,-0.10177373404625124,0.014805391038358724
0.02633610734442607,0.14285791604619408,0.032242369200163074,-0.005060984806504622,-0.028927335836781875,-0.10894321977934213,-0.06494688854522482,0.10537317376666301
0.020438699502155072,0.13520971748778016,0.02795416633330142,-0.015358292682907925,-0.023577743749738908,-0.11123346599254658,-0.0814362833399985,0.09899849674374048
0.013124045247793469,0.11065319044933078,0.007981837149608905,-0.020185111860295247,-0.044541063567800264,-0.1120576485804508,-0.08102651989588601,0.08646240358570864
-0.008069837069519694,0.05739510238792232,-0.024472133934511295,-0.04475656724143314,-0.04744655678277937,-0.12838166299874923,-0.08645411318081551,0.03169142488405006
-0.022163156848417014,0.020560773806213524,-0.04991350421902185,-0.06135983655016169,-0.06710024392959188,-0.14689085244974137,-0.10315729107215109,-0.004699099099720739
-0.00822102625014009,0.0364691563194351,-0.026571678239836492,-0.04390134969555521,-0.054265051460552584,-0.1330471648205145,-0.09302367818993691,0.006820733435212093
0.022785069455910068,0.14427128742778222,0.031722475044405146,-0.007347382941795247,-0.02611514355220168,-0.10721747940865393,-0.06712759087341864,0.12788104006340878
0.02391172041649449,0.12646207717741975,0.0282423140040837,-0.007634635807365947,-0.035216462247995656,-0.11921429452032416,-0.06756260458054371,0.10030549320639785
0.00429092919330304,0.11797027110282854,0.008517231318090273,-0.01869398725697484,-0.0340889777820564,-0.11603293672951695,-0.07803230360543224,0.08517433491668525
-0.01253778388298515,0.05526483828560966,-0.026014862686418734,-0.04828667882519276,-0.06207536032102964,-0.1342071205189566,-0.10640353238811268,0.03298806217415564
-0.023318807925086414,0.012909182536510966,-0.05227956364601255,-0.07158408469842133,-0.06436768617911551,-0.15686190262495794,-0.11207350987769557,-0.012931380382959993
-0.01950293692728176,-0.011736169729931464,-0.05512003117470195,-0.06455388481526919,-0.06641947187152744,-0.14833306074412433,-0.11005026341752458,-0.02959645534984849
0.022468253168099916,0.11132997722407144,0.021735086161963787,-0.01390211321389278,-0.045439374599507,-0.1166944191786847,-0.07060601119409082,0.0851274060768828
0.010754908271269157,0.11214272349058979,0.01082116141079589,-0.01940853863663673,-0.040724845676965715,-0.11842074094390138,-0.08102942578387509,0.08073302820909764
0.005481385274233044,0.10534341169730654,0.00639486045169843,-0.026856514004324997,-0.03702511218467739,-0.11945458338099912,-0.0771154761547186,0.0682349199834381
-0.01229709636629936,0.053897885477195005,-0.029665624068311084,-0.0491686576762586,-0.05797730445190873,-0.13143803111603666,-0.10415303990130409,0.02592763661842261
-0.024955349659579882,0.002784223776622935,-0.055836216553392985,-0.06511723510841182,-0.060796894492775776,-0.16059622954401,-0.1116145879926865,-0.006280189921239769
0.006079601763561719,0.07792107093610338,0.0019453609922338128,-0.028405647493810953,-0.04359941002674273,-0.12444362560259586,-0.08867986793278555,0.04409829358274752
0.01862231875365993,0.11379529573541337,0.014797270181083464,-0.029929924674507596,-0.04274694112297647,-0.11819312978163314,-0.07723554016572111,0.08575384506699327
0.012128520361855015,0.10642121638244832,0.009050228681167605,-0.028670406418753104,-0.04945714857193822,-0.11368564992054808,-0.08897162404723881,0.06882725815791829
-0.004593572522369862,0.07475177020142332,-0.018320026217285724,-0.04729097859612992,-0.05047616183084238,-0.1355451972845662,-0.09736091265288065,0.03875360144831738
-0.024278587140627122,0.015889796786550142,-0.048591490958693015,-0.06963271203611492,-0.05957539887610612,-0.14230852962488275,-0.1089468337019972,-0.016279968328614513
-0.008861693868387999,0.027457685278404392,-0.035701361031061446,-0.045302397784649465,-0.059830695930446855,-0.13806766068851428,-0.09542772211596419,-0.004625038925551635
0.023111711277356593,0.13838174203478898,0.03701681238477738,-0.009952207711261988,-0.027570086119125637,-0.10646851536296383,-0.07226122272175879,0.09486157175440459
0.022606765616557403,0.12844530050430414,0.022963387422262976,-0.01863064332378121,-0.03721851536766349,-0.11185498273858922,-0.07540280302047105,0.07219380397596
0.010978009745360536,0.11301935365020913,0.011236604382418905,-0.02610115125863136,-0.04585238396942987,-0.11872617476071919,-0.08282222734373527,0.059913743568834284
-0.003710533737706009,0.06340500058677118,-0.02146750145100208,-0.047734402402364144,-0.045448883491797334,-0.12574174485902195,-0.09542836667884978,0.024553717779739404
-0.018501102564015624,0.01657228240023959,-0.04745224780180575,-0.0725286314849974,-0.06191754411858017,-0.13620715915006704,-0.10907905861910984,-0.007887667128296527
0.025486764707095478,0.10104846147427937,0.022520481538428276,-0.013305244729349408,-0.03869167935752123,-0.10689200303665151,-0.06548251333358177,0.05174013327823055
0.029287223513727256,0.1389759544129848,0.03403325565834582,-0.012654421850817013,-0.03274137204613629,-0.10361772435393594,-0.05933899565544844,0.0744862491884388
0.02559436687380182,0.13648453057261467,0.024461064839864627,-0.013644747896760205,-0.04045185119413118,-0.11596605021763237,-0.07394626409017867,0.08184203907580724
0.008081921624106326,0.09749563483203155,0.0036739501084028722,-0.03335778714886773,-0.04088776556397573,-0.11849080606740034,-0.09388014641118542,0.0514909281611146
-0.007047967602065831,0.05031857979629658,-0.027535281225359417,-0.05732382854455322,-0.06238510104108697,-0.13332678874917048,-0.09490026880681066,0.008111343841657397
-0.01685269221647142,0.017565918850321965,-0.0480833021256585,-0.06472615354069078,-0.06809829408663226,-0.13637760395473486,-0.1062322925602418,-0.03119923232294139
0.02782367111520897,0.12424887921894166,0.032230030237939425,-7.031233957482385E-4,-0.022506450954805385,-0.10145471832968232,-0.06643533940710256,0.056463830236898806
0.027052948389292827,0.12453713610234697,0.021678506590528644,-0.011001850268589693,-0.04011885082804186,-0.11449652852037245,-0.07819416673088883,0.07557243925172318
0.018843542744692847,0.12631761561167168,0.024409972210416176,-0.012913968619183359,-0.040493895243831284,-0.1104585869942243,-0.07803424175220758,0.08181643951271367
8.60095048971329E-4,0.07647938680098315,-0.012964574547650822,-0.03366785636748992,-0.049497293621742766,-0.1271337165438143,-0.09241742257376037,0.028939578674644428
-0.008148510312886072,0.03101582711616993,-0.040553039995073245,-0.06265992403874981,-0.05928749801814885,-0.1356106917022169,-0.10416334784225713,-0.0012418384659629226
0.019679983439811692,0.08287249218605475,0.013252885278458028,-0.018723599910576205,-0.04671086078959702,-0.11464033789293865,-0.08252299031338718,0.030634646262020945
0.03168572437548593,0.14924625367125538,0.03566713307176476,-0.0032377647850693443,-0.03197044342447523,-0.09663678161652073,-0.07596090715648098,0.10512925547692015
0.02755507422958985,0.14232309870439006,0.03483321557326428,-0.006242383224751692,-0.030896049973814753,-0.10005601113065277,-0.07969642487620586,0.09244352547522561
0.015747085423381664,0.11144035610741045,0.01675412726488539,-0.015201219644637158,-0.042383220847835204,-0.11127811573043735,-0.08156692034755934,0.05992308627653426
8.897290419876096E-5,0.06260249780178145,-0.011237886386690817,-0.04389409534860141,-0.05134190296111181,-0.13224857772222773,-0.10149805354266214,0.02438916293135287
-0.0020699030337371104,0.046703180808793855,-0.013426782397005354,-0.03529670347763293,-0.04014142916848792,-0.12967060856325996,-0.09348316757759523,0.009233508288157503
0.038319917590589204,0.15641371052798686,0.0544169284459695,0.015011039917676045,-0.037381898249913205,-0.10253355141802768,-0.06304916155938543,0.10852547428218602
0.03603908842622823,0.14555824826845246,0.039755729490627376,-0.0033800188087841753,-0.03402953427648526,-0.09619709713398865,-0.07546656626009383,0.08600210343277875
0.023975818190110538,0.14018120643987977,0.033335403945984825,-0.012568375301303938,-0.0341944201181429,-0.1039178863225506,-0.07845610652454796,0.07748910021170878
0.00363610960082618,0.09355604192321207,-0.0023926390218805232,-0.03325522575170993,-0.04448819219155536,-0.11168188889980132,-0.09596572569331262,0.0427429044816562
-0.005997787926784304,0.03778449578890301,-0.02628769109765707,-0.05093057640403534,-0.06212394109736939,-0.13312258236366342,-0.11403001690978504,-0.002616453379405243
0.029210793104482557,0.1107162296981867,0.028495934949331232,-0.0076135518586854046,-0.036291681152784624,-0.09896541036300278,-0.09649520564825677,0.054370858876041386
0.02801730196099132,0.15809179299376114,0.04649519552199487,-0.0029513875943159972,-0.026159956304368518,-0.10204350440271177,-0.07099207448866693,0.09943644924007634
0.030196498310962692,0.15384974100306237,0.042083380451429224,-0.0015712720160190612,-0.026230297206884856,-0.10465422017905199,-0.0776789942775892,0.08478249884264882
0.022591678868271535,0.11248527821536153,0.01625208437419332,-0.016950708360619737,-0.04194094564087907,-0.10676830637430638,-0.08563420041918206,0.061563624802721935
0.0020167140547390906,0.06261738705214051,-0.015152362416488683,-0.03991797089334877,-0.048688380757886236,-0.12181209484495602,-0.10866703107801363,0.03877427094608514
0.019962620108532187,0.0872094934472955,0.00985207580557576,-0.024917553609856275,-0.04284049261909624,-0.11283846185058508,-0.08214417498869332,0.05388003883072767
0.03489214533104039,0.1656188462130182,0.04695835018415382,-4.973345238843249E-4,-0.01686288264258182,-0.09172777674821753,-0.07423992121561171,0.10218987097328965
0.026249774062877148,0.1512204529025986,0.03874539404630985,-0.002374332904846045,-0.02860674263342022,-0.10224988701147537,-0.0720398195804092,0.09778731078669531
0.019140868703787697,0.13557487267193447,0.018633893031664614,-0.014527535484025206,-0.04252440472653939,-0.10033015953491099,-0.08829198116982297,0.07274339982665294
0.008328980794733756,0.07849347382964411,-0.010695591321129821,-0.04524901650125111,-0.054913067240666386,-0.1206036056849499,-0.09929746776241462,0.0207728546507167
-0.008138286351780927,0.03785804228462815,-0.03165308397546014,-0.052991666728475294,-0.06421644804103059,-0.12684418769629563,-0.10632857431585388,0.006577739749779937
0.04223275390529127,0.16190756452399216,0.05132933704013196,0.012255809081268302,-0.028948369246082642,-0.08476644726612957,-0.06361348000742409,0.09571917680960096
0.03651143001106975,0.16563767588573783,0.05053090312915008,0.001858797422534303,-0.019946860559938488,-0.09130895295431056,-0.07640067509886543,0.10802465221897081
0.03158735487262245,0.16731467010138637,0.04512300454768471,-9.805191326914687E-4,-0.027595594590479184,-0.10486363354477839,-0.07978317426354015,0.1154144653732756
0.019372535668621772,0.12709388301128483,0.011784485833838272,-0.019208523287591178,-0.046646602568894587,-0.12111994240469336,-0.09905110548141921,0.07917416041538446
0.0047538699396478335,0.07460990104981127,-0.014197016741226693,-0.03632217353618205,-0.045474156908684275,-0.1229717383597401,-0.09218452808941278,0.04404785223558554
-0.005973826790603038,0.03173269551886057,-0.038678105035524706,-0.053134769697890175,-0.05681808627841827,-0.1245281855295949,-0.1227351148274686,-0.0026686177791265414
0.03357588310928756,0.11922341150730352,0.025830969625656265,-0.00567241609762973,-0.022146843329523165,-0.09196088654108436,-0.08269564873543175,0.06036256214767512
0.03342517514408026,0.16816071825753648,0.05124422287529755,-0.0030971348814475626,-0.025098735588975046,-0.09133395953607709,-0.07566206049989788,0.1343836969478243
0.037330303149298874,0.17786948595536614,0.05034892658440986,-0.006880443705199423,-0.02384712775237724,-0.10480673238900239,-0.08257842303258285,0.10258939956202887
0.02092029531831057,0.13172686974768716,0.02539195927869653,-0.016771031373660938,-0.030410147159626002,-0.1031880140557059,-0.08589463605473263,0.06385588674266901
0.008097945512635438,0.08725309021365255,-0.0012255694778172445,-0.041635456100210744,-0.050757567619264414,-0.11675606342337973,-0.1092964685793127,0.032508922670047825
-0.008139173758264265,0.04892099417266747,-0.026646158843762955,-0.05588348233206778,-0.056242821978379605,-0.12669861089209328,-0.1081145819295095,0.016457770679283935
-0.02353790931779086,-0.0022629320869164676,-0.05264021114722801,-0.07415820098341816,-0.0629983058008556,-0.13041592004352762,-0.1320826476741994,-0.024876819005663145
0.03768663229261136,0.13733772643889572,0.036596766743098044,0.007543928284485086,-0.023312946336638173,-0.10138831137403685,-0.09110597205788803,0.07998555385517382
0.026501112319921284,0.14146257377080898,0.036186215173357836,-0.014318346259127016,-0.02596542274472784,-0.09800936926652752,-0.06920919971035375,0.09850261045698308
0.023493367756721725,0.14498811988745292,0.026505097337250788,-0.007377833830673224,-0.03168695110179777,-0.09920816358035674,-0.0976595374406409,0.08790640473538189
0.011209510298089337,0.09559771137303379,-0.0019972810871313313,-0.03096666297078163,-0.040925043859556774,-0.12620578916511827,-0.1012718174709142,0.060487180202753295
-0.001954891740467406,0.04965075763228013,-0.025109831732443032,-0.04346828173220773,-0.052985356051150484,-0.12341591947066786,-0.11989952151328895,9.72753857074146E-4
-0.01696637528558386,0.02281427996162448,-0.041793194640239645,-0.051463313906414995,-0.05411388327025015,-0.139463271918516,-0.1289885744749898,-0.009757768514292036
0.029506454053631295,0.12985886048084289,0.03489445434720334,-0.007197981818373911,-0.026816248761471914,-0.09921803041986851,-0.07395426941446999,0.07728944523130434
0.01729160910433794,0.11630996605922161,0.018088092758588865,-0.019295851259707446,-0.03180038262444091,-0.10515676567287884,-0.0922313292627694,0.07320233852288309
0.01926274817198982,0.10981441881673984,0.009627785357549342,-0.02464319428760519,-0.034107424655989996,-0.10639935408766704,-0.0860895309444432,0.06251689343494181
-0.0062081032478752,0.060148330647000786,-0.018441770535057588,-0.052029858121962244,-0.03472184086606123,-0.12454161408405037,-0.1114470971689539,0.031210867217793054
-0.011069547971689086,0.011996098857399867,-0.04942771724925141,-0.07132226159565354,-0.06902600957259361,-0.13105953726800032,-0.11495544206190134,-0.02134960039298894
0.018965084856633098,0.07453975157836217,0.0020128450214815076,-0.030462450789226415,-0.041224014590596936,-0.10833618769449689,-0.09754717028291587,0.03351777918633702
0.030720927579154463,0.1430787824876455,0.03231542380456907,-0.013113363045122096,-0.028463218334821894,-0.0956162768397586,-0.07404630107501244,0.09671204679944273
0.029030242836372778,0.13644120967709092,0.031609168954367516,-0.016232611154920182,-0.036665713060606814,-0.09680124371211103,-0.08127894163471211,0.08391890100630095
0.01002039994216055,0.11040280642872526,0.008524907668105394,-0.03007014976111369,-0.03856418082297576,-0.10508809111770755,-0.0875589376564669,0.05202691232943779
-0.0018666350186163948,0.062151638755751706,-0.021230210577578547,-0.05130478812015769,-0.04573002416473011,-0.12263043848945339,-0.09693821504040008,0.022964181889329194
-1.4890110001619712E-4,0.04315164151428973,-0.029532813167926553,-0.05637173655418073,-0.050207014015711864,-0.11757302080002031,-0.10712257577011117,0.0042633392688465905
0.03599690758803693,0.15467096351807716,0.04716135024294768,0.0032552385924872244,-0.013339593692438386,-0.08495941824944642,-0.06697700847919077,0.0866755599280323
0.0341264698896081,0.1565808768036073,0.03595014858391892,-0.01147278256732718,-0.022771263829267436,-0.08884547318149855,-0.05376126716624897,0.10032472343295365
0.03309342050301326,0.14578708980013177,0.03424673481063133,-0.008042243969208615,-0.026869265501784666,-0.07950586751757002,-0.07217976342985762,0.08961655818906547
0.006991544485545991,0.11097087389480996,0.00808725012502449,-0.0286880863079222,-0.030366317383009347,-0.08925828866952676,-0.08649052905324996,0.053003097251956593
0.008318900668784187,0.06491571105663113,-0.00988929896972601,-0.04708645200479677,-0.050882782197458294,-0.10530751907322691,-0.0885757639989317,0.015594331376023694
0.018138618735223152,0.07547674660158778,-8.506304758042776E-4,-0.027939085155588846,-0.03045613030576346,-0.10446497211348342,-0.07744555161529743,0.03138051163643693
0.038711879251369534,0.16215281881045188,0.051088209608650056,0.009914334192912438,-0.008765577211617923,-0.07341615089992798,-0.05506524650976906,0.09747312469803623
0.038732858719844596,0.16223873560426816,0.04654292717546495,-0.0027538929906768847,-0.026420003709882935,-0.06471580089838007,-0.060657401292670256,0.10062451340226221
0.02651914634543922,0.14810075350645294,0.029587117484190222,-0.011476607697984895,-0.01930608886777744,-0.07741888195399552,-0.05890504255861957,0.0903273987533668
0.01837886198966405,0.10535063142134314,0.005976190835540399,-0.03157238408722346,-0.0328027143552031,-0.08582712190718178,-0.08713764983173859,0.04397696993223787
0.007751029254940184,0.07219012628136551,-0.010658033274782838,-0.044875157483540686,-0.038389751950429186,-0.10828277987645646,-0.08363942889519028,0.03747807387531727
0.04431820152903657,0.161275303735898,0.050560779986745144,0.00860456008910602,-0.01272161796917474,-0.07519021464125182,-0.04857852070277761,0.12832960247358743
0.04357577289849639,0.16273998187138056,0.04901689829785591,-9.209561775493537E-4,-0.01615817750786233,-0.07977263309108354,-0.05167000791262253,0.11164043597435909
0.03444501147970662,0.1641600464947536,0.044179580212828896,-0.008779965365287978,-0.014172547104286773,-0.08373209791576385,-0.05367046279325813,0.10347916961289788
0.019809920691555027,0.11898578200655684,0.016572058443808435,-0.02673987496188032,-0.030777060601167146,-0.08471910993932878,-0.07174657309297136,0.05142428704484949
0.005451082617890888,0.07872219524595639,-0.004297300239943618,-0.034729236165171914,-0.03428186510053414,-0.09122852523099201,-0.07038329628908892,0.03548807010465892
0.023779898629518216,0.09729172410783314,0.02276944315119991,-0.01421112102698344,-0.01842748932917713,-0.08657994428127379,-0.07145426289053448,0.05317901507916135
0.04443347138299302,0.17855445183463184,0.060890053962822495,0.010595267773196578,-0.0032036888459200333,-0.069451233545733,-0.038206877030814164,0.12146966490757885
0.045731418339341794,0.1836973460834842,0.05600804186490328,0.011079512855257122,-0.00462837761904583,-0.06574857119460882,-0.044805324106992714,0.126843274075997
0.036331742668654715,0.15825511965058722,0.03720343059469416,-0.009290697117542839,-0.02216977751391519,-0.07528147988689396,-0.05232908309394593,0.10754337073247634
0.021245434761496818,0.110914752655428,0.011143354365449209,-0.01819345152150748,-0.021680622260960992,-0.08328808605401411,-0.06901308750696933,0.05488552425633024
0.00670488993603148,0.07442271797921059,-0.007763097610755416,-0.03264456878096941,-0.045951099451408725,-0.09103814460050778,-0.08087894040045378,0.03710532841575077
0.03155516111766509,0.10907858588192153,0.019733752167436665,-0.015504419634768755,-0.0243003182705386,-0.07676349981744865,-0.06819073974943382,0.06613472471387495
0.04520513020715235,0.17791391995812644,0.058923076806321556,0.011563135776333505,-0.011307826022133285,-0.06366085404739105,-0.04587879113107207,0.13999228045924872
0.04134403930309523,0.17465083315514582,0.050821848911896714,0.008759508051241403,-0.020327977216825794,-0.0677996606689961,-0.05101731959721468,0.12746746807034853
0.032489917590029324,0.15256453563748576,0.03036208798076585,-0.009765541631797544,-0.012974712582705062,-0.07899354428515301,-0.06088535965823871,0.08729483111044588
0.013519809662524508,0.10565979456705123,0.009406090573268713,-0.029159008997465437,-0.033072668701827075,-0.08521747746517148,-0.06953380439547235,0.052368618711732595
0.007922325339886972,0.07058854112242957,-0.016780084012920055,-0.047194393849177736,-0.03530894285443503,-0.0930233319477498,-0.08837484952664577,0.029388179534709413
0.024553776803253928,0.08974955174230145,0.009619938715708114,-0.02900962201606869,-0.03721797762133801,-0.09948630781707143,-0.06910690836406447,0.03839473307240714
0.035523315961476724,0.15641484552570148,0.038724535234630986,-0.005719061483036545,-0.027138117992553456,-0.06636533839698408,-0.0566881825113375,0.11294623243761315
0.029846641284025508,0.14003856273010623,0.03152219601690264,-0.012346453951932528,-0.02940631672275202,-0.07991295192464244,-0.0531343916425108,0.09756336882700709
0.013957971074147174,0.12046531160656081,0.002327141384169923,-0.027725951311436414,-0.026280377048946743,-0.09097231984763722,-0.06683675872154211,0.07336472420091351
0.003492982080919575,0.06704695449338664,-0.027037850253185322,-0.050643182364792115,-0.045357804278889705,-0.108586987995017,-0.0917402573837646,0.0427629784313597
-0.013526234844618458,0.030784717401859202,-0.04545765108124611,-0.06467424513903874,-0.062284873661999945,-0.11641701587567371,-0.09764597661379995,-0.002555376951005801
0.024007340418361865,0.10563953314851543,0.01430171602605046,-0.019789548820788424,-0.03281776264528039,-0.09003373214552986,-0.07831733559365811,0.053474138271569556
0.025074035929743447,0.15053737667385284,0.03482549173431016,-0.021235032342980454,-0.023886689576399556,-0.08795152214738335,-0.06869795497252956,0.09789714113287817
0.02960580580473371,0.14201781263806418,0.024441894210081586,-0.010424626177713985,-0.028982299772309348,-0.09628357087444503,-0.06723033152861943,0.09146808089686409
0.015881564710056657,0.10442149776490176,0.001861166697705324,-0.035420687919026375,-0.03854855895155873,-0.09946874104665182,-0.08579211781807909,0.060266702450357534
-8.74475196673367E-4,0.05405385267125833,-0.025935449351996827,-0.05263910438070949,-0.05682764496573756,-0.12382608321693657,-0.10903282071800774,0.029369191186140255
-0.01592003684806008,0.020702857242191643,-0.05077200612934432,-0.06671610163890791,-0.07096713011842531,-0.12525450497791588,-0.10482020419808008,-0.01634083765521576
0.02733940028258584,0.11032601065842358,0.012824862700543116,-0.009101909943205443,-0.03610470408460806,-0.1028661905526297,-0.0583016315222129,0.05445808662783994
0.02355114911708071,0.1318530217137176,0.021752713859969946,-0.014123842661136263,-0.02797728275107286,-0.09839351346913673,-0.06947267884236298,0.08778820141494609
0.01765152523228497,0.13703630137647727,0.02322039721694448,-0.018024632031364632,-0.03429248103997789,-0.09900217890040319,-0.06498248581766526,0.08575373880537678
0.008110710247746266,0.09298579835150918,-0.010109447744490092,-0.0473886210204696,-0.041414056529953946,-0.11353526913409673,-0.07437849341730618,0.04518209185227
-0.005296546634653751,0.048406049937156026,-0.039912481859982744,-0.06662051596938999,-0.05715737435185831,-0.12611575312749476,-0.0967033944570847,0.01604633156441185
-0.02551951981651304,0.012388493240425484,-0.06450227937869565,-0.07693944643562141,-0.058104487794160824,-0.13602101247796933,-0.10454359651146172,-0.028396973294642705
0.016307303984347297,0.10091285005149324,0.0043715185182363015,-0.03276443206939102,-0.03967015540839974,-0.10767367393060412,-0.07825489472719237,0.05373820361356918
0.01010578413887833,0.1214084797700634,0.00670094668581298,-0.03587235891357007,-0.04176388818135303,-0.10954180971108843,-0.0775254088261018,0.07528502290406598
0.014539894060127253,0.1151385108822928,0.005304382391716274,-0.03739586303456363,-0.04636114929600019,-0.09709055312478944,-0.08856549442213005,0.0698890418448716
-0.0013934157674779827,0.06487446676890135,-0.02461560509304567,-0.059712643357103,-0.058632344068331045,-0.11537448603328536,-0.09507741325609242,0.03318878785989849
-0.01673585973703568,0.027952450152019533,-0.05609678361690214,-0.07617886106272792,-0.05448285365622297,-0.12548371642368536,-0.10555364483340501,0.00568496817389551
0.0036382606596262225,0.058939215872559306,-0.020205767834624,-0.053125585355182345,-0.05490567289485272,-0.13201737075118675,-0.08814530797743782,0.016756469501274126
0.018752058766715672,0.13042295449769345,0.01211015576530235,-0.032937115874787516,-0.028974179976678487,-0.11014091726415005,-0.06979948529204041,0.08219318605276014
0.01787441341670091,0.12189805843605374,0.012026886871809361,-0.035067619550994814,-0.04394233428207322,-0.10765870776633386,-0.09144881949203393,0.06999360805920847
0.006467707087177391,0.09694534569600645,-0.010386587626927991,-0.04914068848752959,-0.046004842577169774,-0.11750627219746589,-0.08590700830317254,0.0526288976485812
-0.004638162417038761,0.05435996114041558,-0.0363176742167696,-0.06766867114942368,-0.04927026085947948,-0.12726366302347134,-0.09995479059388805,0.008113906164681705
-0.012597662968430552,0.030007413119924237,-0.042665933654792675,-0.08076016741921407,-0.06208270810869847,-0.13446987850656986,-0.10685814776841118,0.004628588834478205
0.02956212418676806,0.1438608161177599,0.032916172710943235,-0.02082007827608616,-0.03230507173032521,-0.1042990354911948,-0.05929737061788752,0.09837962237439586
0.01803629001053506,0.13954731040154053,0.021724129499147097,-0.026109564363503902,-0.01729951396688574,-0.10549333082047738,-0.09172389992426222,0.09207921995226234
0.021826962978771174,0.13648096306246515,0.012376022386268812,-0.03202285256871388,-0.037596579111603835,-0.1112997304040514,-0.07423035275777069,0.09320421232440257
0.007546913160439365,0.0902091580662571,-0.01107327345382106,-0.04976671989132456,-0.05274489440949069,-0.11831175772096267,-0.10162721748312567,0.042408853767087834
-0.008297292185397074,0.053052243914007514,-0.030216467024825305,-0.0687531094606932,-0.05754943177731342,-0.12780117894102416,-0.10887344234783237,0.008484019714387621
-0.0053043289859789535,0.05068589079155881,-0.03726713316452273,-0.060741045015490984,-0.056513090777191265,-0.13008832142997082,-0.10874864871243708,0.004340099010523387
0.029837741375715158,0.1544099915693789,0.036155906603191235,-0.016678116747084824,-0.02317286614851904,-0.09793611153322587,-0.07513677867015472,0.10777373438881808
0.022054111565345143,0.1460149348336937,0.02697433173675451,-0.009384846639153933,-0.03893623193733131,-0.11280882873261344,-0.0872080539829545,0.10145841567978697
0.020260371934408307,0.1495445773059559,0.02218437950095334,-0.02785468787099752,-0.04055396118996718,-0.11768662748931441,-0.0780785461078279,0.07832878177551109
0.005560990550030955,0.10237362274588134,-0.006538657009560755,-0.049189771449815456,-0.037867782573166156,-0.1277607307752588,-0.10161637834154297,0.05762140209334658
-0.0029833158616222578,0.0663426503337102,-0.027155744607212543,-0.056063157889625084,-0.05220003640595722,-0.1311088581853943,-0.10048364706261473,0.029948317016459097
-0.0034283367239237314,0.05327515508960635,-0.032244489319035355,-0.05348170064990508,-0.052815501296013784,-0.12845840871845124,-0.10001339642952399,0.018681674291622218
0.03246481683994689,0.14597428352823666,0.028564643135215128,-0.012658980272154265,-0.03852779129406551,-0.10065769314664338,-0.0743719476546189,0.10220590906942956
0.02588642839623186,0.13084930381371077,0.019367231069154483,-0.025137017558484912,-0.0415588807456891,-0.10652129314139261,-0.07546438110619383,0.08651424584508056
0.01846404251018147,0.12343166054569485,0.007056235870164353,-0.03386894688009716,-0.05323173681803701,-0.11622176556481315,-0.07650291754709343,0.0748756406129347
0.00797074658338702,0.07785129047728333,-0.02010683223605171,-0.05220802356562598,-0.06211156668024959,-0.13105497679114866,-0.11308297439992482,0.038148595052664415
-0.004689479035682238,0.05272388665746961,-0.04044626795932898,-0.06775611774962192,-0.06026897537197437,-0.13415260235495988,-0.11762691757555715,0.007253133806757653
0.0302025210636218,0.1265011376744168,0.021286602472367463,-0.016904623089425346,-0.03279512166641219,-0.10148243938545808,-0.06952430007450637,0.08995322546064509
0.02714834881727282,0.15646209658259366,0.028680955347118894,-0.02002765890741146,-0.02326715067100075,-0.111714579019811,-0.08239491954278486,0.10170942349592602
0.03238798521682016,0.14861568304565065,0.029958039031898285,-0.01582120135501951,-0.03686550377683757,-0.10424433161386543,-0.0737190589427273,0.10501732488663441
0.013368334799478167,0.12076681020370007,0.009690996452390476,-0.032490544075685975,-0.047443688211233896,-0.1179990882490184,-0.09805002264942342,0.05928056236801071
0.0053689022250645105,0.08380281169374434,-0.01622352688177957,-0.04689884679527634,-0.05668907085503868,-0.12307882917525707,-0.09720873625923995,0.02189829344220504
0.004300250676978636,0.0682733220963277,-0.01708246096663602,-0.04878832295643918,-0.05692099194082442,-0.12687694843975972,-0.11033134350195198,0.03538827680291208
0.04141589542025868,0.165324763275108,0.04411621763711416,-0.007227301777752731,-0.027207594191553296,-0.0996879187609022,-0.05951446004501666,0.10430110690203714
0.03690243741155909,0.1651144831910139,0.03306237006286386,-0.012551878212892912,-0.029795560171820626,-0.10289774917146226,-0.07923660310561183,0.1062337499619432
0.023032599939940546,0.15564020926555897,0.030464826960466422,-0.018327427412111803,-0.020878631656376604,-0.0989687047386476,-0.07803026030161479,0.1081026520743937
0.013341342952681957,0.11104021370256748,4.714642816095236E-4,-0.036348156843748106,-0.03991088441685527,-0.10903025688942238,-0.09214296251784412,0.06091937433607655
-3.9098312787611613E-4,0.07634744970428874,-0.02293917530287054,-0.05198004679879187,-0.044701650016140786,-0.12474501311469613,-0.10577604220119705,0.03037159510778443
0.003537259280971178,0.06047369812265614,-0.027210918637026328,-0.05615891095434543,-0.048444164146785366,-0.12802232479428016,-0.11014278924175325,0.014410607740597436
0.0311629745557999,0.16196531322770813,0.04584770517313384,-0.007920768474927432,-0.0287731721699452,-0.09758663728088308,-0.07727636443368638,0.11238725654391261
0.024007943164245225,0.16089622134016,0.03487536183076191,-0.01471393004804583,-0.03094371364944742,-0.1088957302376262,-0.074021458313035,0.10728465178986563
0.024516800499280296,0.15331534772125452,0.031012132416600554,-0.020690100343529808,-0.025355963850917634,-0.10539358620493469,-0.09105563879745918,0.08838521379325154
0.008446944205192207,0.11223236587168589,-0.001861107179715273,-0.03976346227383375,-0.0494599526510974,-0.12058606917377251,-0.10703172089614954,0.061392745838853895
0.002913199524260617,0.07883625902069437,-0.021762105174873692,-0.045705099032961195,-0.04746280018855074,-0.13639233952607296,-0.10911081573013082,0.02913450678961573
-1.8368289903471533E-5,0.055801069257009624,-0.02556114546607315,-0.04026146269227693,-0.0594228931092895,-0.1289903988036164,-0.11111608875169368,0.01363770451632758
0.03272187549792168,0.14733137382263303,0.03215833312236736,-0.01758769214531011,-0.031557520208231896,-0.10244646770698738,-0.09459986914587404,0.09007785718186072
0.018543423880682256,0.1318963532251938,0.01826293336313857,-0.024326857478384267,-0.04445499848911266,-0.11107183905641471,-0.10173455343222532,0.07974430027952661
0.015083718020927062,0.11812660819756497,0.002769389809355534,-0.03198294533535427,-0.04201305264668545,-0.12296735297312808,-0.09574515517653824,0.0702789382398658
0.0024604739469823505,0.06773227799859684,-0.028305046641297765,-0.05957484618745708,-0.0464114841750573,-0.13537672926859065,-0.11582815055240932,0.03287802278294234
-0.011059497776101556,0.02977984468984983,-0.0487915750905708,-0.07664882203239881,-0.061353286486419044,-0.14998534871449828,-0.1266567496162262,-0.004965947504812432
0.015816187740478656,0.07753673325726457,-0.007763005033480802,-0.0366618589604858,-0.043805016950222646,-0.12511875191755706,-0.09334451879487261,0.036619298473658524
0.02690607904811265,0.14055670542253035,0.02534253363024852,-0.025611827022443672,-0.03479030562762436,-0.11062452504308841,-0.0882754966850237,0.09377594911937005
0.022190768959811567,0.14354122272140077,0.022927028834934842,-0.021802313729453314,-0.028596352983696047,-0.11683290631713995,-0.09062217450005082,0.08895636707416096
0.008510405927196875,0.11500052027277957,0.001969385461247025,-0.03709836922656238,-0.0379605433306379,-0.11797461568747078,-0.10486956601409164,0.0786385989542118
0.005290799058118643,0.07370029763293677,-0.03073748586671478,-0.05779685477600874,-0.05925373877261111,-0.13757101472490055,-0.12313656984155359,0.027077154634278112
-0.009699465008035249,0.03557881358239241,-0.05531691284631411,-0.07101031135367254,-0.06856335500732445,-0.13647959025104278,-0.12972379374930398,-0.01919385815633548
0.033400380549713504,0.12537125346904782,0.020247575808601065,-0.023678883793380998,-0.026144983494557034,-0.10723425643147533,-0.08562274938907151,0.07813444420356888
0.019824861902799654,0.13513888788358722,0.018995559093489836,-0.023706297370044618,-0.030271994701511654,-0.11027504845263299,-0.09240854751130544,0.09436238092110885
0.02878936143423056,0.14230477256241286,0.017601072369694666,-0.02715588123718965,-0.03399768723540429,-0.11934999349204803,-0.10194867090456362,0.07722689426715637
0.008047326434010653,0.08936102608203678,-0.014848120543366698,-0.05132484486862354,-0.054065936712140314,-0.13094980809271045,-0.10049244597746401,0.042897039083804676
0.0021069783962461433,0.052895573685123404,-0.044156794303261596,-0.06871994375143979,-0.05783320982922043,-0.14284573086959645,-0.11327918792298892,0.007632120475606101
-0.009964141087005355,0.01745049423261917,-0.05773658227042882,-0.0821994261847336,-0.08079327456491199,-0.1452563726703513,-0.12051733279164793,-0.017165923377128817
0.028516066450057484,0.11720204828170411,0.015975408291833706,-0.029977255950656822,-0.03630164986144113,-0.10455108259054305,-0.09086968379769855,0.06266172216658594
0.02189981047978149,0.11731512210303563,0.01060021904215965,-0.031315352187873596,-0.041758102582475,-0.11316294795869823,-0.10027803173527265,0.08485624787810342
0.02100982736632706,0.11774544020435948,0.007066768097974308,-0.03821759079169303,-0.036176859296901,-0.11110553861298746,-0.10164238766291568,0.07462751210266853
0.007307453392973061,0.08698245233340221,-0.019712706843316236,-0.05187347816846001,-0.055887877762965735,-0.11581937632425833,-0.11490821603185002,0.032642470731864305
-0.009383292867689038,0.04389049311354787,-0.045203133718662296,-0.07470632987570389,-0.06518769730261201,-0.13338143333878433,-0.12033198855054276,-0.005508167463281609
0.020080176127386325,0.08051481611106368,-0.005809070272475481,-0.040083609997913806,-0.04492659235803627,-0.11283576803398575,-0.08573314246208498,0.04396210428687006
0.028879938142854774,0.14165981696659813,0.02099662806322638,-0.025070582085881483,-0.026184195411135532,-0.10536648422637337,-0.0814193134863511,0.09018161487538062
