0.05762682582477274,2.4125110579874742,0.3291264099121832,0.04529600058035884,0.0065745174150300695,0.016554238610372567,-0.07521000478064321,2.8620434120240525
0.43686222545311626,2.4512171109845964,0.8288578810960454,0.534081563920956,0.4480312563338343,0.473134160903849,0.3684911977988058,2.9847871572614735
0.46870168334481155,2.478793116642705,0.8360704409924863,0.5585733772126398,0.4550745420243779,0.4737605666623018,0.433049261408099,3.042300871278929
0.46270304728961653,2.4636589036415506,0.8113529326955775,0.5479374378618341,0.41073178487624107,0.43521793174954443,0.36944899804560427,2.990793143600783
0.33422532045632647,2.512070543877834,0.6642825614867404,0.3852805612180158,0.2323093803022706,0.2761311756384329,0.2190123213926915,3.032479130091435
0.20709071766198875,2.476646285884898,0.5077669861946258,0.2452692283465634,0.12431432143100964,0.15293755013722576,0.09494080210639108,2.9871961116002574
0.0791588626325636,2.506977551972902,0.3638985465733358,0.09102777833702609,-0.005566233477684411,-0.04039486027766892,-0.06583404215725477,2.976914313845541
0.42728549551597766,2.5645115739442965,0.7848427431673451,0.5421222906697846,0.3744111552691112,0.3785111752924665,0.36280326022479353,3.0419292583306112
0.5472892389243744,2.564676949786034,0.9326731764657019,0.6578571582632726,0.5075778794613686,0.5461309975776842,0.48517952953275684,3.112300736820688
0.5615980208998075,2.592041956225179,0.9368202961757293,0.68636689100229,0.49087818058571686,0.5560238001832281,0.5008293332886306,3.1645371112297394
0.46684269971534137,2.6170729965999633,0.8138173185843078,0.5499398149056042,0.39300156317285,0.42845562565789186,0.3643160440165523,3.056867659056643
0.36301751719060366,2.620643091985221,0.6884703149468259,0.4396235028698329,0.30642299693096464,0.252768987368058,0.26268030833730116,3.187013049551658
0.3578562043153228,2.6080432930413218,0.7056285451737531,0.4637154885594661,0.27330582010444493,0.30379684060597156,0.27090276487120657,3.1541472274113076
0.6202364057145934,2.661506177842769,1.015361481866968,0.7491243959503576,0.5667105116547294,0.6219269597444042,0.5846454847698914,3.218571247248712
0.6004016878553475,2.637597925402269,0.9871262963932593,0.7287656414652757,0.5163514440601188,0.5794200436427206,0.5549698902910782,3.2973288463766077
0.5776350861188828,2.672547737919172,0.9579005739474639,0.6849658856566149,0.5039002402899684,0.552133504203381,0.514776611478323,3.228202254116056
0.4413615764179108,2.69897592618725,0.7924688112437629,0.5319840601347867,0.3262648012098681,0.39867723657310883,0.35458076371038205,3.288894900814377
0.3275032017146672,2.708423427245021,0.6429723031932085,0.40088972322595534,0.2377639115115276,0.2717002759607134,0.23569709223827814,3.2568435418814308
0.5784966048535379,2.7549044951558543,1.0001765751744571,0.7353234656000779,0.5208088252203015,0.5944038373948811,0.5761729514064504,3.298956881602164
0.7185376169965453,2.746205149661508,1.138683061866223,0.8795098792321965,0.6578208215128754,0.7315324967533451,0.693557025213437,3.397250830272965
0.7470421436701157,2.814303398151179,1.1471443447829925,0.900153512857851,0.6915634879624175,0.7519001359497649,0.7566830924134705,3.3554648725946987
0.6556339711520972,2.8006538877245366,1.0508136912475636,0.7988713017237137,0.5793369533989331,0.6624196827413016,0.6065718231902868,3.3651503424309572
0.5676880790495173,2.794817261796493,0.9452669004454614,0.6835396091732131,0.4588037109051567,0.5832111437227073,0.5276996139088652,3.3331778050805845
0.4545516898131118,2.8194251198507447,0.8313124272967353,0.550928665702592,0.4058662270797609,0.4407092974797659,0.4372707117907018,3.4087302507489197
0.6853231510023158,2.8281386975038716,1.1427059329682703,0.8660680803518257,0.6649266145073789,0.7194882252303793,0.7014611877921256,3.4096924072964976
0.8366588410472361,2.843380559299356,1.276864895889188,0.9898214373668155,0.7904023309179448,0.8757459547489235,0.8449552350825945,3.5521487041753628
0.8526616666606803,2.8644361070909716,1.2834948730686102,1.0287074883474259,0.7730699438872701,0.8706281315491942,0.8680356243262636,3.495697667775129
0.7679093553024287,2.857522361105019,1.1809687971991754,0.9347997893708925,0.7087503557730634,0.7809375623089887,0.7839553908464448,3.5420198534393568
0.6731827780667821,2.880063173786548,1.0894221190014581,0.8471954477502317,0.6238367874641944,0.7012849973484956,0.6853853238146167,3.5278845030914634
0.5812628781640478,2.891227824817464,0.9849833948194793,0.7258424057506914,0.5025454930615694,0.6297109245350292,0.590170694241982,3.523542109410156
0.5099837262834309,2.9270080270037258,0.933238476946726,0.688832496202844,0.4638184526454974,0.5751651744110492,0.5652671866200588,3.448686843570086
0.8222808567166139,2.9505706880923364,1.2837527080054343,1.0561610329234867,0.8067120243391477,0.9117989145785519,0.8946069557645994,3.5778048804525517
0.850396845542685,2.960496573173106,1.2951973113018935,1.056813752916005,0.7813220626326003,0.9077185115937315,0.9266788551471947,3.6606777839919817
0.821036972254605,2.9936423788768707,1.2689500515627308,1.0221056637630186,0.77405405102421,0.8847855181216326,0.9063040971873123,3.5621260682651843
0.7317386972318979,2.964669635711209,1.1768973192003747,0.9061552532827413,0.681715535149915,0.7731660883268767,0.7722804161753973,3.6235566750460833
0.6282213518433114,3.0162133164739893,1.0763447960700172,0.8076729604633373,0.5706589081503458,0.6934772697921504,0.6728150727925751,3.626545912283795
0.5900892990233575,3.0117750488502186,1.0515054891941034,0.7869595132458074,0.5260393469817968,0.6414439062299261,0.6609676277291443,3.543414597738323
0.876037854450851,3.019023477678125,1.3512124452856473,1.1234335387245658,0.8501404033233415,0.9700461803054465,0.9859777446390485,3.721502332916875
0.8990061931886362,3.015504066063016,1.3686579959654965,1.1132733162247357,0.829282694105857,0.9624616277362485,0.9579794693253831,3.630053214052693
0.8749846486496878,3.08113389743296,1.3208491193408702,1.073698902562762,0.7882309676300034,0.9027776726661997,0.9273387783824811,3.7481157725353986
0.7340491277246812,3.110048534828102,1.1925695013102477,0.9213208521795532,0.6519198831355204,0.7915147385005897,0.8003080372305291,3.7285586152450287
0.6248828747703282,3.087378124561076,1.0775535823006637,0.8187315702179646,0.5613509310103402,0.6885143220927471,0.6595670157029714,3.771385324086705
0.5103679365019095,3.1008069653015085,0.9297466788337134,0.6670683715694621,0.42501838369758144,0.5203242812877958,0.5508794491088611,3.728871175413543
0.49425125801957964,3.1031972487717505,0.9263466595702822,0.6813200043421668,0.4345198014540298,0.5584852551889499,0.5489910806678238,3.6921335810596654
0.8148315361595925,3.137961802465452,1.3115250234693585,1.064301440799263,0.7744696434856154,0.9135162654251052,0.9265808519894506,3.793700048146142
0.811962094395281,3.142007199169947,1.3245028160397065,1.0770471135705604,0.7547307048472469,0.8803243891487921,0.8948468439971868,3.777036975388117
0.7919080091138929,3.1514352932106355,1.2789107434680809,1.0235201965394662,0.6745258920496817,0.8119977140175306,0.8264391443767872,3.8444898301179573
0.6918771054708841,3.1683158813006282,1.1327752149038355,0.8619245673236814,0.5829610648705732,0.6342035679305497,0.6988173002940258,3.8327107344480607
0.5663856128096261,3.182604966223385,1.0082331329010765,0.7491867386614112,0.4626644016225311,0.5442580557770744,0.5615841833542002,3.7812880492253664
0.4371819235952421,3.1842912322189965,0.8781863534753944,0.604733214056097,0.3449826037038924,0.39214308296772576,0.42022818188914224,3.8130624136378044
0.3400898031033116,3.162902006981451,0.7432426276351195,0.47142895947396163,0.21948647528434032,0.30820322697717184,0.3176751906754185,3.8048583966916585
0.6705149457427413,3.194562554140906,1.1745823267482443,0.8994762574459015,0.6227171161243275,0.7021202055589048,0.7023551895395783,3.815290132181409
0.6820168514095261,3.174962094035707,1.1560519519953083,0.8820697366201096,0.6167855018898076,0.6706833615383712,0.7427738288289903,3.8346734133605174
0.6526912872182978,3.2310378425404727,1.164689048072261,0.8637746733354158,0.6020014409695644,0.6805654972097627,0.6718472452102239,3.9075020164267844
0.5417500465258513,3.2451622363256134,1.0077773412332123,0.6803408051493821,0.43622667518531244,0.47212639453238553,0.5286979881227339,3.8822479967037102
0.4296346011581877,3.2446413189970937,0.8480565564368396,0.5587792505223813,0.3321936532955337,0.37458007644733765,0.3585645959637826,3.9054417336030745
0.32294980770447984,3.22329884132324,0.7193122983107406,0.4274840623949206,0.22587488342190612,0.24787201597150965,0.2848385843689836,3.7618410959504045
0.6511303787684066,3.23759484508583,1.1544975551469974,0.8475851955749737,0.5863101293707906,0.6334268828993436,0.6510965982344664,3.846356359358253
0.7058663915159982,3.2638496755752766,1.200510013413082,0.8840195622503169,0.6234893312934233,0.6811698637704976,0.6934073170036825,3.8862474373082327
0.7068379208954011,3.269563888679138,1.1574610207092368,0.8515019182450168,0.6175897430830412,0.6247605253186614,0.6171275928619733,3.981553623184901
0.5739979450244231,3.2876994249154614,1.0019585853665156,0.6817653719082839,0.4488962673105393,0.46827326272358616,0.431934889109079,3.828200572472603
0.4296554372805468,3.271490312867018,0.8305307506317432,0.5395005202704334,0.31773605097094554,0.32778129696725183,0.29244825798297175,3.961430509010074
0.28195964586643774,3.2471655332036065,0.6839064603549271,0.3427298613091742,0.14289586218327754,0.18188375680894767,0.12620391595161912,3.8740259029739255
0.5199467071012827,3.26015334308242,1.0048701676573712,0.6916228544125795,0.4312343329867044,0.46639138438840155,0.40940208172927756,4.001745148386813
0.6898887424913263,3.30192244558884,1.167588884152361,0.8465148543821284,0.6151643742859496,0.6437581361721987,0.5930345708118522,3.8803804348057134
0.6956296888353142,3.2946021270054238,1.1719402404287265,0.8094125447464118,0.5957048897542973,0.6021429631202666,0.5887684262249666,3.9356585339868535
0.5862737721907761,3.2580052157467216,1.0202766784091275,0.6795831013518738,0.5114415043214298,0.5116101756116045,0.45754556674994207,4.100124377367176
0.4373344781048521,3.295678040272184,0.8456061010003336,0.5229256638728421,0.31202061232342365,0.2894948943616671,0.30343862042643116,3.963838086698127
0.298659319837744,3.2810224495470743,0.677689888352672,0.3386130588199254,0.1739483918642293,0.18790993858770286,0.15880236381357515,3.9611339197835784
0.2117474029077734,3.226666608288047,0.5874735077801724,0.27349286118332117,0.12387835450097034,0.09391094406695633,0.06633099374282399,3.7879178803704696
0.6023383941343662,3.2646394640261835,1.0910404743689766,0.729749852944459,0.5444334665154618,0.5556142376784026,0.5067372792977595,3.8891017555564655
0.5951253971701175,3.253905186853021,1.0734288739821416,0.7329607883179673,0.5259667343739931,0.5452464298317163,0.4820762955713285,3.933308838874891
0.5894150690946285,3.293081730581011,1.0201172698549212,0.7113773071503343,0.5067470112020884,0.4936548445733598,0.43182473478713596,3.9259847944070425
0.4670263959938268,3.2830279178128317,0.8753031618014078,0.5371277672167376,0.36033907825325645,0.34993171053999766,0.2721503201230631,3.915724673490666
0.31184507823971913,3.2624606962206557,0.7163097989425681,0.3628815160211252,0.20804054710298941,0.2031346326113897,0.16154137436758773,3.899446930462206
0.2986767453207291,3.2292181782132934,0.6978282410756831,0.3542985511451898,0.17415041639791176,0.16779750779441002,0.13489424187066393,3.9116412340124183
0.5738028461127109,3.262098160372651,1.0390593138397552,0.7063109925355223,0.49048926548881994,0.4972091914944709,0.4426504060622144,3.9032762634286766
0.5103819409856324,3.266226771346637,0.9814453469908317,0.6294002877733597,0.4244398400264173,0.4473010852446342,0.38809250887254476,3.9910835037954797
0.47503759602235734,3.281768597165968,0.9272658411210243,0.5640010430621096,0.34924413552861827,0.3782584429051433,0.33206273713098755,3.9646206898175613
0.31239662278345326,3.301410050778902,0.6956408668005354,0.3477718382405436,0.1813471246298453,0.19692759164151075,0.1428925207057289,3.8538888047622466
0.16890561044256422,3.2491034980724853,0.5367588254365223,0.17655555505312717,0.06661851288422399,0.016046318961993638,0.024640387119510568,3.883068732963958
0.40836427616826276,3.2155012810124677,0.8396150793297892,0.49489341493781014,0.3022335699565481,0.2841458909274165,0.24558240867113665,3.852948136955427
0.5952821451329544,3.264389718839224,1.0584509645126903,0.7026851964164036,0.5007934788283422,0.5062111182143005,0.4641416737469861,3.9233864765808653
0.5991079832286106,3.2899769977959377,1.074038860931086,0.7075874786717629,0.5007354327884274,0.5083470671599943,0.4732267943756187,3.8559686749964
0.5098425282963824,3.285414155840355,0.9317974999858692,0.5841839127276164,0.39119258416326375,0.3720518346780064,0.33067794981418147,3.83290960158846
0.3720853871441628,3.2850514887092244,0.7659037248620221,0.43168237284813143,0.22345451557022034,0.23730144319906366,0.17386227492467332,3.84119832329902
0.2414026714777011,3.2669336929926804,0.6182922374557057,0.26654096531502125,0.09195844340054998,0.10309614361321859,-0.005208987304598185,3.7387490049956034
0.45786863208814904,3.249053421330611,0.9020033824735578,0.5695351153942597,0.32106317722838895,0.33977863088111127,0.28238596173802555,3.761059366126485
0.6251527092357642,3.245826995152007,1.0960606647331403,0.788907299035448,0.5040774080697417,0.5478957076078471,0.48147647712948155,3.9452319168343997
0.6422430830254952,3.268385066442382,1.0975518901151453,0.7880737255944874,0.514775911799936,0.5228283562123535,0.4321177291970623,3.8980781943072778
0.5352850989945214,3.257126909861624,0.9840594554304002,0.6487909698845877,0.4223379812030094,0.4039322327339121,0.3267538657513213,3.843340559929326
0.3956783710654743,3.2589285452513157,0.796453157799026,0.472338406112267,0.20237707096990531,0.24190032846847817,0.1673136725561304,3.833810968482202
0.28469694020727904,3.24644353474386,0.6663698991092467,0.32108094060828823,0.11811443820893595,0.10580777935957097,0.048701547043393585,3.873566924618191
0.4331981298845095,3.2848951384567115,0.876879362297509,0.5566310595413039,0.2849554063187842,0.23618672213417502,0.21310230153183005,3.924737416367144
0.6268867896220446,3.2660237563017325,1.130186275092092,0.7857348360629692,0.501204880635369,0.4981048432534217,0.4843532321470856,3.8858883543166924
0.6424603825532191,3.2554923211872184,1.1113063599436894,0.7818103061172821,0.5162290411153855,0.5101374269341498,0.4494667338448023,3.886224208322338
0.5661242178958334,3.2979633966774733,0.9916431870816943,0.6777460168131851,0.3871933877151839,0.4051419357504444,0.385065226604378,3.8971532743859094
0.4360128250428012,3.2757714419848822,0.8255193390189824,0.4924587104084947,0.26931892728403284,0.26140846925822486,0.22006243931865432,3.806553098634669
0.3848575700044316,3.239568089340414,0.7807828795785937,0.4474403078181006,0.21963707653701617,0.21352529269324066,0.17654947252549366,3.851294477773616
0.7178734535283434,3.2601047158466976,1.1888301399460357,0.8552644302858933,0.5863765500497429,0.5709565096172793,0.5551295151749813,3.9122952549423076
0.7274719509717308,3.2841261261297685,1.189536336374287,0.8570277293481936,0.5584671902481239,0.5839956045089995,0.5390396772641123,3.828620661094016
0.7032014527724115,3.267917915260204,1.174489963134445,0.8456405177946605,0.5402527097315923,0.5646547891891658,0.5082084085871693,3.8717536789716274
0.5866313292694052,3.298584094523031,0.9966220577179449,0.694417464734949,0.39964260576845795,0.37200301269444674,0.35117671557800545,3.837098353378658
0.46498286646990206,3.280973999922784,0.8871058845079582,0.533894203991257,0.2865861613053938,0.31659732101522164,0.23855631410279207,3.8270183320872766
0.4622777992248646,3.2396621999152595,0.8888879195220806,0.5457542930163857,0.28117697132534103,0.27643262350482223,0.2365299371292227,3.7967751740625806
0.755928148613612,3.2930213947540783,1.2533924557520866,0.9041903265065115,0.6215355913492767,0.6447370863546327,0.5904531335113237,3.83687973232911
0.777713975451006,3.2873133221565,1.2567871346976185,0.8927803494854646,0.5919525358979807,0.6246317383848571,0.5869616361788099,3.9325878561676344
0.7564022850056196,3.2821381005392207,1.2038900113285165,0.867743549024221,0.579665598419355,0.5502026173054946,0.5693385037052453,3.9003794345556413
0.6185394755472257,3.278198237976364,1.0575969658052897,0.7435043405616131,0.4265029219028859,0.41368932550156856,0.4176582291556639,3.9197410177326493
0.5173548646889917,3.281157121806078,0.9231585568980044,0.5779142579334401,0.33162802588782203,0.3409888379751243,0.3197640639200851,3.8331007655516145
0.3719336459841231,3.241439003462734,0.7914271965254523,0.4136088128329104,0.19661998348865276,0.16998373224138275,0.17142862870138695,3.786937675707123
0.36358845077685864,3.2297923379977678,0.7674517487183437,0.4547574953394994,0.18237000622214866,0.16974060808695077,0.1716079029530847,3.86169008775152
0.7130614112242524,3.2506172853134467,1.196875831267509,0.8713342518124081,0.5982208974999139,0.6212140591389516,0.5609788334411248,3.7594071596786995
0.7201690257867162,3.212387678940374,1.2165375190410872,0.8818719172441546,0.6032050998320969,0.5750645650563987,0.5446114387069577,3.7674677376017978
0.7216946740774752,3.227637785887949,1.1637416981238549,0.8404130203913057,0.5736610968507254,0.5503789577259951,0.5214522107468758,3.8341893800079982
0.598975688322707,3.1971037912345466,1.0042088093968726,0.6696530403507617,0.41221384747116946,0.418109913730898,0.35653632689700027,3.7709127225169055
0.4658707625326328,3.2178080771344653,0.8723819328596699,0.5331064148603862,0.30033177249967113,0.2891855422198349,0.29159087695093217,3.724194699607428
0.3244634911263928,3.1921466717761495,0.6989671361052626,0.3655844143566402,0.17975063962150975,0.16299249007855068,0.12749757669089615,3.694025879656436
0.25690076107323634,3.1263332191694437,0.6169045153746214,0.2723238100539767,0.10635970869592794,0.06090722013588251,0.0340960482497722,3.556829367571757
0.638073158307573,3.121649605358816,1.1002202064472237,0.7529016795502661,0.50980545363987,0.5053052405211478,0.4880138412195058,3.7190496588448245
0.654805193793147,3.1228713379279918,1.099144128268599,0.7642055320800909,0.5443821362959761,0.5340300447315485,0.45506961016361797,3.727260472242352
0.64885086658887,3.106644980851909,1.0759730405433734,0.7614310712233734,0.5366173538247879,0.5268999657714977,0.5094390948458708,3.69856254113624
0.5355454816311817,3.0708952728230545,0.918186303562842,0.5970874292542447,0.3682617079043022,0.3522297800431945,0.31810844295962654,3.61092525723591
0.4259081353824006,3.054228989135973,0.7994246387524913,0.46373037335088485,0.2705802579764864,0.22006085440560227,0.1907087683545949,3.517323843997232
0.2829521440931211,2.9742465843717274,0.6189534154375061,0.28402415257237273,0.09631348186080227,0.07530382403137598,0.027418684586823578,3.390958923432971
0.4501582769229383,2.9207075905993105,0.8687904469948481,0.519904558669716,0.3298597335434133,0.28339773505061744,0.22313787485201877,3.439579017649813
0.6210560902048721,2.923210557276606,1.0524999700283963,0.7468456726724536,0.5136218233166079,0.4904315144135404,0.4432616295669489,3.4234500390302323
0.6227992295349563,2.8888050735051016,1.0551178562259562,0.7540679932455426,0.4881705269115573,0.4693175624885742,0.45779707881527054,3.3620316169376956
0.5104899173256441,2.896894846822914,0.9289575362029991,0.5985557892221673,0.40745929457757013,0.4018586509322237,0.349669369020193,3.322904399542526
0.3956454842035631,2.8020988934167295,0.746834286011804,0.4409913180696782,0.2756743685651274,0.21991526428498215,0.18086166552094443,3.29687363861402
0.25192417116664445,2.7713710877784408,0.5786509905332747,0.26418053239459094,0.14067284276809494,0.07949933160140836,0.027481822721193757,3.262885090010241
0.4303677279525673,2.7402629251051627,0.7955933263815728,0.5138218987006007,0.3011439265792452,0.28163533217112363,0.23710994643678954,3.280724553284531
0.5757195957179454,2.72475119183386,0.9730988829511581,0.6983990961513776,0.49225035073664425,0.47261389020102357,0.4145607352004099,3.287505062811749
0.5786460083813233,2.684963198285533,0.98866526008516,0.6921614823194135,0.4825899597103602,0.4571928487999841,0.4174049966041696,3.176162750309985
0.4860901438400338,2.6491268305472775,0.857229069285962,0.5806005454825865,0.3718927317706269,0.34048138409500067,0.34208437735677905,3.1193189998762696
0.36114896392605067,2.6214973766318312,0.7056874027546123,0.44660094338794765,0.27698113658393336,0.23068405282057156,0.19282703248149424,3.112000842904051
0.3695462064079462,2.6142806706633857,0.7449436074339486,0.46988760735731244,0.2908367085977859,0.2669045961682108,0.2316591977061379,3.0534626696968177
0.6360817442732004,2.595038208040249,1.0272571620203181,0.7543553665661585,0.5341121300295734,0.5288604686388355,0.48940518467731753,3.2245969342330802
0.5951506332712242,2.5824028522646696,0.9941235483683546,0.7309596470991719,0.5254274078665276,0.5105199941726843,0.45423158696309296,3.1346895212232893
0.5693408969380219,2.579063956191421,0.9407397977570139,0.6766549584082084,0.4520834238039513,0.42320042956489334,0.4270198752437812,3.099971464167162
0.46039399587108404,2.576919358667815,0.8024959002202507,0.5341289067269825,0.3444396988707778,0.31953343454952476,0.29100025830014314,3.0870369013098355
0.4391931375313445,2.5356245720329937,0.8253923501560987,0.5726438253971311,0.38864051015391915,0.3478613738115876,0.30655427855390194,3.0675076228171334
0.7049272574224598,2.546051124835553,1.1179881044116797,0.8734965058992044,0.6577435342885638,0.6045613109817092,0.6412021236763151,3.16157149247397
0.7232157607655554,2.591976555166406,1.1192837366374648,0.8566276145074431,0.627948234447025,0.626841467942429,0.6161625920637146,3.124046625893277
0.6818372014524294,2.578240194389024,1.0571066298792067,0.8032535437496691,0.5660721978673153,0.5849789589174168,0.5410087370856749,3.2148836548271253
0.5734850632009022,2.590674987447039,0.9582855375480026,0.681347254570375,0.4584914771689095,0.4659645646476226,0.4724520601086347,3.0958680295403926
0.494265383606581,2.584399239381972,0.8659402665747307,0.5921909717470965,0.3825033299904604,0.3890845599359823,0.38520025825528337,3.1521170061442447
0.7411990063536235,2.6098250357185644,1.1662917048078776,0.9289846766731619,0.656288955357796,0.6876937082102659,0.6880105093647579,3.179163138944066
0.8151440808510935,2.652463462551944,1.2086841592483826,0.9680825048414824,0.715441141201963,0.7450693033980077,0.7575284523624415,3.210407308151674
0.8071516282409446,2.6882889489688795,1.2137025200572311,0.9623528645506398,0.6990726341242669,0.7315777489459172,0.7432253847282871,3.1638783443722818
0.7189804404823357,2.7197299984614696,1.1165785196080285,0.8516468001155372,0.6057069978254364,0.6165833191010174,0.6496628806822695,3.2825850212850174
0.6257775237213038,2.7125941883847755,1.028385200521653,0.7544010842112522,0.49629920489795193,0.5327258940057912,0.5687795994357986,3.3229534108073593
0.5246486965047148,2.7475281785216876,0.9154506040137433,0.6265839587048055,0.39797264372182267,0.4261396640655773,0.45390011468162716,3.216734585612936
0.7570721294187448,2.7582316097794317,1.2057802104137136,0.9520212037149849,0.6451261564218599,0.6846357453923956,0.7073615405766202,3.337694415561256
0.8757423423432859,2.8461506579333458,1.3131137358016383,1.0350228353618671,0.7715400151767488,0.7947416859939752,0.8128793674626781,3.3590651896916763
0.8742367566903126,2.8494905821299135,1.3171153626155365,1.0460021502971764,0.7827662013899982,0.7899492053027054,0.8473055212026007,3.479128836543787
0.7901918407791334,2.8699292107727845,1.2250895543403126,0.9562100356588078,0.6934631701729145,0.7107155957663541,0.7561216782757629,3.6442134819375296
0.6999297751988598,2.901719009247599,1.1243465380090385,0.870352613548758,0.6020430956223578,0.6271769525465914,0.6733839769982358,3.5593559599024553
0.6004467142835178,2.9687591856386537,1.0439847282244252,0.7587884735707093,0.5314524475066545,0.5269595207596471,0.5654877720042967,3.496955937999562
0.8221557618445768,2.9564909996971562,1.3266800564306829,1.0424952187714918,0.7380081401604864,0.7438106583266878,0.8147373945844875,3.780873546328726
0.8515289734651905,3.038699979061202,1.3416186124238834,1.046392284672394,0.7631545049777458,0.7926258434064517,0.8541329637359542,3.7249900074887936
0.8389595286034306,3.0949097343216967,1.3023027453929525,1.015954421031798,0.7773730497837065,0.7587055671456626,0.8333631660078403,3.7669576271817764
0.7208750599163167,3.1167034900326454,1.173041971473782,0.8953848980646001,0.6442272499459427,0.6466727825387767,0.6901416593221187,3.7519374037788027
0.6448128409005258,3.1537605639619977,1.080120514615902,0.7808498145875041,0.570497926106537,0.5523136874672893,0.5866547519194755,3.8325160585195492
0.7189821893140587,3.1318448320607795,1.2044768945409248,0.9190560038164313,0.6553575166480736,0.6623663469147633,0.7084084543381136,3.8457330068909577
0.9097737834012547,3.2335148141235397,1.4104989139195963,1.1200001869002008,0.8286182719410388,0.8553308827755083,0.8954161128641521,3.966400334336008
0.8991574958444838,3.220631420342118,1.3927590263252967,1.1097494234663816,0.8051074560663882,0.8413699115444127,0.856437188791476,3.9251430336475632
0.8257306638409251,3.2619366204004643,1.2960722293599016,1.0017694838303162,0.6965369022945836,0.7305015362760798,0.766662946491958,4.031211495000636
0.7112741688252648,3.283247481940518,1.1638405176147253,0.8571856244083527,0.6111699850957439,0.5757073350815128,0.6435632764630568,3.9476748866468245
0.6854411258735961,3.298260132787695,1.1571245929417653,0.8868298055749178,0.5953415410312407,0.5759387626580493,0.6174544234592357,4.0313857595726486
0.9223228033480404,3.333006741616302,1.44299924179587,1.1469625343094736,0.8023547446945251,0.8799608498781883,0.8841470629152489,4.053008261361309
0.9205679758320513,3.354589711194899,1.415412630496316,1.1008665886250846,0.8140488157877082,0.8228990747603012,0.812693320984259,4.021760680661989
0.8552831820880681,3.3453011871750027,1.339473683000349,1.018455674597255,0.7476544198808174,0.7272367446269149,0.7732932438082433,4.0594682780570635
0.7213002723978034,3.3704396264583005,1.1869355797444558,0.8577483537559165,0.5822290074508863,0.5465111373819863,0.6158214019260999,4.0875491735649305
0.6290436054027108,3.349114350090365,1.124738069384245,0.789308173054323,0.5148453301320398,0.5001278350095274,0.5626488460095389,4.070991979350825
0.8952912252968213,3.3755214188615144,1.4214724722650955,1.0994374166853,0.7970197681330692,0.7896478931940023,0.8430694494164552,4.053032597494459
0.8886504691449076,3.3610909875097006,1.3967258220047105,1.0933702465339763,0.7353778495110713,0.7529184111970418,0.7969241552001881,4.161879486647661
0.8541655041155303,3.3518614185317337,1.33688865402807,1.0212839534706015,0.7021322479967714,0.6861509852261092,0.743386222718956,4.135419412005881
0.6976994382006584,3.374827865491423,1.183331944053794,0.8419784111035254,0.570036465297349,0.5345338043927483,0.6037338340383223,4.048432610566208
0.579669786653237,3.3678062905748885,1.0215847149001456,0.6781405880962684,0.4301245769383975,0.42989152328806796,0.45531446480746623,4.044692893595535
0.4028316596027692,3.360910693517671,0.8435621633789554,0.4738190228889616,0.2853157775211953,0.2678307827876671,0.2788578669940969,3.981984847157388
0.6257318639662208,3.3380947005796155,1.1012671697190741,0.7879011250307569,0.4786548664987785,0.497467325026453,0.5026915347160053,4.024715781181017
0.7878374078633501,3.3603324541703725,1.2825777797543982,0.9611609348759372,0.6737471562333218,0.698626497374281,0.6738040988562255,4.144789795280571
0.7841164376827185,3.3542211286069863,1.2852644439952234,0.939781429004044,0.6633662911834762,0.6193252281729648,0.6663903764006798,4.123593522794153
0.6818734739403387,3.357674493408226,1.1473205110145612,0.797681637559384,0.5340752790285451,0.5372321437544988,0.5347957213448741,4.046004462590362
0.5589592590502304,3.353121069039904,1.0034053071568565,0.6316894044365289,0.3932442193735675,0.36509644430736543,0.4069703979355749,4.010879435871864
0.4078455486599586,3.3563674227129368,0.8253449786345474,0.45886692267512946,0.2667384706749681,0.2576685812710208,0.2690028244223979,4.005423257622418
0.5648729939858409,3.3239921849898826,1.0387163947441422,0.7107181650154678,0.47532064875726937,0.4097446956168301,0.4032905305466546,4.035062820264307
0.6886326899827944,3.3514931514313537,1.15618775983561,0.7968268808639086,0.5351201556176742,0.5212763457222374,0.5114884490995497,4.046163603115821
0.6302527363108805,3.3582798188845393,1.1024078091729967,0.7601670706002365,0.5122476715372428,0.47883405879194485,0.47330874859695926,4.005060907351556
0.5072586049425113,3.377556356580698,0.9411232709017463,0.5628771027394233,0.343406677066548,0.32096658435596054,0.35843746554160866,4.065458373120953
0.34875013373243885,3.3538577671722334,0.7601118483152103,0.3868726621511852,0.19762518214008767,0.14072643095075318,0.17105202823182267,4.073882138440804
0.24471407483605992,3.332464049611932,0.6312969770838432,0.264763054373566,0.10425824051074968,0.06910516462940132,0.059951271250212185,3.961158729914843
0.6188422012440902,3.351712148507333,1.1249204963986548,0.7772459115730359,0.5489672283550856,0.4888330128202114,0.4927844417048157,4.047913382352566
0.6395297989392364,3.368181167422023,1.1110992351557523,0.7668793001839859,0.5369588900889393,0.4773556754749805,0.5151418595857675,4.0289623398174434
0.6251593506324372,3.3379181453415447,1.0803351247274386,0.7337056045444614,0.459918610687672,0.4583753863670946,0.445253329152222,4.011026291451057
0.4730437348847909,3.3576696255832594,0.8831767152210894,0.5232405849632669,0.3330459279087288,0.2831996478553479,0.29407104295015823,3.9329199580445215
0.31008528009450304,3.3228206402056677,0.6973590438515387,0.3477923892323197,0.1457141262363437,0.09696116910689703,0.10284178692784879,4.000963286810505
0.21474827388259382,3.3329004922863787,0.6023989916820511,0.26597585065761126,0.09385851984725802,0.02818580751949049,0.01734403082987696,3.9563720134912166
0.6293834497504387,3.343488858626365,1.102090250024776,0.7583587862525976,0.4830607442914171,0.4492612368440535,0.44607251100194345,3.9948832121441833
0.6095544834366728,3.323304893110962,1.050831911148678,0.733745267184593,0.4687748973211355,0.44032211095989265,0.4549667781140125,4.016286628606419
0.5760095348733046,3.360923613295694,1.0127990479313906,0.6573831672862871,0.43519939990307277,0.3668524924407798,0.39632738174138105,3.9638848007592973
0.41349876188997986,3.348203684082384,0.7968792054094864,0.46754570351730357,0.27449247940192095,0.22600789775963276,0.2122589604203568,4.009170768076744
0.2478660198497394,3.3691835943316026,0.6122471100047118,0.27188482063278463,0.08137052939553319,0.027054873821759823,0.029912189750063663,3.9343971612491755
0.1036377183022638,3.3184195080106957,0.4580537959742242,0.12612139622260504,-0.0035631607331937463,-0.09063671426508481,-0.07408050643633349,3.9818045606066335
0.5142128939049563,3.354994829094519,0.9928389065967098,0.6390367385572527,0.3984986309720442,0.3443024767977362,0.2901549462107967,4.057969883328766
0.5263609023778182,3.3651126070147113,0.9989316723653483,0.6378951560763284,0.41138468576045184,0.3816555314300591,0.35932439701639873,4.03950709585299
0.5095538066310891,3.3532011504882338,0.9533252831136011,0.6039379255399561,0.3721069698840101,0.3282979776092186,0.302218167020002,3.9669074981197965
0.3510502823023396,3.3662868798184133,0.7656937937106378,0.39955606535647253,0.22228585928567066,0.15727005176130873,0.1624258894913694,4.031894283509748
0.18707847687271764,3.330593986923024,0.5497152526165641,0.19797685583968305,0.060697579878579294,-0.0049227978489449166,-0.041561524253759176,3.960445084893234
0.1376963566491294,3.3242086214440825,0.5161530808494897,0.14666464975347865,-0.0049998736051935925,-0.04748839801549189,-0.03148427965693047,3.964050548275224
0.4676687309625789,3.355462620619742,0.9574931020916477,0.5753582105908264,0.409879392979256,0.3290785281093456,0.2994939360459742,3.9729670113899633
0.418579588665704,3.341290300048494,0.8645194550790642,0.5160417694933002,0.31392577194543797,0.25697477551195935,0.24669606457938953,3.9460774513983394
0.3737226821427064,3.342416984904616,0.815336521918615,0.4294363012949596,0.24984911905683835,0.22461411250378913,0.19638862797537768,3.9594819349585615
0.2042471529819808,3.3397579556813306,0.6036350961217657,0.2331300910137228,0.10365569532397914,0.004826808253456465,0.03346933471017805,3.9689236392559617
0.21635297426288394,3.306465078033417,0.5794038407937858,0.22698521643539718,0.06970158260858231,0.015639459174412403,-1.1729999434009045E-4,3.9647520295251217
0.5067300876298811,3.3173208179916736,0.9725635847863419,0.5973707765328213,0.3797415497071097,0.3862330662587936,0.3617844735079928,3.9930952084971576
0.4538560502610675,3.3300597056002474,0.8903451202695536,0.5160825407458863,0.33699867317488147,0.2724604024797469,0.27250797155131834,4.057193151589169
0.4025039460365914,3.357803172071682,0.815156666510106,0.43635572564200564,0.29517672178309523,0.19886724056419397,0.20535337621144334,3.9338752535170154
0.22923287132901796,3.3304935879148685,0.630682347230763,0.24825024422248293,0.10099093513451238,0.038642275154782656,0.03934780007272334,3.934653417690607
0.30151095544931905,3.28313090677604,0.704990635724201,0.3302481993686362,0.14271588726531562,0.08595982974477832,0.08796133790391311,3.890566536092723
0.5808544208482482,3.3141252652049236,1.0626851762128724,0.6883900293962382,0.4728696509824281,0.42919944976990393,0.44578335502941185,4.0153130051718655
0.5782490872732965,3.313644321689028,1.0316815608152539,0.6417253617465273,0.4317655802458816,0.37921299785829987,0.3980016300120835,3.9669337476777162
0.5311696366940225,3.3366678792964075,0.9567547497712334,0.5901936881549612,0.35516668879724694,0.32749631065212886,0.3412299834366703,3.987613301599402
0.37450664792774263,3.3049421886146066,0.7839414876265545,0.40715194390499004,0.21316265949611163,0.19888245217258235,0.18875937016889838,3.9249425017997357
0.34605439239980385,3.3015335376950663,0.74449250762669,0.3781673151130486,0.21455997652514602,0.11684746972474536,0.1439152475700555,3.8887422500994204
0.6778930216636057,3.3082006945713176,1.1424912103604763,0.8003902550731549,0.5685470774624447,0.5220390277373065,0.5136087313425518,3.9197796473762043
0.6916240229591157,3.324124670391412,1.1297576223120644,0.7873759021168152,0.5504256648423005,0.513622019969191,0.5378311239729864,4.012713789122967
0.6770477930013008,3.2916519814602725,1.0937800527742874,0.7569333798713457,0.49790982385522586,0.47993518821431186,0.48622720654368295,3.9805453796784245
0.5538483690689402,3.2909446780682274,0.9592462583625768,0.5955940988187591,0.3603631993364352,0.3628987707489345,0.359987280460695,3.917325419020466
0.416027643999318,3.2444085247169245,0.8220537409809047,0.4685473773761815,0.24443049188552018,0.21868434919491897,0.2268698951967916,3.988450108289051
0.6017841631074538,3.2752656872163786,1.0472524787942126,0.7266470489376781,0.423858331881662,0.4401067538041875,0.4649898866350305,3.8692003200588903
0.7466189215133949,3.3216249387404244,1.2017953768906564,0.8668824094582841,0.6024040902991559,0.5835196267692242,0.6354776218644366,4.103845866386305
0.7468265728045645,3.3192654168177547,1.2094415529990319,0.8670349065945504,0.6045601677822132,0.5672537919154417,0.6294851434344744,3.9502494729790865
0.6621286221010525,3.3131266654379212,1.1247326061046303,0.746926139179866,0.4936556505753736,0.5012594350831637,0.5455495786920583,3.9764473893773027
0.5653426069411445,3.3191357418065808,0.9596065319399361,0.6157690902331545,0.3595075079202355,0.3367052912936756,0.40192911747569465,3.9262874520121405
0.6562862876588222,3.334157356818189,1.1024124279322858,0.78565783047082,0.5109076025575298,0.5005562129164196,0.5438671152467074,3.9856882238563434
0.7583831824927371,3.2927782876399307,1.2417386619622608,0.9037629528678616,0.6253324778817771,0.6060923017326657,0.6736249942424425,3.978893717052527
0.7477565118417274,3.3151558544529482,1.2088996666306748,0.8668372714124611,0.6045920232436798,0.5940591348277737,0.637069604196598,4.005741067045646
0.6582034422470191,3.322762186867368,1.0992929740186472,0.7509868138098031,0.49801562528714394,0.5246944997395149,0.5541741983469344,3.908335796765118
0.532548497176535,3.30676676723376,0.9334696379439534,0.6232066926977063,0.32922891468466386,0.38382394144977916,0.4091761414073074,3.9403445518161044
0.6060855763018899,3.319947560770976,1.0648839125618257,0.7300167102785973,0.4785601559293234,0.48868431320075223,0.5130361746961989,3.9778417315210075
0.8424045558426897,3.3537158219189664,1.3248779902422247,0.9889454985496611,0.7216796948944261,0.7275501252622939,0.7972947854180481,3.9932470078120357
0.8395026036351126,3.3086070351219328,1.3259711365193427,0.981217520790978,0.7107727439427497,0.7328132613227839,0.7730216901961356,4.073889225118919
0.7840285563849133,3.3026694164779355,1.2469051063932628,0.8980572236535457,0.6353608893172565,0.6548219045547125,0.7243877552944931,4.067329513895405
0.6562887122249704,3.316060287598448,1.10194611988373,0.7653399594282689,0.5139227158397073,0.5206220607193521,0.596080458113948,4.012286837531955
0.562209651541195,3.3535559026247084,1.000910049376767,0.6756526821636262,0.3880134812574033,0.42825999134750076,0.48663672159158955,4.022667180927848
0.8745695644548713,3.32122458859422,1.3543745253021189,1.026803670042403,0.7237488637999332,0.7474501125729391,0.8422448855538831,4.057752140034735
0.9076072821187221,3.326929372340503,1.3740606598575056,1.051697896866347,0.7433849638230098,0.7895670248044294,0.8740315987556451,3.954447850943923
0.8842841952263041,3.3306233249341064,1.3615318168162616,1.0272158703234544,0.7327738073306439,0.7706566982840423,0.8875652887511292,4.044969340216477
0.77200775316284,3.330275800837932,1.2156510237838847,0.8880374044713597,0.5794992748610609,0.6390752540707292,0.7072078817428951,4.054010966468991
0.6365215863921697,3.3629346339098265,1.0905403729966892,0.7483148043586951,0.4854639521040675,0.5353796331646897,0.6113505058737266,4.01643928204303
0.5158643545889374,3.310589682987602,0.9501252568516105,0.6004646650122354,0.36583857437716993,0.39194299547873523,0.4140901689677715,3.9706063338090063
0.749167220493213,3.3052354991598825,1.2416164039359348,0.9040103876137603,0.6416340719136883,0.6695647677637487,0.7019476770092333,3.97109541494386
0.8588599599883209,3.3143766852972556,1.3460408674240352,1.0010000651615074,0.7419687127042279,0.7668943980664565,0.8596020127586483,4.034592439123522
0.863409743293424,3.3099185193264558,1.3449428341273404,1.0182285637702644,0.7347314176223821,0.765493010281668,0.8411728778397431,3.9942046519486354
0.7647571414383504,3.3457307221811337,1.2291403854609277,0.8763144945811456,0.6263947507962055,0.6372308498725872,0.715098171373695,3.9546019810428232
0.6420664858270678,3.3131314532373546,1.0913587261633928,0.7460234231253159,0.49749979236299674,0.5156836199064165,0.5856027050063519,3.954021376849804
0.5717993486708319,3.340117897006062,1.0249110511590687,0.6709488713692546,0.4334874523385263,0.4560561250383765,0.5655682216369851,4.006743027495998
0.8430498755935701,3.3351521175603347,1.344822875678466,0.9938324237764876,0.7310642844168689,0.7552499771733177,0.8246162604987055,4.038907739933173
0.8193981600644131,3.33677337405685,1.3057291492275553,0.9630793318761217,0.721240536830037,0.7090270087678036,0.7980992208366892,3.9889065437862445
0.7867460338553657,3.366846120364187,1.2641491421411613,0.9044341560167887,0.6445348130723553,0.688392261995637,0.7310012239154525,4.032348678629022
0.6551220546283945,3.359435446617487,1.0952318654736115,0.7463125504488597,0.484167496714387,0.5187406989422841,0.5823617694729982,3.9820138507844574
0.5076251680844687,3.3368354464632692,0.9371192972228011,0.5738328204260312,0.3702235132457765,0.3426975667538027,0.43272304423772223,4.036689324011876
0.6048931486259451,3.3415615967559855,1.0694476524654106,0.7241252398275336,0.4698010616296464,0.48008530036819524,0.5348831820822473,3.995440664651919
0.85735896189003,3.3593258287013112,1.3584623968867109,1.0162223638318502,0.7420014435852031,0.7538319418561185,0.8283038302468687,3.9579408888802976
0.8492579354393595,3.3342767428458355,1.3345458591426727,0.9875067274873631,0.7449388861220495,0.7232611383699565,0.8102447174009636,3.9784188147124055
0.7827286561160529,3.3145336871779825,1.2459970837189887,0.9007992277773369,0.6333900773335464,0.6208240561496315,0.7306596646104501,3.9616679263595462
0.6583343247891027,3.3364149195885937,1.0941541275764592,0.7293486796986078,0.48223187534852313,0.4885130536968722,0.5517360149115019,3.9628574282317457
0.5201144499514785,3.3272126544003746,0.9326805111356946,0.5897342873590687,0.38242024227295646,0.3683006952113784,0.40826841772476924,4.026771452236666
0.5501663934172354,3.3341194312145994,1.0001443406697579,0.661989266220526,0.3916622611648222,0.40482097850038684,0.4748920163839308,3.9662995555859726
0.8444222337180645,3.3226722290662467,1.369181695660017,1.0138182028856746,0.7217486587226037,0.7519937069316555,0.816270459196884,4.010633133953973
0.8464696579251991,3.3453767777382475,1.3355477149063586,0.985837364049737,0.6981779487619534,0.7199503713392027,0.7884729697807284,3.9702298796353053
0.7794267022521487,3.3615131578464506,1.269560917530052,0.9416521352827385,0.6135739672904024,0.6526196376468136,0.7084579744265916,4.0235444602299815
0.6513821111265468,3.3662737159780995,1.0724908184870576,0.7421942772256088,0.47775849706799733,0.4708494662262258,0.5315318879056156,3.960826087940298
0.5144089773995054,3.364809412344489,0.9544911213306871,0.6029215455475176,0.35930912699398815,0.3574216376636726,0.39398209617237584,4.056604228095577
0.5176481949493442,3.3211309292877247,0.9784829948648676,0.6459572176234732,0.36943527898994344,0.3938982673000005,0.41533477787798384,3.9110769272570955
0.7852293806388206,3.332576727993791,1.3048602354003267,0.9886176543373985,0.6879640443755229,0.6645047944181541,0.7213643487090715,4.039974564093667
0.7743854340931023,3.339671415150773,1.2666576998690235,0.9327707076885637,0.6542470339074892,0.6261386847388047,0.7292931843575376,3.9253525582611832
0.7207024417688384,3.3810651481554,1.1919655507735392,0.876209317126185,0.5721986472777085,0.6042509839589238,0.6523867534875799,3.9976838178846608
0.5742811740094986,3.319407133655846,1.0187121635368437,0.6872199227524267,0.44434949441608274,0.43682474101227775,0.4870351717983379,3.9665926044220905
0.5284745383200306,3.304207409315296,0.9823529852163576,0.6454217663705809,0.3890751083403639,0.382062263206049,0.42587750924961876,3.911276168308283
0.8096124926984973,3.298285895359501,1.3108551013177006,0.9898485899889319,0.7299080027886158,0.7347066901041338,0.7832920944667254,3.966773550567033
0.812328174033784,3.3449111076292266,1.288100985861593,0.9578341737469966,0.6700900200695497,0.7068454777938062,0.7685796440987784,3.997961023163067
0.7513777711047523,3.301225445395101,1.2252247155137221,0.9075486170985771,0.6045214044081562,0.6111730752490001,0.6849442190627435,3.9446886771656375
0.6174700297460578,3.2837014062884995,1.0553116433181744,0.7516786191735465,0.49556783392497017,0.48589569499597846,0.5271040310435648,3.894312792372949
0.48061376004456,3.2722155122212677,0.9232806658204656,0.5989174195929543,0.3489959216000151,0.34860946356523015,0.39617030650428864,3.988274831556571
0.7317093127074746,3.2527266381251967,1.234951798655983,0.8986172037380047,0.6195986836052388,0.6509346929685781,0.6808375851901984,3.866017591368398
0.8493705545880674,3.2374532641722893,1.3419882972447443,1.0066020134633016,0.7202429409533342,0.7404199830948734,0.7809004911879192,3.877597748057301
0.8398459970655392,3.21692291928736,1.3189315123609737,0.9693541411396867,0.713203498185811,0.7254315922471576,0.7813527146556689,3.790202572732737
0.7185224538986414,3.17508096307003,1.1853424823758913,0.854248188810339,0.562786753449543,0.5806300149298311,0.6274113021802815,3.6923793662029185
0.5856375579408246,3.1240411204733642,1.0223352336996203,0.696869819790923,0.4318268270138328,0.4611781523966597,0.48096463016202534,3.698481630368698
0.5103593295850555,3.055226290201898,0.9363412505748646,0.5915680896840513,0.38284562231679853,0.39419432202199717,0.4251154294181387,3.5728782486374313
0.8124827571923606,3.0046007850016063,1.281326590814951,0.9895728548308831,0.7261682870204408,0.7307861993095746,0.7766867575404465,3.6335681478425403
0.808301220660431,2.932172605584113,1.2810777209515998,0.9511965316016658,0.7080208906984313,0.7239922723611789,0.7483587225371571,3.4757541663198483
0.7869518905387568,2.907739015785296,1.2217088553124187,0.9063879352795273,0.64224384300521,0.668178234819877,0.7062379828592608,3.3562986594236275
0.6373665686564381,2.827894036719535,1.0605002345007246,0.7804370847311639,0.5172631145410888,0.500430076905519,0.5717805214036026,3.295627035371392
0.5203834409712078,2.731225886943452,0.8972534138929613,0.625220313205138,0.389247184837615,0.40118196133076206,0.4521069174519863,3.1163495817521816
0.6497305154531869,2.674801311521025,1.0975168272173716,0.8269678313300187,0.5701652745585875,0.6012736859736207,0.6203607587975346,3.0945955734313038
0.7294705155042891,2.58260442221911,1.1391344479012657,0.8721932643382798,0.6210121248464944,0.6481971065942047,0.6802457910598162,2.981660792872676
0.6885102353294323,2.499346620565748,1.106171975333756,0.8504667529913175,0.5992288004945029,0.5944140608220932,0.6994314845670964,2.870174279708176
0.5841190138819251,2.4127534287034043,0.9421567685059229,0.7226478493658597,0.4613859019087368,0.49169273531899504,0.537003218145313,2.7816482987417825
0.4410258471766894,2.3077747247864893,0.7849153526917084,0.5162812825643954,0.32786381684225224,0.3346599515456319,0.3665928241090241,2.634950157480427
0.48959894668536313,2.21779929373843,0.8580422616121636,0.5987697003735534,0.4093273736293085,0.42775701695052637,0.45419232533535797,2.5629593051130333
0.7220674390205938,2.1932447740125114,1.0944272777508905,0.8661888293708009,0.6309522247349904,0.6789856902467513,0.7424926830588903,2.5017481570270332
0.7044969911948482,2.0941001038878895,1.0515968377100653,0.8306123387112037,0.6217223283993171,0.6297106856080223,0.6851661760939983,2.413533531489773
0.6193673916634681,2.002959391095694,0.9477509043306223,0.751994018479999,0.5346660530974142,0.4908311341972946,0.5690041311535127,2.305097687173125
0.49482177779783637,1.9328603971419673,0.7968807390849638,0.5715246825765535,0.3994112670531317,0.3814110375786179,0.44489826456141585,2.300078934256048
0.3627791927739182,1.8453731320743063,0.6230112081856434,0.45218738566307687,0.22554953003827025,0.26991689018631243,0.3138646204537291,2.1881167375746857
0.5166900676501993,1.8092020689764345,0.8640471230664465,0.6624487593091221,0.46158900288201865,0.4862294618718362,0.515842103114648,2.184706829589067
0.6711480698308954,1.8302917763478517,0.987977803104671,0.8328295443176463,0.5973238420741611,0.6369073118111992,0.6585823579908205,2.08509675764991
0.6568123323190909,1.7870440410421284,0.9617430738205061,0.7852309661991791,0.5916038819467295,0.6080721035437853,0.6533526693377548,2.0235947852730396
0.5455101406880114,1.7400764521736316,0.8360914559315714,0.6559585972039884,0.46252975453698075,0.4448845029664067,0.5237298345534732,1.94737260951254
0.4218323704646373,1.699702161422022,0.6802654824589547,0.5025337862123587,0.30697313369081264,0.29555178775389435,0.37172877928257475,1.8959516873848115
0.29711026827520326,1.682761483445434,0.545277818497207,0.3496466728151737,0.20637923017640053,0.18053729590349116,0.2444960151679954,1.8522275894653
0.3390076691987978,1.6658128284304787,0.605189656164545,0.4296804448860717,0.2596531344078803,0.2486715684539101,0.3047461953911423,1.874261331845745
0.5802865027905355,1.6857864326415581,0.8817371544939561,0.7191431206945645,0.5180729248396858,0.495241884008658,0.5829922814462867,1.9081173084781464
0.5593670911769223,1.7187633994384077,0.859437482951343,0.6809049336640508,0.4843983168127449,0.4866111692888071,0.5204145991268029,1.9639283566870116
0.4989449790765122,1.7469901017280733,0.7825139420992377,0.5608192498550926,0.4106473175513088,0.39593922934564746,0.4304555013174011,1.8782320407173951
0.3490202477461871,1.7424083189529318,0.6154543945263979,0.4159418932799727,0.27105703991854757,0.2185368436679482,0.29045369164895724,1.9198833856609412
0.25722447792539366,1.7570491148827339,0.5203119054255023,0.35000412023815053,0.15161991992730425,0.15220983938415125,0.1809780268510936,1.8959559989306318
0.5540828921742034,1.8434171706031894,0.9073731617957015,0.7048858639266287,0.5051690838822834,0.4900683207035907,0.5625795340071003,1.9397345052679527
0.5801923935782226,1.8391329022304241,0.8956180938886502,0.7034231089464767,0.502681113894907,0.46064684774819215,0.549262659123244,2.062736051407003
0.556883357801794,1.8839937287377941,0.8840114538385054,0.6685964560127873,0.4502006222561392,0.4193369183584308,0.5098848597778407,2.0705885302709266
0.42499807913793686,1.9086897974250783,0.7204158862950023,0.49174528721981403,0.28986726832834214,0.28979506659690407,0.316244068634069,2.079288293268026
0.28410334826288874,1.9388879256995224,0.5693806719472477,0.31512014044843384,0.15832601452682818,0.12569922917727774,0.19302650962491621,2.2488218158181477
0.21109522457467508,1.9887767807235568,0.48838205051223327,0.2702121051771185,0.08912299456898484,0.06043052072317899,0.1333423373137514,2.2113779621404563
0.5830490688888156,2.1211540868272043,0.9537179354938145,0.7276024517451839,0.5377450443319857,0.5017275956134962,0.538790765790567,2.3501325776945596
0.5689095055368153,2.1686676260486584,0.9371888922090276,0.7068623549170594,0.4961105017553715,0.4501935208317727,0.5338372658747905,2.3729726384726377
0.56333782600538,2.1794844974144096,0.9041646638081217,0.6526327095393152,0.4455394388877942,0.40664853599753703,0.4939195777202167,2.4896462061864133
0.389854272149907,2.281313883477995,0.6917269189692213,0.4606389496395193,0.27795676877438774,0.2531030499881896,0.26752477496856314,2.4748327387443276
0.23766119362962898,2.273920553703616,0.5473082507787125,0.27118941414178743,0.12679626051495121,0.07791229975851625,0.11928523665594655,2.493098044901964
0.0853271647878964,2.2459532846567964,0.3929443663649417,0.1129647545650567,-6.406779593210601E-4,-0.05076121669771511,-0.015309749259587774,2.50672229026887
0.45392697758201084,2.3175807164446915,0.8321995194766753,0.5889931390885876,0.38014349182281565,0.36024674492262065,0.37938989344815655,2.485477718199321
0.4794225080050045,2.2929236899818966,0.8613654035945472,0.6225676497283414,0.42831665074549785,0.38741747374743013,0.4148114031406108,2.5157595655398666
0.4793620481441462,2.2944445385197128,0.8298006773059682,0.5829130503779467,0.39200798977063306,0.3424383510704164,0.3999712053119009,2.5746301095074147
0.33906356675255084,2.2667646255214344,0.6557120366418726,0.3941393292963362,0.24439266083624098,0.1837328759407347,0.22316672186091224,2.5387646042319805
0.17969985902180274,2.224133309452605,0.46339112650663583,0.2046493648144943,0.06073640639040793,0.018480926556650193,0.04967228582647246,2.411232530181757
0.20697360627969474,2.1560574033106756,0.5016578723269592,0.2518471819834332,0.11239047027559654,0.04052614990011051,0.09132454728701046,2.3387297916365224
0.4427461923641072,2.1284255602574973,0.823864227696105,0.5829199440720394,0.4076763386686295,0.37495937747633623,0.39364305358773777,2.3153364143264517
0.39376128578817615,2.0363064378375215,0.7009292575909716,0.49062066032595864,0.3088668149032829,0.28649884538102943,0.3352862829217512,2.248125183266157
0.30589559275689243,2.008073521317016,0.6131014930093571,0.37992904309520537,0.23912111923978738,0.19490924690746705,0.2433619759781595,2.1575237315671107
0.1273758957571849,1.9154924053572522,0.3857643735097512,0.18953237195479652,0.04848740940515028,0.017317725336070636,0.009192092591519235,2.034776605122373
0.0011911935057832578,1.7821974936032354,0.2267184643610589,0.03700155816303692,-0.05721383129910562,-0.13912886834179056,-0.08142350498837732,1.8879372198728035
0.3740084059387555,1.7516223656022067,0.6859371294829788,0.4908175798673473,0.31762427944018223,0.3006210794040522,0.31099537914303005,1.7897240041695344
0.3883798617667609,1.6635386601495608,0.6882599665956307,0.48456088801936203,0.33383635594987865,0.29804474444502854,0.3186323505754544,1.7394700412921245
0.3660033587998248,1.549054668507571,0.6291455320627537,0.444326376229106,0.2791374026552864,0.24018371251062867,0.3088005247479075,1.6506620750615315
0.20576814074275598,1.414419020733621,0.42924463866211526,0.25657977775992286,0.1028000326887513,0.0928878999912117,0.1438235431139319,1.4575772762881265
0.03763644455553392,1.2971391258899325,0.2302465131305373,0.05902415690885066,-0.061739390828052555,-0.1276547026681783,-0.06371133135539891,1.3934162934136325
0.207585754460802,1.216404857651183,0.4255288810617952,0.29000259186423455,0.11880385311620241,0.09762823307575674,0.15194712944653302,1.2572507885209265
0.3562354360527608,1.1162390716311918,0.5659681185742322,0.4577393603178864,0.31421133917565497,0.3036767265852009,0.3144401229538259,1.2200981340091068
0.3164553011070975,1.038391254915444,0.5157639101818405,0.42115952622122466,0.2409196571962558,0.23001204032794928,0.3013775814464208,1.1108550977975333
0.22273882083852165,0.9796335906601236,0.3847659445024744,0.27283409656842356,0.14679420838050616,0.09689068214813146,0.17241876700840947,1.0311783076818777
0.07156225106922404,0.883712066839977,0.19616509440623756,0.08125400259919859,-0.04336998622932839,-0.05799840759507389,-0.025968757031515997,0.8812671114256546
-0.025315921841195143,0.7579721901469941,0.1154855267987936,0.026708399115456413,-0.07499178029751954,-0.1133927030478231,-0.07774476933913987,0.7790598600558301
0.3154382874164772,0.7978520055671698,0.48748604946883656,0.41866223635501315,0.251126053718671,0.23034846520439448,0.2610737915889882,0.7482140104935654
0.27072495358824167,0.7667452672829579,0.4089105242797966,0.3355921753747496,0.20247195579010197,0.17449067935933515,0.22580433782054593,0.6474168526244366
0.23796558487760952,0.6793006076964315,0.3760597188979215,0.29692063872378616,0.16636160767415512,0.13571455122282552,0.17560565266647576,0.6339856071241288
0.08661095282526199,0.693993750063923,0.207910625030319,0.1082407692452366,0.0045662425931790405,-0.04466069014421541,0.0030789064122507966,0.6520328564280775
-0.05242798850194736,0.5982494558892844,0.039417429093212296,-0.0474319428436379,-0.1600727082822624,-0.16752003925645467,-0.13099779509854373,0.5792281329061468
0.2320616309928746,0.6460838415580237,0.38154939311324193,0.32912903908549684,0.150301176847977,0.15645355359906934,0.1848395808428375,0.5785509373987175
0.3167180613420198,0.678953877849349,0.47814095154723807,0.4404520937459687,0.27899575194924553,0.2515329181129639,0.30630584792411747,0.6029402497029764
0.33142441840086734,0.68996192976373,0.4825561104325615,0.4300418111895799,0.2565234175895142,0.2452225668655346,0.3056685931379161,0.6847846416116506
0.22988278814644078,0.6969718322670023,0.35776544031674345,0.3021898280467548,0.1260623348109312,0.12318184600495913,0.14732639627098512,0.6285635979350961
0.09349926825597514,0.7092780389786812,0.21135129677845252,0.16362806613950004,-0.020236519512270748,-0.058711315306991495,-0.014862301315987944,0.6221740099677477
0.11950098844692456,0.711074554988327,0.2720329879509729,0.1736573310310719,0.03448682698755874,0.007766785645063391,0.07736821409340393,0.6003163815778109
0.38603548360441275,0.8069403934053445,0.5853784618328972,0.5114281349537347,0.3080591129062147,0.3122952797919138,0.3663857365740979,0.7288799999742548
0.37238714142384144,0.8077342942278987,0.5350746141631776,0.5053095499729094,0.2746440867954365,0.27356951154758535,0.34768334858516103,0.7370631073099845
0.3243458692123879,0.8328605858011836,0.4822231824901081,0.4358620915508308,0.22166203879002958,0.21154635561861213,0.2652064663440246,0.7116618672928823
0.1710069469132796,0.8422548699361753,0.31292188713976704,0.2653013937343364,0.050165992977374604,0.06827000385887773,0.12300114418108903,0.7214378836997524
0.03536512325482312,0.8294236113073712,0.1802892926117254,0.09261406888772397,-0.0493155678751149,-0.05913346032239024,-0.013895285173941278,0.7690510778363574
0.28726694836133687,0.8538677786405882,0.4873234006259176,0.4655595368519118,0.24476874835019719,0.23286772649786822,0.3041172043857095,0.760601911476536
0.35179983086710276,0.9180774831117945,0.5370213413346184,0.4939846787034489,0.2798111440743232,0.28547080725664525,0.36324043005782564,0.7985439616503559
0.3510621212139051,0.9352995302305169,0.5350066106736469,0.4724208277640523,0.27464643685806234,0.27841003125795866,0.34303683041356936,0.8933218330499262
0.21550015346034684,0.9281448551836722,0.3845489423426059,0.3080737236645331,0.129968004427249,0.11514675560124518,0.18619560213923736,0.9170242701126934
0.09431968980311067,0.9005962583806733,0.25434077287676193,0.15614908611435005,0.024030807799503128,-0.02250586128364798,0.07003475801139852,0.9586751929828675
0.35522625471589037,0.9845434307300135,0.5853514895021558,0.48824039430357885,0.2849917849758996,0.2802192453314423,0.36740947836889143,1.0127176439863614
0.32258287238509414,1.039249898318335,0.531265934755065,0.47246232143447314,0.2679787448999951,0.2743573831983658,0.36312513500548316,1.1007536300893737
0.3045724445496589,1.072960938582702,0.5182694785525197,0.4736212592179843,0.25290402677031837,0.22703680255009043,0.2987007200711735,1.0671527111986139
0.20830946956823182,1.1041818268450818,0.37726464752393285,0.30468010394673023,0.11789407824129722,0.1088925149959478,0.17455648043685698,1.0705607769463494
0.26179805732558925,1.1133659114868142,0.45638196913915746,0.3911104869860986,0.17356366859238337,0.17893100480169458,0.2739491335776265,1.0442206046906548
0.3844054861805849,1.2269933821031582,0.628878216364412,0.553015205399207,0.3308246796790527,0.3051276825008554,0.3978703025987449,1.192332310667319
0.34326874783209527,1.2036515516762047,0.5649870703396748,0.4909451834691371,0.28719341715160596,0.2751832621297677,0.34133024336523166,1.1905910448885701
0.23392705755706225,1.225096187986458,0.4571761588104937,0.36059171994757433,0.1754937671175651,0.16390161538318448,0.2257435296663639,1.2187526095612362
0.17775463269219016,1.2251210288096164,0.37291527024008425,0.2856598049490694,0.0985342164044502,0.06098216041452518,0.17450300648560169,1.2584632358741186
0.4763762852120442,1.269992567496512,0.7283979655767178,0.6571918023235607,0.4160750182074473,0.42648045765014253,0.5191044376214974,1.3106611751469377
0.44067192108537,1.3081707049574784,0.6880797004503405,0.6089994827170584,0.36983800169597575,0.396379462461987,0.4494680206656042,1.2921122856800709
0.39597858836061606,1.3144082552161513,0.6175242242383091,0.5316087148861169,0.3307716020708075,0.32957089191610595,0.371389952694296,1.3054528142820292
0.22268439092304593,1.2520450439051967,0.43675776384541354,0.3598768116799204,0.13543850922559791,0.12968738766104884,0.22761292363489316,1.1787830179645697
0.4988221387530079,1.257699863082774,0.7550586333165542,0.6953966689621082,0.44522448587094776,0.4505962535715735,0.49958267004576884,1.3108627473001804
0.5236932988724958,1.271157503751632,0.7666046117612065,0.6770251885479689,0.4396771353163594,0.46351777444594805,0.5620035681963859,1.2271765748849102
0.4842902235462265,1.258576185950132,0.7179777933871803,0.632704096038245,0.3608085655893001,0.41122072082360556,0.4776277920328907,1.2232032694758153
0.3355166965822861,1.200543850212395,0.5212393962211872,0.4473571761989107,0.22773857816889456,0.2312990783252971,0.3315967830758216,1.2026486820815612
0.3612728294674894,1.1211655364978448,0.5878832656720339,0.519578241556663,0.28041983492284794,0.286609262541897,0.364208450751679,1.1419809241449541
0.5671654771853883,1.1757399743210717,0.8103936204970538,0.7453347484186071,0.5032452766625855,0.533321771890567,0.6138592003132634,1.1306768651504784
0.5118313616981995,1.0843419979036168,0.7504331867773812,0.6967879122115389,0.45104447632995326,0.457389870832312,0.5349144641190106,1.0647116764880553
0.43982786653793327,1.0611213175345056,0.6230136515671295,0.5689446588731211,0.31608453201318887,0.37258611756544463,0.45958929397320175,0.9646347440818499
0.26156426213637973,1.0105153609209983,0.4244840828017499,0.3757057605754257,0.15359242973057188,0.18244815182408,0.2406911611698947,0.9668641448197872
0.281512345920745,0.9447339623548041,0.45156086349770624,0.41138977141772326,0.21020752427115133,0.21556479969161152,0.3122449306915978,0.8764941587681168
0.5187223104425093,0.9660603730591261,0.7491124357850892,0.7033401002666907,0.46024921394764196,0.5010997734511199,0.623314145970714,0.9184977433546407
0.5084284026674568,0.9166526056456965,0.691024442913391,0.6717453458726245,0.4286981882294971,0.4453576646623504,0.5467643413838412,0.8168261904325533
0.415685011159324,0.8836346524781793,0.5796381107656209,0.5476134084265856,0.33095221144144743,0.3601304260859646,0.429803642615401,0.7819916803209674
0.24267961088170673,0.8249633898089567,0.3845798882603597,0.35625179195597023,0.17533235650990608,0.1704279254515438,0.2552387522925873,0.6181717324350547
0.09196913778980971,0.7000513696942382,0.1861261157269934,0.15406851131502222,-0.007489506237925998,-0.0024487228140973134,0.08227754430383154,0.5444953963876813
0.349927778688222,0.6761752232823544,0.531768021834058,0.5060077397608927,0.30485484139438135,0.30236819146114674,0.4170663537370519,0.5221388085778078
0.3737329480948293,0.6446106478786424,0.5569882809768101,0.5273862114613033,0.333292895611893,0.3598916206966918,0.4542113814611901,0.5034175987998305
0.3515006593491231,0.5723037089350653,0.49084242419071517,0.47106183361148185,0.29735947058523565,0.31849782550302264,0.39225346103874364,0.44967505000425306
0.19309754883789532,0.5081693938146628,0.2799817418994324,0.2699352761401452,0.118032442172416,0.12560376286942818,0.16555101409291245,0.3393523589891642
0.015458900747735677,0.42025939610371843,0.06472682477076733,0.06275908848342082,-0.04905423111272275,-0.05729486748653811,0.02256631335198085,0.16585000150777907
-0.08590026345843751,0.32990644376980177,-0.02415917649485215,-0.02075851091747674,-0.1362235204555599,-0.1290117304196093,-0.06977891429886114,0.12066014752995362
0.2675030834966309,0.3802395359284179,0.38281414518535783,0.40786869064611264,0.24741087322942323,0.24940458904175758,0.306048796801008,0.23684372563997308
0.19660452309353751,0.3366189666623987,0.28577651304754126,0.3086527528810994,0.18174029494075405,0.17929451546090888,0.2519414791053272,0.13445527948026895
0.1305605656941034,0.25745598512201234,0.2128559217504087,0.21678581834837843,0.1169410793835278,0.10060603251973846,0.17483366945896472,0.04752101592086543
-0.0562097619367037,0.16656528511727903,-0.021406496233764102,-0.03481557710104037,-0.10604723507944251,-0.10540365666227292,-0.015121786175716407,-0.00892637936516994
-0.24149019303078634,0.09038091359697581,-0.2250402533476997,-0.2428846566904879,-0.27058252167930225,-0.2958464532418156,-0.2275031442621714,-0.05251724141761145
-0.23825830780131077,0.06907088087686904,-0.2554394958037599,-0.23025190101268875,-0.2741190451581369,-0.31155069492270254,-0.26100589053591444,-0.1382767522500824
0.07628078516618758,0.08666770818391743,0.1419183219044796,0.188092867097713,0.07509670533795586,0.06663554099333337,0.11817935991130261,-0.12726957151900606
-0.009355453901240368,0.04249783472945621,0.04678824457569598,0.0780320592943133,-0.02363497287925884,-0.039107608648506854,-0.00961386187323886,-0.1454238811875491
-0.09095054372925318,-0.050199329768939135,-0.06749068271508821,-0.026998346043640143,-0.10288203065209009,-0.11985663884877748,-0.09227615087328113,-0.2648598250448986
-0.29160046864442585,-0.10455036700597413,-0.31264611498579636,-0.2996919796502289,-0.28844702977377473,-0.3292299826617124,-0.2909925223436169,-0.32871273282664837
-0.4667704381365175,-0.21111602429835571,-0.5255456783789545,-0.5173215395523216,-0.46609064804347483,-0.5537935170268606,-0.4856181410557215,-0.40647969603762496
-0.27201313615495476,-0.1692625966382804,-0.27947004674880827,-0.24796281834315173,-0.3047236313313662,-0.35037541173779446,-0.29146045754609806,-0.3616995572280429
-0.11889864585349885,-0.1427093747122775,-0.09634001487969637,-0.04837965800629135,-0.1187265302647249,-0.15217145370628032,-0.09839124317870288,-0.39112758919100327
-0.1784890935857994,-0.17896524958654603,-0.16756575770525323,-0.1341301191602906,-0.2002887152051241,-0.22422590714812615,-0.1839513533094256,-0.3872964657841003
-0.3054327326999506,-0.2389796676414692,-0.32688358017938,-0.2900310855679597,-0.2789526949947414,-0.33605733850213376,-0.29786908444497573,-0.48670586361319357
-0.5035691636074079,-0.34447916913290483,-0.5571378213376191,-0.5384444266069046,-0.49604408768841185,-0.5625844522308799,-0.5104918461095855,-0.57529592629553
-0.572571525813998,-0.3871825351494632,-0.656193665800749,-0.6416347210452977,-0.5967002929972735,-0.6435092887951077,-0.5965387338842633,-0.5491538472148852
-0.1934298151187768,-0.287698691586626,-0.18450782170711194,-0.15489549534257524,-0.1809278207331118,-0.25359900779091066,-0.2079978690781597,-0.6055691348433693
-0.26326076013037225,-0.3129560542219251,-0.2760933214203643,-0.2387238251040366,-0.2482063119850024,-0.30101928892352586,-0.2609318389340158,-0.6328500171266088
-0.28860189551259835,-0.3336576842542925,-0.3141895812332375,-0.2740727614770952,-0.30422778693351876,-0.3276648214249838,-0.3309775325958697,-0.5920693421779851
-0.4692812841575392,-0.3987556495012719,-0.5186816234933337,-0.5105614092022327,-0.4590000949612028,-0.535793569726259,-0.5010867516104959,-0.6263908794630405
-0.6256893780132586,-0.46327954355441925,-0.7210116134312842,-0.7097322680448741,-0.6340416494247996,-0.7019715741408703,-0.6902183514236322,-0.6599432248586049
-0.33245461629412315,-0.38467458612465527,-0.3657143629968529,-0.32744394290543694,-0.37592886402507253,-0.4083527294009961,-0.3815952446521353,-0.6390391358116986
-0.26729632883886617,-0.3736964027463591,-0.27994072532169617,-0.23273164621919964,-0.23491056228468854,-0.32795677504065635,-0.30094617451976236,-0.6390598704144195
-0.2748044518065937,-0.38066871383669165,-0.2904762005310049,-0.25284612939304973,-0.3025156973522963,-0.33213503451658766,-0.3363512147681508,-0.6631507449493057
-0.37447148046454326,-0.3706178924592982,-0.4459868862846529,-0.4053231957110139,-0.4016949214526924,-0.43955121458563784,-0.44754217865245444,-0.6368801509706521
-0.5430036011207025,-0.47409113783498813,-0.6123842429004988,-0.6041253313004098,-0.551398069410378,-0.632598224729603,-0.6071405902732959,-0.7859638329516012
-0.4370369264661108,-0.4235768884982405,-0.4817508724783029,-0.46196175952714824,-0.4465170640700149,-0.5084040645956326,-0.48320939434150806,-0.6794262035405453
-0.20118613586166761,-0.36890063971772996,-0.2073805905214386,-0.16428457101014218,-0.1727523219399777,-0.23246600829888311,-0.21902888042926105,-0.6399158044447849
-0.21302465157490322,-0.3453035414275795,-0.24440314972773178,-0.210288274822144,-0.244760603283807,-0.30295753179427226,-0.28542992568285946,-0.6209730811637487
-0.29011944624203423,-0.3551386271295408,-0.33008670094211867,-0.29510952998264844,-0.3253175970334937,-0.3642046284460994,-0.3368663972663916,-0.6610574016485198
-0.43208740064480206,-0.3743935478837382,-0.4974807551872674,-0.48847959182285927,-0.4712090815584001,-0.5438029482503361,-0.5087593269762277,-0.6452328916279904
-0.41359377454849233,-0.39783702633913526,-0.47529090199710294,-0.4543808506084062,-0.4512624132827029,-0.5195461539511609,-0.51310555330234,-0.6829316462989127
-0.12748678160265775,-0.34349521092511803,-0.1469655660962129,-0.10351760359954217,-0.14044982380669144,-0.18703918753150897,-0.18937984662541416,-0.6240717629744997
-0.1654376185039496,-0.3338567158430599,-0.1618231175508666,-0.14645168461617428,-0.1848277877277796,-0.23795249069571014,-0.23780768507545622,-0.6571353893931017
-0.2089652439743344,-0.31989869904793494,-0.2431872762025478,-0.18854017699416878,-0.22319376016641265,-0.27017412087227555,-0.2788560198342012,-0.5814771347222226
-0.3524689567689353,-0.37885946512976276,-0.383783298170805,-0.36845043891607293,-0.37992213252240037,-0.42233239902847736,-0.4438058729099832,-0.6740900032199054
-0.3929580380517619,-0.38855731204960353,-0.4568318108518571,-0.44955007326115975,-0.4581267190731525,-0.5068655533109204,-0.5154904987665496,-0.6224657096646936
-0.06168150628698406,-0.32795323167637186,-0.06439150900343492,-0.028501695777894506,-0.09764073282270597,-0.13189565899419453,-0.14518967621517792,-0.6109121627320955
-0.09165509825905459,-0.28407815693938504,-0.08947724697795165,-0.05803831837871684,-0.12348803257184951,-0.15717536410947947,-0.1558511659409138,-0.5469419348145681
-0.09420897605594038,-0.29311845662139685,-0.10372013846205866,-0.07524549020262139,-0.15460885828462675,-0.14558657973873357,-0.15561031256023658,-0.5571909062898801
-0.23073358431707655,-0.3559936427157892,-0.2762734400722685,-0.2218159390105688,-0.2902050392032809,-0.3230388197497681,-0.30821494794025395,-0.5965446102167953
-0.3387441763731597,-0.38001952482856877,-0.40576288950932277,-0.3719720750267789,-0.38907671443533093,-0.4524736407144829,-0.4353726226930261,-0.6580502609162093
-0.03569913348409133,-0.33994755709900065,-0.05317070257926328,-0.003811482466126819,-0.0779032673268486,-0.14032937973992343,-0.13740771882650066,-0.5696029454267492
-0.00406963799631553,-0.3643847089737733,-0.00985756074418945,0.02712233847700846,-0.027044584616219638,-0.054460416493434576,-0.06969728702734361,-0.5485060610824246
0.016985463205300394,-0.3460340008441857,0.009154576855794546,0.047706381166130504,-0.02014715047089285,-0.04666789672464461,-0.048389711162134086,-0.5801641532028644
-0.08743926246848131,-0.3271327066434488,-0.13103994765737748,-0.08197316658867662,-0.14200293150646828,-0.15541477327768285,-0.1757631560022606,-0.5710507268082534
-0.18484692848759685,-0.3701671361191183,-0.24347162612506532,-0.2155605081450303,-0.26783765368034934,-0.29437865631132804,-0.26443940384322656,-0.5898137874589088
-0.008360000423191169,-0.3193655005630523,-0.029424828441669153,0.06032443388973175,-0.05558764128961506,-0.06834955002380633,-0.06898351488739492,-0.6099101641441018
0.0754061345415969,-0.2883368892185737,0.08357057588927269,0.12934023732449107,0.013364428238572102,0.01848499996946072,-0.0030988937520951276,-0.46405681786393066
0.08714258336241748,-0.2838651313286365,0.07397891141162088,0.13438746770517476,0.03205262320856961,0.020363218369124015,-0.005339826862168547,-0.49755530710847085
-0.01120038149296531,-0.3346163436324021,-0.04308514671697888,0.003064617548537386,-0.0896818513641878,-0.07764928161699629,-0.10295960237923929,-0.503137314782761
-0.12138958208890133,-0.3641528159203549,-0.16938137493449623,-0.1318462356256866,-0.21004303227512555,-0.22717280496192055,-0.22674948581653456,-0.5743901608274342
0.10784853371046045,-0.2735905708051375,0.12159217598799216,0.18435145767725017,0.042594685229374846,0.07601320125940006,0.05035816396447907,-0.4836730636539206
0.21930913535373686,-0.2428049739640089,0.20487710603510675,0.28873538261134374,0.16484916422083937,0.17877496266554663,0.15483553225411395,-0.48184382692215305
0.22095766390507862,-0.22471993669405887,0.24551996913079116,0.3160956951590183,0.16272591180151433,0.1790566428939573,0.1864646650259008,-0.4272574910302615
0.1586108957774848,-0.24526570475531578,0.1327011408441926,0.19945223147747057,0.05489942071755898,0.0688676340374379,0.06155060840360067,-0.5003022706168375
0.04553748401224418,-0.2538541696650329,-0.004800420627592295,0.07215478885361955,-0.0318273257449409,-0.05800274794840882,-0.03415179094592712,-0.5312816425276665
0.17833860526522397,-0.23056780271180488,0.17436628830150736,0.2596559924936436,0.09067873979954634,0.11826913567826147,0.14727256017508827,-0.5437660970324625
0.3672842959421558,-0.18228294880163826,0.36177085203614345,0.46355502674520593,0.27707419397501093,0.34233480332202615,0.34225875613396606,-0.4373463857515804
0.3803136947942833,-0.18497741157485972,0.36740805753617406,0.49511006249514694,0.3286463162346563,0.3375917986662291,0.3683986805492261,-0.4456572560824435
0.3275214726356861,-0.17088070896356897,0.3000805178508916,0.395936946582929,0.24863581246498906,0.26384769213684983,0.2723403766570323,-0.4078525774640918
0.22184205852902328,-0.2091707998348641,0.1969069960538173,0.264128363094211,0.10920750395050034,0.16178470328705652,0.1869801267509248,-0.438541383502578
0.11654167710015417,-0.2541290531326653,0.07451833203057534,0.18917548606284398,0.026948169422771923,0.0742047761047983,0.07352203546784752,-0.5067375809680676
0.2102436550696063,-0.21254087924337708,0.20552934365824238,0.3063243100169311,0.1272300526875165,0.1889146781295371,0.205142834067352,-0.48696518476172274
0.39959126530366007,-0.16538974841529927,0.4299653580460134,0.5467775339772923,0.3758522564813309,0.42760273042757485,0.428104954433388,-0.3688438040402907
0.44529679368967073,-0.17187448071894537,0.44594264579912996,0.5577975270559936,0.3900956309740114,0.43822804655287134,0.45653478865335073,-0.3956761570256183
0.40358831638984516,-0.180174171198793,0.3689926131954365,0.5068616653715505,0.30902968761591326,0.39453425845335316,0.39477569007279795,-0.36853078299632996
0.3000789188322261,-0.1944573545320447,0.30651929408736545,0.40865534017004174,0.22521664601661986,0.31771702340338615,0.31208006167471813,-0.39426542170762113
0.20748471178785557,-0.21812542376295604,0.20132917384013385,0.3000867300155909,0.1441578995520744,0.23096745775583616,0.2449592708234227,-0.406664852959225
0.42043627910275644,-0.16725781595815822,0.45376966476051883,0.5833283686114074,0.39289837149717194,0.4751078720542225,0.48039921965868604,-0.37119675392768425
0.476896971841871,-0.12388622012771178,0.5047769887611905,0.629431171027326,0.432762600842448,0.49218466161142543,0.5449505679392165,-0.3600979557519218
0.47141829503194027,-0.14198969683734303,0.48693688364866816,0.5932091902555495,0.41400628107174703,0.5046377373521657,0.5072278062363137,-0.3911562669353746
0.36524135226375,-0.14509942324563777,0.355874136761594,0.5081183071250478,0.3038765046551389,0.38472204568090956,0.4019662854220696,-0.34149605645118936
0.2548787697088108,-0.17121598711193883,0.2565439716967199,0.36725647791761123,0.21560589044506698,0.27781554429375616,0.2991114952613544,-0.39676982274314077
0.16911171513329876,-0.20066477693603527,0.15930284975780734,0.2728357285552943,0.09491017403196375,0.16433307693359536,0.1880090799124167,-0.3806817030717434
0.45034390458033186,-0.14575734183366953,0.49690132178528,0.6170982172559253,0.42901608911221806,0.49469068264613314,0.49852103228826533,-0.33414271169606735
0.5181549254770841,-0.12271116826697936,0.5386566784491005,0.6900855350441228,0.4937148722623008,0.5881989293478745,0.5624168733049962,-0.2986192881595861
0.5277977373828234,-0.11552456794857215,0.5430818423603325,0.6804493127214649,0.4594021178655841,0.5413602788913654,0.5558434922139656,-0.3521204665102793
0.4024199084967882,-0.1420341055971626,0.4277615512238872,0.5500543541789806,0.3680896370543372,0.46854059842087314,0.4623462162872693,-0.35910683589046183
0.3012073820214868,-0.13416594210958926,0.29181687494453495,0.42077859134134254,0.2529558139249652,0.32458089603960555,0.34856618036325365,-0.39048704662365485
0.17543895489788647,-0.2363712406430777,0.16766401259547944,0.2805568740311758,0.12652353980695585,0.2220127810740428,0.20373651450182087,-0.4139726149941936
0.1387914425837289,-0.20755390783564295,0.1519868520855084,0.269219273152231,0.07192116482272021,0.152979263472376,0.18254811082934658,-0.4572577193351769
0.43687408535043315,-0.08417911899915331,0.491793736886187,0.6266788769041478,0.4222896666102538,0.5365940395711619,0.5133665811948959,-0.3605521420295758
0.45934832432274875,-0.12623979759532564,0.47169586147959486,0.6221875954082267,0.44342230750966616,0.5262827343540475,0.5444724378743774,-0.36527143692693
0.40576845395888633,-0.1558109571441686,0.4312725094801041,0.5727018354246302,0.40390895605065924,0.4879619914898965,0.4561618672566061,-0.39722993855225847
0.2661223211062779,-0.1830643521574198,0.2940160601266499,0.41498239820858523,0.25430058022283714,0.3140791823598747,0.3015605564900604,-0.42413039958070475
0.17634346554156094,-0.20267548094380722,0.1493209357387977,0.2584990055160067,0.13664068561706724,0.1807724867734281,0.1986056730652182,-0.46982203514866816
0.2640371592005701,-0.15714210156287292,0.27267120576957404,0.38534860479157895,0.19894192144825568,0.3342554820118373,0.28628624972820393,-0.3602069874004091
0.4605720299831551,-0.13004239001269258,0.49358314426863625,0.6245744229631813,0.45671163400901277,0.529291924391483,0.5492356278925173,-0.38109179032600693
0.45589090457953796,-0.1492125349433051,0.4813053266244005,0.6208264136000529,0.4159969793653423,0.5167324234480453,0.4855376979397243,-0.38239992650052623
0.3803572636893873,-0.11191482053216283,0.3887988313162747,0.5087931624684834,0.3249484542871774,0.4282188490241863,0.38975965192207274,-0.37690193986701803
0.23108173987172295,-0.20399292187881374,0.22503801392824063,0.34192536454426775,0.18951845467752282,0.26360750302183905,0.2358896431642734,-0.4079458858591116
0.10415709621212961,-0.22727739812260067,0.0830003107973483,0.19110523320155767,0.04307842095146885,0.13416946747720054,0.11880882350776208,-0.47806255961135685
0.14715144005884967,-0.1982734275850538,0.147359578724069,0.2678405955027377,0.058425526165307044,0.16657315141152104,0.16497627734989015,-0.4399706424385914
0.4174669626683151,-0.14220452828148392,0.46458777910784693,0.5860883008109968,0.3950775202443707,0.49731468248999755,0.4917903824495118,-0.4436414276011696
0.40893697594722506,-0.14710929573410403,0.4456766859384077,0.5766760634603105,0.36541848114661873,0.46837607587664865,0.49878509485431016,-0.43598564180824817
0.3415074309545468,-0.16401165918991237,0.35846674827827324,0.5022445389694583,0.3069031047413848,0.39838537012040287,0.3720464900790636,-0.40756337744082677
0.2116053991837502,-0.20635365194204247,0.19680200032688866,0.32734781398014795,0.15582242627381007,0.21940050803397249,0.215302297048565,-0.4534339689830605
0.08360070426441162,-0.24175705035901537,0.06164825814273098,0.1928278794879308,0.007714265442693372,0.08423774809085849,0.10501902108807368,-0.4586161846965004
-0.061068407739499356,-0.27546003608023606,-0.10497304572233822,0.02046453444365094,-0.11495793481122975,-0.06099042430113343,-0.07717488742054575,-0.5390458152030834
0.22413846419711145,-0.21308226548916268,0.2840607017657675,0.42097092301386546,0.22125682970585664,0.27667219948689964,0.2883798690452866,-0.47190550174869894
0.2977869070056979,-0.22856161315027873,0.3306539717750405,0.48110491355738283,0.295353472405457,0.38205575030132577,0.34895168453609254,-0.4247874493919811
0.28939309139204644,-0.20130268306603635,0.3165202821372143,0.45470824726275305,0.2570174943162268,0.3405661577052759,0.34930024811138916,-0.4435465833692666
0.16648957922585594,-0.21890819431227002,0.14557106228765584,0.27730028736736667,0.11616212952213775,0.17676621167208822,0.2062477298704321,-0.4581398919116161
0.03324454722649663,-0.2685414002986976,0.002818414054008876,0.11302624364762091,-0.05178750390427215,0.048458509035608034,0.03544957411521359,-0.471597572247401
-0.020172144858377965,-0.2700233655948711,-0.011729180967951445,0.10071774124797975,-0.06130419090602166,1.5836410862188905E-4,0.008230124276951844,-0.49586864504893924
0.3045230407675023,-0.19935115065015138,0.36538135671624006,0.49230338405954066,0.30544671748024543,0.38870534656560374,0.3742302527069781,-0.4447219782744067
0.309679275417044,-0.19242413943067174,0.3246860167743479,0.484789396753007,0.2632885127592867,0.34147664346111867,0.363845167769997,-0.4777617936746657
0.2648000511235735,-0.1946835767715646,0.2971157879559002,0.42995168058850014,0.23081131830009963,0.28805476937332386,0.307150222535907,-0.486760224046784
0.12108595427056057,-0.2214634597938186,0.11780908504822868,0.2423892163697425,0.06027245914459226,0.1338911301588444,0.09925303229528201,-0.4741149282432581
-0.01208335882260809,-0.27681767115729333,-0.027486680592187295,0.0812540088180438,-0.08582415513012534,-0.0031480429216855276,-0.02831114136776526,-0.5012232593189947
-0.044336612320047646,-0.33524359834542633,-0.07084930021364973,0.05604375180315473,-0.12275492498917158,-0.055113331253792176,-0.05657809123889998,-0.5322962599306518
0.2936615848015717,-0.24020735627474588,0.34493195839774105,0.48886098998307076,0.2588645935320681,0.34308243816316897,0.34655256345360175,-0.5859411961443859
0.28033702143383515,-0.20751862701161397,0.3044628794016211,0.44546504102290246,0.24990356864759092,0.34406609013335643,0.3154484741659504,-0.48893768687229877
0.25993026072235326,-0.2451262109602447,0.27611641905895684,0.3999434389574622,0.19429330868999925,0.2613141913983742,0.2637966096349108,-0.5026518752456219
0.10505461632402782,-0.24750141720915264,0.10834566645630862,0.21758170977392471,0.04454708489592737,0.11751953660298209,0.09378848229053836,-0.5255917574518274
-0.04045446480464567,-0.3114669805366477,-0.06932881649253647,0.06392342581913182,-0.13683658378897018,-0.04422483740925531,-0.0785271197909246,-0.5251967319598728
-0.1763771167693148,-0.34331446648865804,-0.19970443220948927,-0.08351206652513236,-0.23976695949224613,-0.16024663835423422,-0.19157688607029263,-0.5555765228576001
0.19158519485096617,-0.22542338932595382,0.2354538366670713,0.3944405295099773,0.17226036281014465,0.21461594939056092,0.21038325176039344,-0.5187197878407512
0.19609829267226703,-0.2668953943427568,0.2318950381469674,0.3758455386173804,0.17693687804704095,0.22867636069870576,0.24989774888326755,-0.5235348414509798
0.18939370763024035,-0.2735827508675631,0.19772983805517774,0.3452561200479513,0.1595275633988185,0.2033109090664382,0.21296220949014372,-0.5101965639168332
0.0631983074229859,-0.29167649307507226,0.06181195972018876,0.1792173480154502,-0.0016942986437303,0.04179484830956392,0.05857426448134384,-0.5318727080675222
-0.06779523021857477,-0.2977748504881156,-0.09480629444026024,0.01870341740201781,-0.16905218541322126,-0.08324361618450819,-0.0981612008702393,-0.6159276604037067
0.031075186332351,-0.3144660882157455,0.028679575164701526,0.1799475440518694,-0.03287000169429047,0.018480839440450758,0.027324333506984995,-0.5658517873975313
0.19446528301200558,-0.2527541534983921,0.2350432433878358,0.4063457295687639,0.19102356759157893,0.24871779046902273,0.22425072775471408,-0.5306751757332029
0.17298344361831963,-0.268186007190046,0.2025207949108382,0.34579097314516816,0.124992591950414,0.18725797618346354,0.22069571666808993,-0.5009388707927621
0.08911029963819869,-0.2937149549455484,0.10550483803628884,0.23614375974743873,0.028667978184251104,0.1015643553774686,0.09950853293509672,-0.5503335901955065
-0.04504805649968374,-0.2977385878016877,-0.05900483098228699,0.05203161212500748,-0.1469492441237463,-0.08203364796574326,-0.07522033406523033,-0.5146712328432208
-0.11741323570805832,-0.36622370834159745,-0.1255998112674798,-0.022360464201416647,-0.18950849987886975,-0.13349842055412375,-0.14720108845078567,-0.5680137489812614
0.24059833810094464,-0.25317164318927676,0.26943414115804837,0.431408085638411,0.1916497834576291,0.25149248124690354,0.277576317174993,-0.5210798299619936
0.23208961086452218,-0.2597898993604337,0.27376369482670615,0.416809810204889,0.18900887764554297,0.2602702044764669,0.2690427761949721,-0.4627405881354825
0.2229666695345884,-0.24094493793051855,0.24327877944898343,0.3735784575627861,0.14270675178313302,0.2036923061986684,0.23281257112651016,-0.4426721507994526
0.08785240864549777,-0.25851430174325934,0.08481292083742369,0.2174136851853934,-0.04249593861664855,0.03924057572028549,0.06487735634697343,-0.533390761243372
-0.053882408764178207,-0.287097082851008,-0.06547722787004744,0.06989119754413049,-0.15507328760584224,-0.11947164732662419,-0.0850752926767997,-0.5511573720308356
0.10516690219477304,-0.2667065156332062,0.13529928816388728,0.2775983446494194,0.017513059539533103,0.0639768541831599,0.06691817359788695,-0.5319108430679258
0.27541267764097166,-0.21266947350524923,0.32131065448351076,0.4770277653209766,0.20938088127285331,0.2938824460281105,0.2816628431542639,-0.43401970858394257
0.2794154316258237,-0.22026961616879448,0.32906720973192516,0.47021623472084445,0.18591082370663992,0.2948233781005104,0.27648341909468077,-0.48264569296814347
0.1907926436682893,-0.2131673756851172,0.19742783285152019,0.3487549231871929,0.07518706011522289,0.15579802704338203,0.2029111854296421,-0.4672503724217166
0.05248432066403863,-0.26158603534191005,0.04431379044381606,0.18976195900355242,-0.06201609072049997,0.006131941540106728,0.005112101297823138,-0.5138720526306788
-0.07496868723695725,-0.3133229888106515,-0.09414263247840055,0.028440896023664744,-0.19127451774867774,-0.11935246863735575,-0.12894348332443434,-0.5254356340278836
0.17017512674485347,-0.2593764503097787,0.19836349021668268,0.3465095037064129,0.05704587580440687,0.12419739331506319,0.15701615885794945,-0.4687453515468589
0.22830050456250198,-0.20999513095486744,0.28082412243803245,0.42372569414147276,0.1611407892027263,0.2666625526973373,0.2843435867538794,-0.47733365381710136
0.2207851859136325,-0.266858386346456,0.25972489666458054,0.41392265849361004,0.14608356727510413,0.2235400804359489,0.25848895793222953,-0.5396199630822726
0.13023357053693793,-0.2455148536108978,0.13791622212883262,0.2652322533114799,0.014746602165422016,0.08604419107791346,0.11234924062170851,-0.49580332387058457
-0.03535280510625643,-0.2824079464752594,-0.028446955592980407,0.0977534297756184,-0.13194339172843972,-0.05988615887149674,-0.05371387399291025,-0.5479539655070653
0.045256237557332164,-0.2639625482659323,0.05642286924487792,0.20505948276988653,-0.05084047896755314,0.024575464499461956,0.029723483819635913,-0.5039403713732884
0.2952342034853205,-0.20488175863901945,0.3600074310664337,0.4995395539069606,0.2532757244755882,0.27783569144574227,0.35823055800510095,-0.5046397644600907
0.3015442880950496,-0.19618532036741654,0.3344702260955447,0.4858610346198922,0.2057227380845068,0.2769597011192268,0.3351234517464944,-0.47286790929059674
0.2306271141083375,-0.21192522941132666,0.2467275674412222,0.3922554038094254,0.1300172308797291,0.21962041652450448,0.23452583262309928,-0.4756250239647127
0.09194774437823872,-0.239503683527599,0.07435789655741117,0.2423448272475093,-0.019338634387995476,0.051069188290563984,0.08047839363331921,-0.5051824512069313
-0.0021265118705866624,-0.2752063750683367,-0.023779546187750866,0.11803414669249816,-0.15577041744456221,-0.04720823796983703,-0.00545957752268227,-0.5590746877450862
0.3259870154940017,-0.16706268747017075,0.37871387407413404,0.5229500352038046,0.25164674440359286,0.3371651035362746,0.35194239238179,-0.48102047025838723
0.31524611876961073,-0.16529440234195197,0.37741743730133515,0.5390951990147563,0.24398449543693115,0.3264547982752899,0.34863257185917434,-0.4184330649158233
0.31487579769733626,-0.1932500047079434,0.33782753734883636,0.5174710318451333,0.2052934839416271,0.3071498094947321,0.33127602553367586,-0.4207469762995845
0.17254883764913317,-0.2354236653127079,0.20204702779609787,0.3533229904799843,0.059667855100564895,0.10492426887601947,0.18181816501909812,-0.48837327439581657
0.02402940432570946,-0.22848187699179437,0.019354440736666968,0.17418384262711648,-0.08993215812819834,1.7588799412054915E-4,0.0464732955048255,-0.47749606786832144
0.1382387891319593,-0.2466688841534307,0.16498327203878682,0.3465969677439675,0.0465613175345025,0.10942164244813955,0.16518598950823582,-0.47277546618265964
0.34781784217252365,-0.19169366540268207,0.3813876839456822,0.5689355248202586,0.25299526255953714,0.37497651981246727,0.39467844682777237,-0.4391610085587397
0.3395296281065497,-0.1887626687449183,0.38737656399065523,0.5505702840419878,0.24445921240731444,0.33998933073151727,0.38950413202105233,-0.3912222715900544
0.2553397360896735,-0.16546456605708584,0.30329808315070517,0.45707514805712335,0.17955197984656066,0.25678284153038067,0.29763277408110544,-0.40673720832884763
0.12130573023788195,-0.19749878905959034,0.15674888237474077,0.30425504548024435,-9.54732254300733E-4,0.11326839166700108,0.1379759085308994,-0.49542483783488667
0.1006485493593109,-0.2336863350273757,0.1269694802797085,0.29610807982486353,0.005030657226890777,0.09019572360628558,0.11541605678006579,-0.549222794504056
0.36697051124510366,-0.18396760483576416,0.4274432411271425,0.6066970609471938,0.2753567652511731,0.3939049833698455,0.43619622042678385,-0.40266445383213795
0.3248181517272538,-0.19784325950294668,0.3784946985319395,0.5472811346467067,0.2506895592808059,0.35069246906789814,0.38085134770099255,-0.4347201358977968
0.2857334799140851,-0.2120403439459637,0.33534351675891017,0.47949579107482615,0.23224298026607787,0.2767210318725724,0.3339821380096401,-0.426366777968183
0.14049215807425278,-0.220232107935359,0.164829051808773,0.3335931772459109,0.06340089397768567,0.12674566732511225,0.19877164302154002,-0.39740990269378396
0.013741631505776767,-0.23435377178474207,0.04294119332852829,0.18304598456592094,-0.05980308732365636,0.00800009117034021,0.06239814796993495,-0.5106946369210347
0.2817562413986725,-0.21694844805619334,0.35622482668336225,0.5259612231110772,0.21730384955277424,0.29877328130066855,0.3527310305764795,-0.42570864898380684
0.38810448600166153,-0.1569179245716239,0.4480088298940035,0.6274377245908905,0.30725789854317315,0.41742043691790937,0.4929809006973134,-0.38153438653143235
0.380011250714367,-0.16413151273682733,0.43801365987599006,0.6222784589787546,0.31727611786271903,0.42969872789712454,0.48511413726129454,-0.4356838216400275
0.2934892187582143,-0.19298516874052554,0.33136355792557565,0.5022934450947233,0.2184431934973695,0.31569332190570815,0.35834610673832507,-0.4492052543799238
0.1639784250959306,-0.1877243697905386,0.19695061404859138,0.3538755621339236,0.04435563393697296,0.1614200160483307,0.18746914691581548,-0.457280971623967
0.0329382562949965,-0.20903043874630917,0.058060124879596775,0.1863695037429729,-0.06439188592677635,0.02848382493721898,0.09535320144762421,-0.4569430821391692
0.15949377578682816,-0.21931291688487142,0.23423151209261217,0.39537242072921597,0.04901217778718508,0.1524005321161684,0.22642354381110985,-0.4635025479759342
0.38913959776173135,-0.15597270168271163,0.4499238851722228,0.6535518979930237,0.3377292945051704,0.4317438954999539,0.489886149645757,-0.4750164935797946
0.3954515057744063,-0.18413524153365993,0.4438399705534332,0.6646143066181701,0.3240894333482739,0.4527763958618175,0.5187137394969077,-0.37452951243534277
0.3267100396329924,-0.15698953336839971,0.36077045885123027,0.5549013595879654,0.21529897249999944,0.3540052730366195,0.40689055611139296,-0.3241019331734764
0.20100629249205895,-0.1880951798729176,0.21470332207259615,0.4023714335227768,0.09534259263876173,0.18939550110117853,0.257913477716002,-0.3658923102621249
0.07578998408511295,-0.23770542631725608,0.08815666478597034,0.2636985423390308,-0.03512110020567512,0.09528086251904008,0.1345018958817658,-0.44905193565287493
-0.08230037931786488,-0.25682300483367776,-0.08338699409006291,0.08569892447767079,-0.16841963720093384,-0.08751204519223613,0.0033551310958992307,-0.49981098273543073
0.2174955990324049,-0.21456517148270954,0.2982216298665412,0.45196282665755355,0.1338006574673049,0.27747647822106264,0.321438322157456,-0.43072353975696864
0.33639307225647147,-0.15213240899614444,0.3762681712624393,0.5791103098415095,0.2562978074462494,0.38709582900285744,0.4233227954916062,-0.40861861285767087
0.3287107045630646,-0.2115554860943306,0.39947349128815346,0.5704058187908814,0.25557385058569476,0.37253465498816385,0.4812858944372802,-0.3898213832217869
0.22883952755254958,-0.1669527055675507,0.2818992588696253,0.4472605819958263,0.14066256219586243,0.2597317274034812,0.3072586510962427,-0.44658347582856184
0.09288895180208426,-0.18467146510923874,0.13455862036877883,0.27153711345919845,0.012776252926294833,0.0945701759819284,0.17304840589343828,-0.3800689558686125
-0.012406220184777987,-0.2403898343125831,-0.0011720286774585234,0.13561147996694747,-0.1293296997683053,-0.009450245425600624,0.044988156782701516,-0.4446666632919587
0.24711544578180322,-0.1953913026411495,0.2924565211162652,0.46648881450500274,0.14595924766399884,0.26127544277308085,0.3106721735799255,-0.4057480338509552
0.2520497238675631,-0.17887315017874444,0.3014585624617426,0.4787426901508466,0.1956186862186999,0.29868262641940774,0.338692187618409,-0.41356959586503345
0.2348182330765296,-0.17604643600270753,0.2888143508678734,0.46216238253252695,0.15555798543354776,0.2571975158261716,0.3246612515423257,-0.4219147228076253
0.11645999864366297,-0.19717291621402688,0.12752912411163914,0.3126107477059279,0.005002321293063638,0.11726408634973533,0.1966611896232512,-0.4560977471064354
-0.03744894626432008,-0.23763881100880307,-0.014428252519401101,0.1363577224526173,-0.09116149358893313,-0.04507881084935262,0.012703086928250088,-0.44179031132043894
0.05555135639119269,-0.23746401791429833,0.08942090432886196,0.27369130593635305,-0.017888146754676607,0.06476231869104161,0.1363098789925989,-0.44682204676185344
0.3030332137341828,-0.19273375129152467,0.3687893826000999,0.5569401439038064,0.27081279362806915,0.3384364877485237,0.40788763851367404,-0.42177357932568826
0.2899099065855371,-0.1773283700751866,0.3524878173270478,0.5482737819956096,0.2594988806839634,0.3290079345950917,0.3766895983406644,-0.3712931678853887
0.2557748633811373,-0.1960084754629005,0.28319217769696825,0.45636359168398244,0.16730173342845087,0.2533786665512076,0.3083349869036791,-0.36768181078164
0.10435034675958706,-0.21265591361734035,0.13539004564304852,0.3024034726397363,-0.004660816950285125,0.1188205271729283,0.14359572442646193,-0.435867090074223
0.006091552872592401,-0.25944890049743474,0.043631632179945506,0.21141328638300355,-0.08053443537090815,0.0075665049629195175,0.05614669688577896,-0.44187812335441495
0.3262278133482951,-0.1696254973883806,0.3964822492368105,0.5671402370974974,0.2519544497375212,0.3421458586787137,0.3941483417159311,-0.33291519423537724
0.3554414221625891,-0.1600198480134214,0.4307052716701478,0.6131694094580473,0.2830218206167625,0.3961660809877976,0.4108269207264996,-0.3820185846296826
0.34473459185025834,-0.15767095338579482,0.4019062313354285,0.5967255261431373,0.29074463181820775,0.3591594584347921,0.41214224134845734,-0.35775633874797064
0.2564616815440562,-0.1913458271626686,0.2677503440159736,0.4494137788430418,0.13126601100687788,0.21727060823506777,0.27342060286446024,-0.35813872456088375
0.11395248746995326,-0.20729761352514592,0.12643917230455717,0.32152062233462125,0.033465751323015686,0.10666427140641394,0.1555304279028187,-0.3768273532073262
0.07969939909085326,-0.23985968899827828,0.10671922808626667,0.278771855933119,-0.011259011732543385,0.07957437439022882,0.11846799037759748,-0.41656002043344625
0.3604246061027618,-0.16418978272119028,0.4511727507053161,0.6247182579160062,0.3062441322994966,0.393776369471762,0.438561284678224,-0.3065782174234333
0.3516898915403514,-0.18166004218439125,0.4104738713094864,0.6151398910882502,0.3181469185230384,0.3318606414694845,0.41719071938380115,-0.3674912059549953
0.34667258693686864,-0.17443043020372254,0.4087599576608882,0.5770929479726125,0.25777639842622835,0.32512148035622457,0.3983870322258364,-0.36830806185077414
0.22271475000878094,-0.2041500275115466,0.27236596359719395,0.4437309980094601,0.12504597614079377,0.19193668864923688,0.2700162336258619,-0.35003504898997806
0.10492602320482365,-0.2175088785292275,0.14380897549851068,0.31277883263393036,0.023706711570448003,0.11519105829337795,0.15621036339842403,-0.4517723476559328
0.31604497256618586,-0.1604282321394162,0.41081675219043046,0.5683642531603599,0.25701471559422395,0.3526623702922453,0.36646320747510935,-0.4380587725607885
0.3652741942589564,-0.15616077937138015,0.4490708053329558,0.6497638846968963,0.3180117318158589,0.397676947146451,0.4356548324788187,-0.36008885764718457
0.3866826402631929,-0.1578600491381269,0.44511797729655994,0.6410738081293832,0.2793203449905538,0.3920276940686035,0.4291305852461309,-0.34730857260948467
0.2811942695916059,-0.18545971566838684,0.32902146739711946,0.5020140606255563,0.18133673572520959,0.2660478052268499,0.30069837388987325,-0.307482304827498
0.1651512596999177,-0.17701923433784686,0.1983754913522343,0.3655606236770072,0.06293352165377125,0.1299608357088512,0.15601295073675314,-0.39219285033102763
0.1844731217819098,-0.15540513174460469,0.21685375982840285,0.3861000647792347,0.07862589710702164,0.157570397501657,0.18565970264613976,-0.3671830810350554
0.4433118749862359,-0.09550358501496792,0.5191270288751676,0.7182559050270692,0.3771515717176678,0.4775471014942687,0.4814852153561432,-0.30700356401418466
0.4438934885607377,-0.12407405092030757,0.5204796118717843,0.698143125104535,0.34695300829919345,0.44788991788858445,0.49640150084848683,-0.312570557440731
0.4144088852902283,-0.11244832633712833,0.4798780040352983,0.6701872414885693,0.333478779986871,0.39426542477903054,0.42717826742378706,-0.35347284262942025
0.28982863586079294,-0.1268725302868801,0.3525522365411713,0.506020481049046,0.17824482051821394,0.2660826396530582,0.29876307021915716,-0.3035010626570179
0.20034241654521426,-0.1501151088620306,0.21706198484997963,0.3877272831123712,0.10175213197907176,0.1459798854316995,0.18021399785141565,-0.4066662251985585
0.1937680758172055,-0.17028215637240113,0.26577105351816366,0.43663392455686717,0.08636473154558556,0.17870132602647154,0.2294805046980755,-0.3693573437171866
0.462294327469134,-0.0946026641799418,0.5382538643831286,0.7454842888578479,0.40784912767149095,0.48919240375070544,0.5255949288892403,-0.36690950092451485
0.4651051592977269,-0.1018951809492921,0.5520419855751356,0.7284281520632977,0.4238378467398351,0.4665167300401966,0.5185098486243377,-0.3354390913471407
0.416593031182628,-0.10062149946746964,0.4846394353656964,0.6724676322293522,0.32522884087175,0.4076390766370064,0.458006106662664,-0.28649306108638406
0.30723387009197717,-0.12970804503872996,0.34010280993614805,0.523328284854083,0.18712087214748416,0.2532327040848788,0.30464538040097605,-0.3188625154731352
0.17787006112531806,-0.16512200430756535,0.22442817724214703,0.3917260774212417,0.0872731718515376,0.14446859063254083,0.22030325600665845,-0.350438079640169
0.17847343045966935,-0.15317119569895774,0.23373560660976772,0.424427566407637,0.10200152815752113,0.17431295526848434,0.1823471427217854,-0.3229296406190566
0.4127769438031542,-0.10144149352491838,0.49531108403348945,0.701261137020392,0.3780069578540371,0.4190400117929709,0.48633282032472813,-0.3309441435253827
0.3873926915865609,-0.11898185399382546,0.4470307740219074,0.642265462523014,0.3140761382062956,0.3823638270127473,0.4495666488647313,-0.3462778787870992
0.3371658664629635,-0.13934975887812356,0.405550269261917,0.5759350446727162,0.2606877873766345,0.3109872881823404,0.36997487197929635,-0.3077067530504028
0.18812378573140306,-0.16265201293603984,0.2504668469535743,0.3991933788160284,0.09275148159187754,0.1650006199723412,0.23526603201076232,-0.42382714992446124
0.06222027154037233,-0.20273496514259062,0.08464410988270483,0.2472173311333999,-0.01055175563339308,0.03017151005744287,0.058466267812437536,-0.38598571831885153
0.20814250688689118,-0.194933428591737,0.26278128731396366,0.43365889922020023,0.13609466333385797,0.1791897581387445,0.24118711964737286,-0.39022155438216627
0.4065822083259449,-0.12719792707357191,0.47246161059581915,0.6903518149272178,0.3534913942625992,0.4364814886109792,0.524374874832677,-0.32820676588152436
0.3970602366413832,-0.09872810281273126,0.48427648831664344,0.6698374210528746,0.3228814393931414,0.43436530558083336,0.46229617580703297,-0.2993230924728562
0.31204119526215474,-0.10222848764532476,0.3784162982832383,0.5696084502882112,0.23049948433577994,0.32536507722566993,0.36679586182905366,-0.31435936078856924
0.18262371293773957,-0.13326386017651298,0.21927574922127943,0.3818367787058369,0.08836520389276972,0.16840598098373757,0.22646730417208277,-0.41304501726738346
0.05313277895548935,-0.18873322448648827,0.07402029379709334,0.23033083177314673,-0.0051052552924992995,0.03163070725298232,0.05943079855505678,-0.37857431317735735
0.21265727257932796,-0.1837895365765772,0.29517625301971573,0.43969107190090273,0.15174777083869742,0.23240281442302546,0.2399671582046621,-0.362448182964121
0.3804933173864638,-0.10149056000873173,0.4631927836440862,0.6377949371443171,0.34128327848106677,0.43179002417272827,0.45101052253520063,-0.33928400348296056
0.37876969421976064,-0.13959151065669165,0.42907476615862794,0.6153271735389226,0.31870624143833054,0.40371979979417094,0.4062220284891957,-0.3632645895847472
0.27193615360756496,-0.14084769551998563,0.3351708318156148,0.5030956492823327,0.19734987280156271,0.28431193747957334,0.2913540261447094,-0.331612434326238
0.1285928672354365,-0.19024577373673418,0.17694725016720164,0.33920265416745643,0.0637808311015807,0.13849651086214604,0.14187430665104742,-0.4004065742931311
0.016175603382718284,-0.2405608624508495,0.03405113219126324,0.16776398629435318,-0.08015133355772351,-0.01284747600332964,-0.009550175973436246,-0.38959694914956755
0.17576727064240436,-0.22744212475890033,0.23464403446906495,0.4138845147453521,0.10715785825915655,0.17700606110239298,0.21029996476635734,-0.43115993607042674
0.30263223224689695,-0.16417992805949885,0.37504031950940175,0.5694704680279428,0.2801013112228403,0.35387081482413124,0.37649521444375905,-0.3669689413035019
0.3007593322244741,-0.17613076465187577,0.3705173867494595,0.5301060382203375,0.2628644085967186,0.28713914470733953,0.34738824935490936,-0.3820310781424637
0.20380721357216489,-0.16060216407014444,0.2590432962661052,0.408921879137794,0.1487073003310581,0.21505048175471042,0.22453393577397082,-0.38645505920104595
0.06977994190502683,-0.22540647543226053,0.10113341811990234,0.2432522254959693,-0.03354390557195878,0.061561934577820374,0.07001925862671966,-0.44099712684666137
0.09126791054358553,-0.21553761898986729,0.15294487104739274,0.30258660456613073,0.03249972346660796,0.11309488895079163,0.11029495679857722,-0.40988057968753094
0.334815311072116,-0.15552675694213294,0.43107678381242365,0.5922752705575858,0.2983876596044286,0.4185539708957289,0.38768391091978194,-0.38489843838739635
0.30960844025131035,-0.16262078548044517,0.3749055996296426,0.5559354447233503,0.27083048123396686,0.35613091071729946,0.3838144416083003,-0.37546394154176
0.26630451318854303,-0.17679024526047693,0.3104862295481329,0.4982443874188682,0.18994629658794326,0.2809613232882696,0.29161594925236706,-0.40686540439728847
0.12115848938257474,-0.20466857990793724,0.16074060155240522,0.3163187461393755,0.05276081461611251,0.1198528742470398,0.13918440574699817,-0.4041853877100564
0.029253992912271192,-0.23074879178480948,0.04025476832131742,0.22102762874939294,-0.03711956234267543,0.02862425246758409,0.04982400490734097,-0.5006153751304918
0.33037213441582153,-0.16399969771792552,0.39584250994992143,0.5885019677278639,0.2811762968025409,0.37509056787988354,0.3839642040941395,-0.4080364175442738
0.3684144992527102,-0.15726762680968043,0.43127571859554387,0.6192379315156549,0.28890126936969107,0.38852613575555056,0.45294456754312457,-0.4072499204603266
0.3583955302954002,-0.1605291217159146,0.43076142703054704,0.6067304961111594,0.30028735677992663,0.37526727185907965,0.39417654496172183,-0.4024522533103685
0.24537823018924193,-0.1765997123896925,0.2866890407058172,0.45760982175483184,0.18258204896380215,0.2416942416619372,0.28681102727073693,-0.4007299072865095
0.13887018450115862,-0.20820076917340488,0.15322071861730624,0.3288746540511264,0.05363479307663197,0.11860692042295086,0.1533916684956434,-0.39768761028361393
0.053574935950319306,-0.25664710926793244,0.10397582322694003,0.24913061974730216,-0.021561486580346508,0.049257505932906086,0.07643232493110586,-0.42699288658337203
0.3691626362572151,-0.16382892873239177,0.4382811835581652,0.6424677415439592,0.34150822627645233,0.41923829368781085,0.43100103505976706,-0.4227803314050388
0.388729306482868,-0.1543927723028123,0.44588042016779944,0.6203880068033858,0.34221378221312215,0.4381270412576846,0.4736679890199956,-0.36972107512290786
0.3828678528458355,-0.1919288585882984,0.41221109883079304,0.6170366546193667,0.3087473407570776,0.426831726198594,0.41330905391818723,-0.388896662992301
0.2672095287776896,-0.19440496187435488,0.30244929332146686,0.48353044880085344,0.17011990361918572,0.256540177895035,0.2969781137030647,-0.42081038733127984
0.16930710556596473,-0.1881099801946955,0.20150615511988781,0.3582331313861224,0.08127095512728089,0.1601080500278809,0.20040962986209518,-0.4530483296413621
0.08167792722496191,-0.25417193297530083,0.10603720265471712,0.2659904650472242,-0.025378543963646142,0.06255465917470572,0.0777328495167741,-0.46324516641461966
0.3436747334616607,-0.1481746963246783,0.44010795315752266,0.6089709925469932,0.33025606607320984,0.3920338922946265,0.42381107116298555,-0.4199342345081894
0.34799644020979653,-0.13948601940093341,0.4144501808100631,0.5914025450951844,0.2992486397727284,0.35980859990611075,0.40983784391982114,-0.3914277056842971
0.34246348248821545,-0.14329897562367974,0.4019215566036121,0.5635887814275274,0.3042225288691882,0.36600394004702197,0.37310529993096286,-0.3798962165868304
0.21940077802936855,-0.1654315771423687,0.267342925837824,0.4276087622920249,0.183130964157035,0.23588562514254766,0.2925931080387833,-0.4047325820582859
0.10057081297074592,-0.23828836310708204,0.14462631570046222,0.2860004702314478,0.02110330171524335,0.09093865489341575,0.15818173110335085,-0.4307731723489069
0.265270879038563,-0.1776913941330528,0.3202110006074812,0.506351346683685,0.2131206305953377,0.2903396810931952,0.32785044254428425,-0.4618067820286924
0.4020728383252425,-0.17165163751490267,0.4673287716847371,0.6576025447616993,0.362995000052858,0.46819809143352165,0.4947109492870312,-0.3546027344740187
0.40756155081972173,-0.13393387745032218,0.47354078462228794,0.6643688582992674,0.3547672471764288,0.4472093696625703,0.4650927104392324,-0.3948703866798241
0.329069749218735,-0.16419717986708415,0.36275473950789294,0.54387799063523,0.2478939423689724,0.33094787838719564,0.40562190085969096,-0.3711903011597368
0.2103495773720354,-0.19965212080961972,0.2514727244718423,0.4065450284885416,0.1411326417921583,0.17923493835434806,0.22622534920560497,-0.36588983633331107
0.13145171475754483,-0.20365057984658716,0.16357658038044723,0.3363539206897375,0.06625083246528422,0.12510001295911516,0.18914987349429882,-0.4910525605813146
0.41418383935350594,-0.14088778408680994,0.487202204659925,0.6744552778482724,0.36893739771590434,0.47265444555782077,0.47997375442443535,-0.3383369783925859
0.44317501049560126,-0.1326931847860024,0.5198915715795212,0.7026161597621551,0.35672056410660724,0.4791792378501871,0.5370114725158563,-0.3714654573647131
0.43858091681789874,-0.1336041629376821,0.48010292114127223,0.675142831719014,0.34088642469870933,0.4120560566964204,0.49095924970541827,-0.38394592534621735
0.3172780029656315,-0.15308487257949327,0.37269162566410996,0.5296252133357084,0.2169827195583607,0.2909861425396726,0.3451721658053845,-0.3722007419740919
0.21432573663722398,-0.1894943376685736,0.261337238117032,0.41311169149267524,0.10213915787933203,0.18290962350841272,0.25735102490491624,-0.41974220951558644
0.1057251230337984,-0.22264035696288692,0.1288878091897819,0.3154847794355132,-0.009384850689800361,0.12406701230453071,0.15575735894959275,-0.42664093195548486
0.4107080284320856,-0.15902128192789997,0.46026738523187316,0.6706626219168023,0.3541648592708496,0.44107495116276174,0.48195899164870254,-0.3904736131048946
0.4326822068497635,-0.1476639494656384,0.4867927351554428,0.688787869734691,0.3694703802289323,0.4772859883093114,0.48088270104351577,-0.3708193899443193
0.4143456485923005,-0.14600510701400676,0.4627794414172426,0.6648491362405013,0.32625956252427407,0.4517339737154459,0.5186122282170385,-0.3376631406205804
0.31925592812795406,-0.18877704325614583,0.3651797896137121,0.5485015123077995,0.2400133028427175,0.31870469142204055,0.38305016553110954,-0.40707288135798775
0.20402607608773074,-0.1909965174772111,0.2583852967700573,0.4094046967498275,0.11543308313567237,0.22375369566111974,0.27161139939948664,-0.4103033650442094
0.12578452823821368,-0.2027683366217468,0.15844153389920604,0.30068782099674835,0.05990719307551882,0.13703177443276143,0.17335103361347612,-0.38580856885839837
0.36542462863003433,-0.15131281633546304,0.4399955210608957,0.644190135401821,0.3164236208862759,0.42442975956322804,0.49971100255259826,-0.34464620748185393
0.34946916973136155,-0.15941310088538804,0.40822434589138684,0.5898296244461341,0.30096807256197267,0.3798619902627767,0.4617702116901363,-0.38389758104621013
0.32503125042782893,-0.15631232327390546,0.39524382864542384,0.5445296387343649,0.25926378794181554,0.36051052653404364,0.4047914352673952,-0.39714938690737844
0.2002732513127991,-0.17097594425976176,0.2605745223214275,0.4011865897157473,0.09498576764128884,0.21454504214445547,0.26523984498027986,-0.43465862022268
0.0767648435538132,-0.18916018184437153,0.10252487326198212,0.27011693449287566,-0.01069234619271724,0.08835747488247472,0.11832129658503969,-0.4170621193633369
0.10896372761295735,-0.210528212384991,0.16931584690847276,0.3303838301791838,0.060051551409041774,0.12342550252060913,0.1907373117877599,-0.425733577183557
0.37884533859313385,-0.12228610864027613,0.4652302065965663,0.645721975614788,0.3571730117861037,0.4392169270088895,0.5027290319537823,-0.37028876449498027
0.3853245647819395,-0.14405738084095215,0.4453294079177833,0.6202576862885643,0.2970363987379124,0.41715849876852185,0.4730931157563821,-0.3661615494238
0.3371186749424929,-0.13809814082225627,0.381258458187784,0.551904901554281,0.25024521858762044,0.33491982277483756,0.4227271838128242,-0.44432667822872474
0.19279555466393963,-0.17716213882184625,0.25145566728068336,0.38217278748422073,0.12149847658168698,0.20499773787045467,0.26364236793371476,-0.40059162498944834
0.07841379649449551,-0.20943124971314445,0.12960114254527513,0.24980715913439047,-0.005900422684616617,0.045856278689554206,0.12580200251548307,-0.36068504341190977
0.2594100419669689,-0.16558582542613573,0.3451633684310995,0.5050431210613093,0.20438601239234544,0.3136353463817414,0.36002200978192156,-0.3939325365913915
0.3778904510399555,-0.13122658168826057,0.4507235712331603,0.6212268357293055,0.315370134283132,0.42784635703958535,0.48094640482039813,-0.37106550084174983
0.3494020339460565,-0.16033689171251647,0.43516296674471905,0.6153277525591324,0.29785123801330227,0.38726444593466497,0.48521674561757505,-0.3344074763748566
0.27672306395441654,-0.12343353303447258,0.33220311993363344,0.49566223836751133,0.21678094045131016,0.2962994145329568,0.3128121000253217,-0.37398084376243146
0.1318007724562558,-0.1948415968309983,0.1980261173776073,0.3483056369907972,0.06055266721794427,0.1488889091627265,0.17030027919912402,-0.39506792928093354
0.021163247592915095,-0.2125318812416827,0.033796273714866036,0.20565130374169588,-0.05421588401215424,4.0346826462874E-5,0.027243421501082273,-0.4284774433862579
0.23449853994492711,-0.18664350424175338,0.30181924525000065,0.49777511220142223,0.20007440777906216,0.24342713822938436,0.3379779319164845,-0.34283492964000584
0.32636186399607,-0.12203502845387483,0.39210301720993285,0.5665829031920553,0.2956957857894893,0.3637231757564848,0.4167288547582061,-0.4251874546165343
0.32493534436299915,-0.1243101206188122,0.41154608926977126,0.5793210711018189,0.2651788982474209,0.33159250932783507,0.4108105838324987,-0.3981177032139471
0.22565280411302988,-0.17367553442155648,0.2815625265396558,0.43006571525188025,0.179027160630066,0.19964463896900986,0.2745237244703305,-0.3540118737326483
0.1129280608817215,-0.19682828467637012,0.1437130851503837,0.28734221944053195,0.028054503643678633,0.09434860307888762,0.1358574552515155,-0.36293814387093265
0.1572674517774971,-0.16626079364742843,0.22527919518314712,0.36595044638112983,0.08477939276621005,0.16371360829238188,0.2235491200317446,-0.3938583371156072
0.37776125532390264,-0.12052799077456271,0.46716474152415055,0.6306492405377843,0.3398664969035179,0.40885403252259306,0.44787680687434933,-0.32209997584562666
0.3798562850726911,-0.11038483697019955,0.464766233903031,0.6298566201428375,0.2995724309362111,0.40960522782007586,0.4739945845403535,-0.3104789145905393
0.3321274645087348,-0.0978088672616164,0.3874580640380708,0.5643036108549017,0.2597267786959343,0.3218828380637196,0.4114193445041178,-0.35602605552037675
0.20800452301272496,-0.15760531014398527,0.26531270035237114,0.40741867322482417,0.15346622715547656,0.22403358790184646,0.2833793961308851,-0.3805297999979462
0.11612346598187351,-0.15246609086417948,0.1550034864508718,0.28932141720773097,0.05120118583364339,0.11556197017908021,0.16898654014788309,-0.41872927828807377
0.33991148446592223,-0.12724606469036143,0.43937715899281166,0.5943343074662256,0.28429113817260115,0.40469921230629413,0.46380061763531943,-0.3636689245945594
0.4117520189772308,-0.09838292363021985,0.5115588630044396,0.672533965482898,0.3856892284407848,0.4843500657085531,0.498519616904384,-0.3121738994539699
0.4458990512571532,-0.09307122572597189,0.5086093952295384,0.6792356166045587,0.3852455045580306,0.45649756448363543,0.5410707964574314,-0.354815409255145
0.34725787944060377,-0.09512833618462292,0.402779952565272,0.5579896509771849,0.24875595835078168,0.3671353242911064,0.415359223433042,-0.3132170218444909
0.25569326585729274,-0.09173455892633979,0.27677228009658056,0.4466395267957721,0.1620610855718118,0.2514780993655444,0.3065220162803016,-0.3735821841802561
0.17556417739568536,-0.16706434367943793,0.22480340875622284,0.37977353647202594,0.08818399694258605,0.19268539306910243,0.23694943676025837,-0.3269166995690891
0.4469045564934541,-0.09486025102497544,0.5032177873892061,0.7092330837750465,0.40293577025164445,0.4873394112529278,0.5640961977422526,-0.3215958657817176
0.44680180230891703,-0.08686621078989974,0.5282014562642913,0.6837726612525247,0.3868493820289424,0.4839559870601047,0.5453472626110407,-0.2791026398029879
0.43852408827200273,-0.10327046688547363,0.4912604387350897,0.6834999672325466,0.35829802934807314,0.4783589948492651,0.53545284823638,-0.3571351703374358
0.2922142117672873,-0.11384883860345141,0.36702089018630096,0.5408036282654832,0.24543282745017708,0.3316154798585562,0.3875138456976291,-0.31061545940747964
0.20907010422080435,-0.15460307154175693,0.26619867717105933,0.43140983046300097,0.14682577317394874,0.24607219893415988,0.33205253522531586,-0.3632075167391465
0.2157681132940128,-0.1571574110262531,0.2725295002288755,0.4404843057428809,0.15841274748731066,0.261201183652198,0.29809022769837085,-0.3751887863982149
0.42688529095443256,-0.08291282072799247,0.5178186582024694,0.698854475083849,0.40225381829872237,0.4881548012615854,0.5768679896915089,-0.3279101356731978
0.3961040480548347,-0.11626173958364114,0.4794080076067354,0.6542680505278404,0.3743505671182435,0.4582473386912536,0.5418760927416209,-0.3412527421791893
0.3541266239497958,-0.1399429573360848,0.40974605324560615,0.5742666501885986,0.2918784664315967,0.40697322428095306,0.4709423239301038,-0.376842356074074
0.22909976369825935,-0.1269306429898457,0.2892566288217964,0.436884424503468,0.1457575969320071,0.2620817217537466,0.3391230269313475,-0.39936762670465287
0.1421697116188103,-0.14817234564957638,0.20490015792053187,0.33555481782893004,0.0978701616539351,0.15922885591352082,0.21791525761471014,-0.4225451740325795
0.4208693545248034,-0.09687947921606134,0.5056263806050744,0.6692416489849516,0.41185285927061316,0.4921674285735143,0.5870123662086646,-0.3032563058642915
0.43755392613072547,-0.1174645295369938,0.49890110076818944,0.6867033548755804,0.4083208699828192,0.49873173073234656,0.5960058612485925,-0.3551382507784415
0.42309999134882276,-0.16250836551703474,0.4655420383265122,0.6770913604935292,0.3774274424515122,0.47148914030367894,0.5625082644652383,-0.28701898157585054
0.3047173549453082,-0.21880965558450186,0.3603691090635158,0.5288566465884585,0.2535512059430577,0.3665843373079245,0.4510517407327424,-0.3540563949836799
0.20877840336792974,-0.2025256150351766,0.24310949102346285,0.4052830602401165,0.1606643331677675,0.2504042675496187,0.30095224638322143,-0.29675118005213186
0.2283124551841795,-0.2248204092962708,0.27253325356559227,0.44514785686032915,0.20340876300741859,0.28661265408397524,0.3525352285583218,-0.32427207640092104
0.44733481198861325,-0.14148045349368044,0.5227886939501756,0.6869001693367208,0.42213778842668015,0.5281698501314958,0.6383378675707723,-0.26877205883987876
0.43382604742912506,-0.1580337935492532,0.4905507607289297,0.688956807955498,0.37354118995010405,0.5102542763998164,0.6093993871801713,-0.3020885192232069
0.36715944712795967,-0.13423104241028966,0.4342560789288306,0.6211241152400646,0.32270245173091455,0.4222256013194147,0.5127948431624472,-0.24867637863624112
0.2525904173904842,-0.16309913425404157,0.28674534679163177,0.43158907996838625,0.1872143008689098,0.3085816752768372,0.3512901633534751,-0.36070663574754275
0.13433476018697996,-0.20130126624547506,0.1721420923100407,0.29707517623883384,0.077436655267661,0.18645476519154655,0.23622918142432625,-0.34573375099326753
0.24187546223715214,-0.18751517199370887,0.30205094442032837,0.48514752256199045,0.1749324444371533,0.3485452632467453,0.39950467553844227,-0.30155990302623953
0.395141525926308,-0.11336727093367113,0.464633786737387,0.6349744567512201,0.35731159761750997,0.4695921762281854,0.5379858971170435,-0.3168443530088202
0.3599876701389401,-0.1514857494760144,0.434209069970396,0.5998184005460284,0.36739294819992213,0.4535809524598581,0.5177663500053282,-0.3695205273360827
0.2791767262040435,-0.14513868351673084,0.33954076317466575,0.4975369973523274,0.22819622837938322,0.3486886432983074,0.40185435032454353,-0.23134566501608889
0.15316954368453436,-0.1880401645788777,0.16681769825353185,0.3180283474013715,0.06432531437143886,0.16261583672163468,0.2508644355568768,-0.31754133363840376
0.17678773195006356,-0.1450676472521598,0.23134054935659584,0.3902620785792529,0.10941400919534605,0.21550287095934448,0.2987322890151759,-0.35259621010871134
0.392119398570416,-0.08245198476522267,0.4717601030847578,0.6173819627099593,0.3356831252194794,0.4783374668794802,0.5486087999544449,-0.29866427639465065
0.3586650985985407,-0.11966660101411637,0.43190419352372394,0.5639169052847856,0.3276006998022029,0.4292600809004842,0.4788457409237386,-0.3296884863827147
0.28785787686448544,-0.10689606199698214,0.3513518720956092,0.4535721415739624,0.23877025708731633,0.33158163319229644,0.3936260426647248,-0.313530141816551
0.14809962942135838,-0.12228544983458572,0.20883219157889626,0.2983388780515031,0.06301245928362015,0.17383046494662205,0.25343367235503855,-0.3677587057437735
0.023795687500385222,-0.2138939795507267,0.03886188272656162,0.19420586755999683,-0.03392020288782928,0.03603975777847629,0.13510982788655085,-0.31559872661939015
0.333129115968477,-0.12583647883420782,0.4080705161197299,0.5530507349304776,0.30503503641148744,0.4158256369577335,0.4527665800672867,-0.29879446090804035
0.36577020576611025,-0.09059320592516436,0.4243517777981787,0.5614182348240876,0.3309159632720798,0.4193099292542853,0.48449609132732435,-0.2972204162152312
0.3565663391933653,-0.10340090091939784,0.41564433787330946,0.5348145634458736,0.29840153188645857,0.3612159419829786,0.4658075973697064,-0.2938437750373225
0.21432338506342535,-0.1313403298394139,0.24588099830529594,0.385768083735054,0.12124939754837437,0.20213261888038325,0.2803913992332536,-0.3752857857944993
