0.11491978203160255,1.9625719616109147,0.20226261996554246,0.10321318438258084,0.006946403686740252,-0.0044778308135567935,-0.028784201116155157,2.282142470258334
0.5221943101999517,2.127480845346173,0.7510217947327227,0.6310751660330332,0.47321687986172956,0.4751701872828988,0.44941193035728266,2.4911872722036685
0.5511113756196687,2.148706335575512,0.7574259785124259,0.6532378407283664,0.46580603403081416,0.4728066329754511,0.4973193964248179,2.5411462166325682
0.5381316673814451,2.12848935956779,0.7260775568336301,0.6357046746609735,0.43128167281783136,0.43223751168985575,0.45020200764803187,2.4858506867805747
0.39869787676353746,2.117713801137459,0.5522776322921389,0.4633253093365819,0.24170604000189783,0.25976755485205916,0.26708987554108865,2.472727947002071
0.26050486596298533,2.0477876849127923,0.3771217911501533,0.3012733678585137,0.12019785199633366,0.1151680239687667,0.1362610468782323,2.4058585248837585
0.12914586801951158,2.0374932469688183,0.22221216703328112,0.15163914672604775,-0.014483471626841929,-0.05852472078327904,-0.025707100496420304,2.362294279041215
0.5248189029586223,2.22686111286032,0.7261163351487014,0.6641286889438235,0.40542375679629294,0.39444758561032944,0.437005339255645,2.538472740088374
0.6348262770984572,2.2551415882951655,0.8673991183772164,0.7773963353068145,0.5333077479983094,0.5430502714314557,0.5637444197233992,2.6084289929051487
0.6590173842683318,2.2788995594050396,0.8719927687997302,0.804817137686458,0.5166248555414095,0.5483103204794888,0.5777862582473431,2.658995052169596
0.5510265735051603,2.2609612210592274,0.728757865840264,0.6584428902810568,0.4092675112250088,0.4220820942056778,0.43527560260915094,2.5353837783946123
0.4355451813854079,2.2254685945199464,0.5895155608172129,0.534193754321655,0.3103488890134721,0.2543554874850155,0.3282117475783082,2.611296046798368
0.4487006192150202,2.2342999027676904,0.6228010376475273,0.5693065011234919,0.28771221274504283,0.2997205331294794,0.34226255940236217,2.6065256445480376
0.7232506266024804,2.362813879464301,0.9690403393739754,0.8905985814816002,0.6019677585511828,0.634503954908519,0.6709970759265925,2.7205919695777245
0.7036971808941798,2.343621418828506,0.9345901324884287,0.8660673707541698,0.5537914194603117,0.5837119347905727,0.6339715621372887,2.7757302305108253
0.6719832370312189,2.346846909395653,0.8903842865122531,0.8112737534828937,0.5281213971258213,0.551694899654895,0.5938413288698999,2.7033714995536444
0.5297912484880964,2.318757071765756,0.7063153378119613,0.6401181757386738,0.3547041321552969,0.39349534479395815,0.42386554301895807,2.71839629340873
0.41015535284702487,2.294093371698173,0.549542818365515,0.5001693894287788,0.2435905129375638,0.2651613916729881,0.2996737886648579,2.6645279985967614
0.6986559321935542,2.4457287443424804,0.9697338248055662,0.8928384150507194,0.5724715151395968,0.6251096035067258,0.6596481050736956,2.7983766534534036
0.8411225678149912,2.4663876625437835,1.1111397627788042,1.0348210975411374,0.7171515084867981,0.7607126597128899,0.7926821110612016,2.9003647507275443
0.8592089728882333,2.5288785508652665,1.120039943420447,1.056620286957982,0.7353587493404412,0.7734545773198412,0.8477115277220101,2.8672101465164594
0.7591648904870869,2.4872576307299594,0.9993228538228089,0.9330579039547064,0.6179287553851132,0.6706798394362391,0.6916027393724931,2.8454330782832997
0.664912311287692,2.443679859409298,0.8804920819001055,0.8077288088187466,0.4901336061276079,0.5843418580515493,0.5976536489187352,2.7954711030521278
0.5403793545026405,2.428836661619412,0.7475073261211093,0.672211841271507,0.4234108328834601,0.44328420908588007,0.4928205625025506,2.825783865964874
0.8074715247718796,2.54102218127297,1.1163595223363698,1.0282689129404787,0.711948688649257,0.753966452959594,0.8096005105544367,2.917291745020135
0.9527462888794581,2.582638547189089,1.2515661563424956,1.1574736345055108,0.8365169128742463,0.9013723514421377,0.93685551219696,3.048766046348491
0.9730250636600198,2.600177969745933,1.2613629927984271,1.185331397602802,0.8302555489811275,0.895510401579657,0.9587422952235876,2.998635700693843
0.8791583034320409,2.5596074530377266,1.1389510418266617,1.0815481726797689,0.7525835128643169,0.7943556480907773,0.8617159855923637,3.0184636617940424
0.7718811834380187,2.55058441492938,1.0319908284235568,0.9786354916709336,0.6550316542287192,0.7052033137789798,0.7566635192205213,2.9818525595476864
0.6685092422007743,2.5132489448512887,0.9079568923945276,0.8493395342483018,0.5417863279560984,0.6169986929174655,0.6417482468954976,2.943818413764343
0.60581407883124,2.5392564560646367,0.8608250243046058,0.819742477742389,0.5030909509370586,0.5698202751060794,0.62633438902816,2.8853126367039885
0.9353832541401474,2.6593140451621085,1.2509735208713302,1.2101536559888066,0.8465710056578691,0.9250815050099929,0.9750147547423518,3.069877664196826
0.9583008606296174,2.6657863095739476,1.2613245160673374,1.208578261569535,0.8322206730051674,0.9157721498133609,0.9974988309554437,3.1321151630184243
0.925667075836869,2.6809518502167227,1.2242924618809587,1.1698430120939551,0.8122508142031292,0.8854743133190881,0.9730692881286978,3.0379368620787597
0.824091083681987,2.6164386168654215,1.1039671403185607,1.0413792689103032,0.7003879517413704,0.7602468363912632,0.8299716599752587,3.059673110066873
0.7137933078232865,2.6195865317589626,0.986959971840444,0.9194472313065274,0.5914246867941283,0.6754489622694391,0.7139267162314501,3.0302840958466026
0.6842697739980118,2.6231039244421614,0.9758654684715415,0.9178356188400563,0.5584957940146573,0.631935691078121,0.7087473018014105,2.9711149772006733
0.9887710047998688,2.7185843951970106,1.3116055541636507,1.269216529345995,0.8946813341480725,0.9733889106646312,1.0559277715273274,3.1883025326451984
1.001341770840044,2.7171551198227153,1.3231697736759984,1.25337741778178,0.8678967433893646,0.9577845601885547,1.030386107204487,3.106049758909188
0.9678619455025667,2.7479411937464793,1.2620250360223986,1.2043800266885238,0.8236128778623291,0.8970057272656977,0.9830569534103439,3.1892070687908625
0.8210500899172741,2.7291852085213457,1.1102328791647564,1.042096489355546,0.6756099105564257,0.7729980020269982,0.8475939296398555,3.133305387321235
0.7036947996290795,2.6685124191851335,0.975774485138373,0.9171823708840985,0.577363614000639,0.6516073849081973,0.697290269504274,3.135856045549687
0.5722049229472754,2.6316698557585085,0.8009705708860486,0.7520104418349132,0.4242197024429391,0.4855836413764376,0.566916526299216,3.066383040090984
0.5833660045494203,2.6537249064556514,0.8237056103204393,0.7851417349268917,0.45226466790261993,0.5359273782184529,0.5763716638618693,3.051659415717884
0.9162756658623616,2.782184019575484,1.2462677521416323,1.1951705198503024,0.8055471760923913,0.8948402602262602,0.9730692681561215,3.2175911821426673
0.9174818141977199,2.790732155356967,1.2526084008915779,1.1969800035319262,0.7838541943873661,0.855451914591651,0.947372698962285,3.201943829759033
0.884074156436415,2.774922198875297,1.1906197570222463,1.1363734210688556,0.7038779153058601,0.7969072491030313,0.8645207689921158,3.2343022494691915
0.7699317541027851,2.7447679439624055,1.0216920264345941,0.9647782474725473,0.5938266241331512,0.5979718257077857,0.7164308118573199,3.1831580728180358
0.6395139487862112,2.7173293531174907,0.8813064204728912,0.8291791882364618,0.47400609111650416,0.5062501453947156,0.5829162332055207,3.1062133954992284
0.49142131984532883,2.666954604384098,0.7237669031606727,0.6665106788526188,0.3428929857472007,0.34765693632022965,0.4300482528215624,3.101080209533917
0.4019692218222986,2.6286792549579125,0.5915310521368687,0.5397619416506958,0.2221153470792438,0.2570778110534579,0.33789898207238184,3.074048192673863
0.7646372313448837,2.782427832910618,1.0802995289890915,1.0082653988688444,0.6523727882316479,0.6789481815987997,0.748939123848732,3.1891719709555617
0.764467326588662,2.7596763441982595,1.0521082077423392,0.9885015408377841,0.6342796176445086,0.6457941664286115,0.7588849763303688,3.198823646267172
0.7341520117701912,2.7957906288187298,1.0489192873693376,0.9523034101286604,0.6100580210244088,0.6396930104963521,0.699469361646539,3.2412831958430104
0.6092352610055041,2.7493983504775765,0.8617851137548701,0.7589836101045098,0.44325131735313106,0.43776630533969285,0.5421604435778457,3.1821983818439445
0.486566012244049,2.7121700707460157,0.689013321071832,0.6119740970687138,0.32203579537099636,0.31878821199767676,0.36834760971370145,3.16619745901232
0.3807268780052607,2.6683639873283567,0.5560283108749369,0.4780494931636251,0.21132821906859905,0.19735365236793045,0.2830099722177167,3.0323121583734505
0.7420474524743247,2.810674071810142,1.0538699752832679,0.9521342383019384,0.6134914809869331,0.6120707886497176,0.6981137198251499,3.208788119167693
0.7934390918493799,2.8403827911998407,1.0911869012980862,0.9764250482443957,0.644658925453454,0.6522165946610186,0.7209391953937756,3.2450437449866336
0.7882071999957776,2.835873972768962,1.044825099709461,0.9343356970433262,0.6264669937640366,0.5942906220605321,0.6524206232840669,3.3105121045239545
0.641207319496928,2.7906215693473824,0.8599101002383625,0.7483653762699864,0.4536797122316093,0.4356001056729909,0.45990345653752707,3.1436448057991693
0.48746386524276186,2.733013092368459,0.6717131035923793,0.5830944796984638,0.30985107725969324,0.2793165994515141,0.3085590501641918,3.2086230014346127
0.33045410730307184,2.667576329834811,0.4989869926081655,0.38083849353623844,0.13964615907277528,0.12837015491824108,0.13423722301596633,3.1067729251014744
0.615987079556733,2.797898591180494,0.8944034893315876,0.7823742914656033,0.45203123334559164,0.44707388550975224,0.46758333909026506,3.305674833860917
0.7745582906223342,2.867218414702102,1.0575079612502836,0.9361054878375032,0.636317214168234,0.6271967133586217,0.6345243524236646,3.233725141032617
0.7752545330636542,2.855246938838239,1.0573826906728176,0.9031088284957972,0.6115740759481615,0.5934828723808374,0.6340835656382044,3.2793841232264413
0.6554481181809858,2.781402124518822,0.8789357842312545,0.754433805712203,0.5096765978237299,0.47808188332461865,0.49130486654351146,3.373861707033215
0.4929833206131008,2.7569622738581945,0.6842394425391601,0.5757958772723111,0.3111587990013933,0.25545856735197536,0.3231233745780186,3.2254201935195472
0.3491336531867668,2.6952331146849318,0.49509692282083745,0.37221119652101264,0.16517237058760564,0.1457341047204971,0.1619898567427724,3.1770505597216405
0.26705214141739986,2.6478866756916957,0.4158470748283578,0.31369165934366794,0.10883594101077532,0.06220341440641847,0.08231230956077548,3.028568008948624
0.6858596017119373,2.81376501421178,0.9805185363690179,0.8313108381886366,0.5554591784274032,0.5440340608362267,0.5539178123554641,3.225554960287901
0.6782138943521837,2.7955004928130576,0.9562218750186261,0.8222054237921557,0.5416630055344148,0.5315371673351159,0.5292102842676595,3.262846232912627
0.6580308604869187,2.822572932931408,0.8963436235759493,0.7911692677937071,0.5125408578843276,0.4868868620926389,0.4811979789838565,3.2337947290424567
0.5194678952095919,2.753927375194102,0.71603300025606,0.5952664209688134,0.3491933099941192,0.3188004179913924,0.3081246153907959,3.1894187105137597
0.360603164373009,2.688250552668719,0.53408833184064,0.40448596224870215,0.19762187226094238,0.16658662922985612,0.18161325653128482,3.137493699272324
0.35616379718697455,2.6764642330691055,0.5428408008203095,0.41812556842915694,0.16593816362897362,0.15216648939856273,0.17327122269054399,3.157559093298472
0.6484692323047951,2.7949108953012667,0.9179689628407848,0.790776531542333,0.5028641766184321,0.48875171469543083,0.5005878623714206,3.2286227936023773
0.5870800300852559,2.779623163099588,0.8459489917038399,0.7088714113573943,0.42873296204921985,0.43430227587275855,0.43854598804254136,3.2803809633699244
0.5399561280336488,2.7667124454563727,0.7795244726927302,0.6298439380011547,0.34640715970950053,0.35865994428397224,0.37118926066489544,3.2379812987112633
0.3660137690209976,2.724108744148999,0.5241239378040975,0.39238632824604575,0.1729916687841895,0.16176815724517257,0.1729501511967866,3.096529876664978
0.21021991182937552,2.632996021756636,0.3438014149163377,0.2121505180283267,0.051093707711106454,-0.015739700139713635,0.04319072814430158,3.0851538680690807
0.4940446369821467,2.7213470860055295,0.7206967077384542,0.5827315357715218,0.312273268441739,0.2829645994205361,0.3082321614416152,3.1540237481268365
0.6741021442806505,2.8078570307798607,0.944388681403496,0.7925383875436381,0.5136686246429515,0.506300256228899,0.532881965847873,3.246035635765782
0.677750617799374,2.8259936888302257,0.9535568231187599,0.8022688215767452,0.5014485429906226,0.5021417636418777,0.5279138784309247,3.193542231936251
0.5809061941546193,2.7839385822128,0.7936075123720434,0.6560381931857164,0.3818952356522384,0.3634993874630087,0.3881338572302032,3.142514862831138
0.42631517824251863,2.731128822510889,0.6047561935775382,0.48595103407281665,0.2110984092090356,0.21569860323140966,0.22158278318171884,3.09656751873333
0.2867556568639156,2.6767004086702313,0.4345817929617563,0.314158796580822,0.07410947887711382,0.06597900388552574,0.04383230050684944,2.980416083813429
0.544334147298022,2.7678661664808906,0.7873772613793957,0.6660904299625122,0.3342035565683004,0.33532986872286646,0.3481144520316883,3.0842406353368252
0.7120199118518048,2.8073953269347256,0.9911654183600874,0.8859753223864708,0.5229490184219079,0.5466374181623803,0.5486712280365321,3.2695371631960652
0.7264732181549477,2.824163015412942,0.989580573910669,0.8827023512859015,0.5181381382547112,0.5099428155224687,0.5063592259074188,3.224675952264385
0.6097048554650695,2.7797783399961857,0.851792196687788,0.7305203388356486,0.4118114313696638,0.3835766457093071,0.3830865738723629,3.1483091100724945
0.45576883347544794,2.7262394967620516,0.6428482831910316,0.535690103740277,0.20780671084648888,0.2130442096618806,0.21991787462674448,3.1010978187540577
0.33222441879776543,2.6764205080924697,0.4955306799910323,0.37714000285897525,0.11431684105862813,0.07345724041794296,0.09440470308816751,3.102480321923071
0.5199871305152333,2.7916827899741934,0.7597496352753637,0.6547629309239669,0.2921753524369906,0.23807405289704986,0.2897093073447161,3.2075031382130588
0.7101384516784849,2.8262222946395057,1.0173464930954794,0.8878404853079257,0.5216242284778878,0.5051285345202813,0.5525900235771135,3.216598010940813
0.7274842688252955,2.8182656342723917,1.0034214118446692,0.8911592078556725,0.5270512645253169,0.516618533340319,0.5171434726403601,3.220860923940218
0.6405206530591735,2.8154336731370178,0.8665043551984168,0.7679596806293848,0.3966907166944431,0.3929169905406671,0.4417288919214933,3.204027455665863
0.5001847081061644,2.7551962649097286,0.6862858425309777,0.5689657486352535,0.2685966855698414,0.24531450446503633,0.2659939370026643,3.083854990906952
0.4596203089275143,2.7269975283617844,0.651627185024632,0.5485021406961356,0.21605097882198637,0.20586295000106986,0.23030108911522398,3.126789347965608
0.8119695502149502,2.858582989344595,1.1046171694679834,0.9775742732860652,0.605730121537434,0.579649864272301,0.6352256006177667,3.2674546560884905
0.8181268547782368,2.875231870486642,1.097864403031124,0.9810127587452946,0.5759532306319346,0.5941630296524655,0.6220256785623124,3.1981263527643042
0.7887967796491357,2.842752746670228,1.0694735135849824,0.9532742792609303,0.5539125338029681,0.5607035369755557,0.5752669321859638,3.216646574940024
0.6606779886273267,2.8205956975093547,0.8783683129370797,0.7777621527571282,0.40373684771486623,0.36836992105927396,0.41451389040381587,3.1484026771852465
0.528624221939103,2.767698467064049,0.7446501264066736,0.6195127627070192,0.28685815158920325,0.2910044790314571,0.2911356198745564,3.1090981028383915
0.5417188570690605,2.7504640486900285,0.7668184210951453,0.648498703048898,0.29066617410096224,0.27336514545518475,0.2999794767285929,3.1062499311603986
0.8540545890558918,2.8967464589501963,1.1730647799438803,1.0386087872528669,0.6585937747409445,0.6600626601040469,0.6738491232249296,3.2253648263441628
0.872405516976673,2.8875539682127753,1.1692204413419607,1.0246368393063794,0.6225659049347394,0.6309741343968499,0.6670189851473147,3.2910478684160647
0.8417621960192735,2.8655214464224974,1.1069978267394065,0.9878677689407547,0.5972769645814469,0.5598566873583298,0.6449949786578454,3.252953057649191
0.6941497256588687,2.817838202212268,0.9396860459863408,0.8378888681735922,0.4518110891930075,0.41581993683711327,0.49006742926660474,3.231993006090061
0.5822795010584356,2.7813287793488293,0.7901490522747906,0.6730487106150327,0.33241542647589256,0.3238976664780776,0.37635819533845205,3.135846213945261
0.425591892040508,2.701482507052867,0.6299326756497506,0.48603517209049607,0.20087195144395772,0.16088242926580237,0.21358617378276876,3.05826102001115
0.438593262932024,2.7146212797645726,0.637946813006873,0.5442769974444773,0.19338201747680328,0.1730417291364644,0.23550770720634306,3.1338877853713254
0.804316871573712,2.847057808063738,1.1097439965468272,0.9945324139074994,0.6266389437986262,0.6282980099326462,0.6449114888295132,3.1574328511961327
0.8090273487999273,2.8104997979891095,1.1199364987406728,0.9972147491187979,0.6282377539695319,0.5890593966757729,0.6271541890303266,3.151745593197146
0.7927067095558913,2.808155552892458,1.0573247815790745,0.9475469778155985,0.5888402637668263,0.5504068083104448,0.5950648065379334,3.194883586909391
0.6588868874041213,2.7381311730353195,0.8776811083158025,0.7608270258696879,0.42050471022178953,0.4195864627643047,0.41756290041656935,3.0927536971172764
0.5225003757842698,2.7093997330998136,0.7284614016220239,0.6058853900729799,0.302286419352639,0.28053114069917656,0.33704646266648164,3.0335516147258077
0.37321261855210863,2.6376044404703487,0.5359180661304697,0.42432764818845586,0.1704189140928634,0.13927545174276557,0.1635123614268339,2.974181998341244
0.31132232162741114,2.5784345496180805,0.46198151222278055,0.3434355462859447,0.10604026465548151,0.04178855762472133,0.08240050468831445,2.846100469227244
0.7239356521885193,2.712887800170512,1.0080158264484487,0.863012283817755,0.5392965477962317,0.5221577453453261,0.5630415069831711,3.098245908989654
0.7307424127242271,2.707978502171856,0.9994204071261445,0.8696103573747009,0.5574613943458063,0.5492200813965259,0.5392723519216684,3.1089984957984163
0.7265981675932586,2.6913028296606765,0.9728856839742536,0.8496345933595524,0.5498081577183266,0.534308767394651,0.5745680097345983,3.074939452286869
0.5992514428214877,2.6139735497714627,0.795344661809063,0.6770718155505018,0.38158894181845804,0.3559853346653177,0.3801641066330673,2.969649201458683
0.4767119867959765,2.5625385264061675,0.6565564872425518,0.5285190834703064,0.2748371618021773,0.22021142907268784,0.2546766584611366,2.8572588852047116
0.3255556427575443,2.446506142935477,0.4518504628510722,0.33316297927045346,0.08923538183196791,0.057188911416232904,0.07353316046180747,2.7133235606286044
0.5304613251301263,2.4979446602403463,0.7629951876116282,0.6204183800921332,0.3432385453620176,0.29109333975855817,0.3108348256595151,2.831149776725333
0.6956927927060458,2.5367134584863917,0.9549210947135534,0.8450574804771162,0.5356797935909617,0.49752797377685987,0.5226140376579647,2.8548498720752673
0.6978474705658864,2.508894105560805,0.9520170139004193,0.8424957590332194,0.5022023575327806,0.4784382581205182,0.5182692564441632,2.8018629273883175
0.5768990253262927,2.4704377914607187,0.8068594838343484,0.6758185971106438,0.4044126267254966,0.39304737040024773,0.40744282417589345,2.7277236572416586
0.44444810227926557,2.350886880769007,0.6042774691997475,0.5040932782535459,0.2719216174142341,0.20199099354984587,0.2258976946517207,2.6714864617972234
0.2908044078801411,2.2728114296280677,0.41484482916895316,0.311384475763172,0.1206785948148623,0.05145224231056035,0.06742204231334535,2.6063523641385222
0.5044194657218829,2.338618333980778,0.6943463936032509,0.6058762890711691,0.31483205434181377,0.27729752313053674,0.29292557606018665,2.6941097194073165
0.6442111690276217,2.3624022435123018,0.8754609421223681,0.7815159847120063,0.5085545782759725,0.467435704822505,0.48280454156226943,2.7321542786755817
0.6518979527076025,2.329715763884714,0.8897141740117234,0.7801519344618602,0.49683180170160735,0.4552876103524138,0.4899890245345926,2.6391215503910073
0.5416603388797354,2.262350525547393,0.7427798432799303,0.6535413278511315,0.38653228243278964,0.33860574127529397,0.3821063847160403,2.565971127915587
0.4122094158685049,2.2017546730994004,0.5771032878492844,0.5041547923185206,0.2646901604628428,0.2125359325363037,0.2416784501982058,2.5234675638433988
0.43550241743148266,2.218162080816829,0.6342395787115289,0.5508286254354573,0.292312171557208,0.2549523091523477,0.27861629866058035,2.49598626255963
0.7081031331047956,2.275174150071549,0.9429105594953138,0.851870905908722,0.5540050771590479,0.5298140446942936,0.5673484972519516,2.7008748777157536
0.6780591644411442,2.2590454546126333,0.9066628824300587,0.8250981660741792,0.5297681693392584,0.5086656348087105,0.5153437871388142,2.6188749667315223
0.6358539901970774,2.236377398293647,0.8389730446848737,0.7563620845239782,0.46670025826004513,0.42792468665955957,0.4801626972257792,2.579283341644161
0.5148701978168345,2.1926152122993354,0.6802844943804738,0.6013801141267966,0.3366778223497153,0.3052453365274649,0.3428703887146255,2.523628635454528
0.5194730674630718,2.1833914358373034,0.7284986452950775,0.65467794763346,0.3800671822724011,0.3458540299656233,0.37396625684373397,2.5294794463644688
0.7952379245191502,2.271988584782929,1.04893553131556,0.972176454585266,0.6733146927413891,0.6217898703126825,0.7052332811913322,2.6702008298466384
0.8095414616353293,2.311642642353037,1.0485221513808145,0.9596723479319551,0.6455640487935888,0.6274678380134242,0.6827523525308814,2.63802471482917
0.7558825108883982,2.277609500779622,0.9766609476810684,0.8934594546733765,0.587387846807409,0.582089444279547,0.6102668672587372,2.6945306740061734
0.6416083487283255,2.2515112697866075,0.8548565226130389,0.7595176549145819,0.4600746705976216,0.4520177372636666,0.5026014767403015,2.5603963093175146
0.562305351747592,2.2222831285624385,0.7598579510062311,0.6719594689923154,0.3860625133432117,0.3789573717127204,0.43908460965384716,2.594906150549585
0.8466549272225306,2.3497011871310374,1.1154600617076942,1.0383795269995761,0.6895812362325531,0.7034226720250205,0.7510224997711537,2.69769720373045
0.9104573835247426,2.3853095488805938,1.155682384799911,1.0819613539859412,0.7400543170801772,0.7396987533882338,0.830710459924888,2.735048592795438
0.902411485306472,2.4160945200337944,1.1551712043101754,1.0763443441003375,0.7274321482877433,0.7368460182052218,0.8005991275504464,2.6976988560475443
0.8032716325160683,2.402364751356436,1.034262209187625,0.9473187225197808,0.6153963662160112,0.6127972276882224,0.6984025852307126,2.7545939850958225
0.7011666760127009,2.3619074644866496,0.9286869984528835,0.8422644579653609,0.5132947005202979,0.520957932951299,0.6119012742822928,2.7625614233299247
0.5877357075724529,2.3515914930261346,0.7952422850821002,0.6959549670177609,0.4020964849699248,0.4096505553021165,0.47927161904002036,2.6488999732410976
0.8589283297932024,2.469598760958628,1.1452896172421847,1.0672685620781872,0.686728306857957,0.7061247625037089,0.7801335291028948,2.8388070321554273
0.9758121016529185,2.5563015623430685,1.2518427549097448,1.1508776508941456,0.7991991760908046,0.7979820522744907,0.8806053427367486,2.865752998895767
0.9733156969735735,2.5611490035196516,1.2547797686759041,1.1617699072596144,0.8017386805889206,0.7880273201069178,0.896813245121687,2.961600933414513
0.8766066946718913,2.5377238053383615,1.1390991801842179,1.0562912103645892,0.7204168493860572,0.7038446074345813,0.7986828231288845,3.0592312108505384
0.7822527368413461,2.5356244945320725,1.0267681851847583,0.9573936766577483,0.612804079390052,0.6126643779225456,0.7059539275147091,2.9722537618383713
0.6794879966163312,2.5571630937668948,0.9268218601412068,0.8469808046568572,0.534311843352716,0.5126886599296586,0.598333190069666,2.899544491830438
0.9307120258295757,2.64224446829598,1.2564858697709573,1.1563753391983278,0.7670497199156445,0.7617048301803832,0.8738348108510163,3.209211679529536
0.9468375045672142,2.701992782837205,1.258977354763808,1.1601239684178608,0.788547488729087,0.7937429081706098,0.9018323562855942,3.1539298342457847
0.9346023907943243,2.741380709533424,1.2162710291071626,1.1229628000447245,0.7974175349253139,0.7527659634859492,0.8727044472989575,3.1766631576198883
0.8056681065771716,2.716991887709375,1.0653539829951824,0.9875985412655341,0.6475666015108883,0.6361001085926449,0.725581031554793,3.129058199681727
0.7197504289618611,2.71334824318954,0.9563730123977954,0.8678534216601045,0.5742181280448792,0.5306415961824511,0.6206677390594761,3.166060635366607
0.8249659716855328,2.7422855965162936,1.1155226649855012,1.0340261088146547,0.6841915184619274,0.6617520076056735,0.7603043352087873,3.2253055010963827
1.0110679251190553,2.8702361685187427,1.3309187198516306,1.2330275552161205,0.8596292839669111,0.8529359510085328,0.9477292461767703,3.359102318461102
0.9968502359845124,2.861437110555998,1.3047858579470684,1.2155361305994918,0.8226446005711698,0.8331187911090568,0.9192594843631942,3.31316500615058
0.9112097924425235,2.859361318502765,1.1850558825360453,1.0957965805560417,0.708625523728895,0.7124082521681369,0.7988876671585852,3.3665353321319413
0.7852994798966775,2.8265081885259518,1.0290701156236108,0.9340835126758256,0.6049763658516569,0.5504562567552482,0.6632254306593346,3.259825748193069
0.7745444812446485,2.85614643799201,1.043331959436937,0.9736575082258652,0.5987112154167522,0.5525781285356856,0.6551130673955452,3.340007953582834
1.0189452612794248,2.955581389078872,1.3519530730639915,1.2528684479829773,0.8199603274148382,0.856293305740961,0.932486172938119,3.420862562374607
1.0152760931638167,2.961969346971698,1.3178595443870442,1.2020913402900801,0.8211129056908604,0.7991046709129127,0.863122791304109,3.3814118957534784
0.9399446382646951,2.9249665138871963,1.2208175968946893,1.110435531391317,0.7496386863761415,0.6994446106298954,0.8019463467165332,3.3877045223680278
0.797080981015439,2.8969041129955357,1.045853357552845,0.9297804851028586,0.5859377547076564,0.515846325338059,0.6309179516895292,3.3663927797848796
0.7093455308803526,2.8670913873902033,0.9828926909221629,0.8709740059252099,0.5126473510360693,0.46185371766268984,0.5790462986237326,3.346879190497329
0.9957907163045617,2.9802736277349915,1.3220434083868833,1.1969139336722168,0.8086975398856577,0.7711588881599666,0.88681157083902,3.401541365386649
0.9824948953570268,2.9615295430929125,1.2845739039937516,1.1781777494233248,0.7479309333177672,0.7263399663037623,0.8276857494216201,3.476040510911774
0.9363269783428263,2.9253303109843327,1.212301617634767,1.0982539186063178,0.7023042207211195,0.6520811451150075,0.762386082015684,3.4345719544281748
0.7713319744875633,2.8908951057534646,1.0269475178297192,0.9021514209544431,0.5600915670023229,0.4925520064104557,0.6124954706633476,3.3239729694002613
0.636574164139192,2.837865978299312,0.847455260319105,0.7222910433800368,0.4032091956849315,0.36548350875270796,0.44909550831781514,3.2888446145749857
0.4473771565738538,2.7752876669972397,0.6415342697185288,0.500191336788444,0.2624167887526894,0.19993278463141484,0.2676159347427314,3.1956002831450894
0.714740288116622,2.86453552425815,0.9739984773359907,0.8741862802988039,0.4909480088876233,0.4543042818186675,0.5339363283468255,3.3077849747082264
0.8712858336725787,2.9155567789677725,1.1563280265506906,1.0377475645129826,0.6758814368160737,0.6586064016134503,0.7012195859862532,3.4369231633639483
0.8636982168612596,2.910771727656903,1.1510596627351959,1.0159019522889325,0.6540573627650376,0.5862896163983404,0.6910569712237173,3.4168163732479395
0.7496519985580412,2.8665878769421216,0.9876830594429884,0.8532601549242288,0.5209116384011371,0.4757940583761726,0.543275756622618,3.315787869221161
0.6064280178638306,2.8140901276319745,0.8172555326905757,0.668928850884442,0.3639646769041833,0.29918246389636116,0.39635474853109853,3.239113450928895
0.4515576104603771,2.7683330806822495,0.6219251525239244,0.4861043296170184,0.22636596324669456,0.1791151855879402,0.2493861442140962,3.2009292330436034
0.6477108467498168,2.8312602281154797,0.8963271470767917,0.7752239905133862,0.4560300484318819,0.3721337700411826,0.42024035764256656,3.293761698493861
0.7551388097019166,2.8685620553214632,1.0039719873630415,0.8617156594446495,0.5263005253964499,0.47385288615512033,0.5343428598636233,3.319261067526577
0.7041211022819261,2.8647793871249205,0.9480691215379655,0.8170170525098037,0.49151438063661984,0.43001445868757665,0.48480955993035707,3.27262935191477
0.559948406332431,2.8231461037534804,0.7534445307821857,0.6000934798849884,0.3230147246523597,0.2659479586784792,0.3544081091278389,3.28023111808631
0.38631669591029133,2.7444089510004437,0.5469277603417465,0.40031570146888135,0.16379886704057828,0.0745057026346332,0.16425916645963495,3.246623333269442
0.28800583505341226,2.7101835168478283,0.42614453827759047,0.2930920464384031,0.0645655316832437,0.002508142920024631,0.0549311248363005,3.144537388214348
0.7068130369139669,2.874339296968333,0.9859777599113673,0.8439844350715169,0.5290184683281589,0.4482541004001459,0.518791154829066,3.3301402962984348
0.7173856601463084,2.8789998226154454,0.9605336569617269,0.822985482610334,0.5182974451164581,0.43188673208895706,0.5262657928737362,3.301226538235104
0.6972713609738073,2.8407315355826643,0.9186902191250046,0.7818978670716484,0.4309760295086705,0.39594883902975425,0.45921591402222484,3.274093645428431
0.5217710014530816,2.7954796369721513,0.6910264748620081,0.5583182061048028,0.2969066566454629,0.20859399455651287,0.2809752257129817,3.156620026838402
0.35080556698296617,2.714976682642926,0.4842040038603235,0.3608821035378427,0.11096867364855083,0.027488867463719383,0.08503076691655509,3.169309943780382
0.26673900856043103,2.7147953353431693,0.4020460981414997,0.2956392154135477,0.05483233812727395,-0.03642018190156143,0.01764626492020398,3.1321728852235293
0.7092818379898399,2.8641197523718684,0.9649299013458638,0.8242027023379005,0.4754068350244477,0.4098586722019586,0.47124063616704526,3.275719765155658
0.6814950833806259,2.8345568163639814,0.903698165008923,0.7907301521913598,0.45106751418829844,0.3907264112059424,0.4671869210506797,3.2831297513988775
0.6432000880390742,2.8496391395989153,0.8521220270177245,0.7103196721085402,0.4103351771151035,0.32403508865991315,0.4026640663822133,3.2214936586921605
0.46262557591568687,2.7711802129133476,0.6060036351164673,0.49790305111694066,0.23586968788370574,0.16869631843946287,0.20895029966642936,3.210041872027159
0.28518065823521943,2.7339780377662555,0.39421558806362417,0.2857516539821841,0.0488580841294627,-0.03950776972303964,0.021062262936336305,3.1055835037792248
0.14451577036989482,2.6627821589805327,0.24149157241535177,0.14212349597181875,-0.0477590124220039,-0.15814559543441672,-0.09511528715245139,3.1180951168514897
0.6010586454194085,2.8530105840848172,0.8472847485532333,0.7177429710514522,0.38070517580380014,0.29941692394867,0.3317177182665938,3.298504997365072
0.5940366408068197,2.8462389637059586,0.8356354956962437,0.698503614259622,0.3865239403517835,0.3330463144460993,0.37467307809466166,3.277399244318775
0.5803188927275237,2.829834370723165,0.7868047498988047,0.6561263195335151,0.352200581953203,0.2775289137534653,0.32598416418768483,3.21416610371492
0.4022949185497935,2.7769764034390656,0.5669391082589788,0.4352734989345802,0.18652926788372992,0.10411768105530558,0.1652697537107001,3.2229693353165767
0.22692186071732867,2.692152718224559,0.3330634300474675,0.2162685367701919,0.016879478818309555,-0.06866566367680185,-0.04213923573885595,3.1155931502449663
0.19214760028711053,2.691819315411663,0.31468140727721944,0.18701218164964398,-0.033502703755372336,-0.11693530581195587,-0.043514926149681415,3.121110655717745
0.5471422911033503,2.8352132756622463,0.8014205093711615,0.6470950794727958,0.38579557065801323,0.28316310791627824,0.3191457177954608,3.214983424793462
0.4933453729354865,2.79844305443851,0.6980476407910393,0.5721945432288926,0.28959353147855904,0.2059764726042637,0.2567761728258249,3.1796125606197765
0.4408222321025448,2.781527549355062,0.6352089044377066,0.4848392288867055,0.22130225671837406,0.16483631260080253,0.20793345934019125,3.1772832467050733
0.25460639694955123,2.713060519917512,0.39145075846849997,0.25661697697181174,0.06985631665433993,-0.05131811839911992,0.018746969568796547,3.138139232821908
0.2812336391501574,2.7126784128666412,0.40359350415977235,0.281600312997346,0.03951945029873776,-0.04045087331757229,0.011869578342594419,3.146021286045138
0.5916189307799126,2.81811450089915,0.8282532869033887,0.6682341960264105,0.3699739198082939,0.34015108768169644,0.37808034474995617,3.251164477159382
0.530781588600896,2.802561362310016,0.7358790704298973,0.5858643034061082,0.3098692826429064,0.2333222713692336,0.29603746942946557,3.279889617248507
0.46900756662053705,2.8043141236286067,0.6469024050021615,0.49644911345846987,0.26544696540372814,0.15020807286351898,0.21648590524736927,3.1638323298352278
0.28484118502010297,2.7176458916877158,0.4273815430587665,0.2801965370099969,0.06128507980392742,-0.02272786047453572,0.04246022165316298,3.113924663989037
0.3809421410089734,2.732570303329604,0.5459548753008399,0.401791035402676,0.12368793168853949,0.04550348527857019,0.10835420209865469,3.1193827853648837
0.6753157986192121,2.8522310808957467,0.9348223267578923,0.7776745616807076,0.46358793355401146,0.39486828051509637,0.4741327140705561,3.2887012325430587
0.6698767245677615,2.839071035691651,0.8976886142550756,0.7374371885995452,0.42720202856781103,0.3477757423263973,0.43217599774812976,3.24509572967745
0.6101321436889968,2.8347599010181836,0.8117874008471786,0.6614783098830921,0.3478851525233075,0.287023998778106,0.3549536681885408,3.234310078333047
0.4398559619649955,2.7561070906010037,0.6142263266130107,0.46796834926896186,0.19505345940462265,0.13643726168983716,0.1945688001475752,3.1428813407351974
0.4219738809972744,2.763685181022395,0.5937760662984808,0.45321156838382887,0.19048356592431412,0.07362946346779031,0.16275325855720174,3.1167698176884127
0.7859592593528972,2.8832039007114987,1.047867737937988,0.9125078173425456,0.5652379088395817,0.5034786269420752,0.5585011332252129,3.245400418018508
0.7930724447274798,2.8941598126947308,1.0278929632846676,0.8931764622672447,0.54489673698458,0.4813430626154161,0.5682897683044713,3.3091155121321867
0.764755707495455,2.851521566331994,0.9841646649542255,0.8538668820211942,0.4885128878740046,0.44944644557777036,0.5112027662031315,3.2708367694087626
0.6325671607623706,2.8046830123846074,0.8197847417678512,0.6829485192444759,0.3516283907734279,0.3101667230322207,0.3714068191635061,3.184190659784156
0.49295298116524744,2.7307468670459087,0.6698641823027116,0.5406561215803393,0.2300034575176508,0.17632034816685657,0.24242639747017722,3.209272213712999
0.7141312929432023,2.847763544376651,0.957838011746507,0.8468615271670288,0.4280231807057372,0.4159139759708037,0.5043923127118445,3.1917142994881553
0.8541784204316009,2.9114124728064765,1.110491050995518,0.9826026660213999,0.6091279833096265,0.5609238619116869,0.6576569388469269,3.3991463163026014
0.8543075662151413,2.914044274074101,1.1209343702361565,0.9897077415116144,0.6012631625961843,0.5481599840486239,0.6618294160980097,3.283415960145444
0.754715906376361,2.8695316959810424,1.0083951102413173,0.8569139641177776,0.49281776090907237,0.46829688140159315,0.5578175965720796,3.2659146016649965
0.6395072104850004,2.834381371717376,0.8293203279405725,0.701587991705488,0.35917337722109005,0.30005917105402036,0.4109513176622299,3.194835044500158
0.7628788644174592,2.904767904004041,1.0139162808323068,0.9048066219217491,0.5254869034565867,0.48751403629493206,0.5731951829408879,3.296626536058243
0.867483518837969,2.895708884801962,1.1508323475095177,1.0218922546105738,0.6437431674326668,0.5960433871088273,0.7035693147581759,3.3175125109168286
0.8518029790986098,2.907929133444732,1.1205003412264745,0.9891519254978759,0.6109667630032496,0.5732044061171536,0.6747479031871951,3.3300601880975145
0.7551004372735323,2.8745926915340902,0.9868663106159272,0.8542801853179129,0.502706077443871,0.488922553717771,0.568986337113827,3.217844387160464
0.6132527734516942,2.81416385043659,0.8018475290917769,0.6988046967162752,0.333455767902301,0.3363918167449785,0.4192206812892811,3.205917620639027
0.7185781209181252,2.8769920347799696,0.9703563448303849,0.8552396880403972,0.48882542830896786,0.46519488311261753,0.5394831990891463,3.289808789373126
0.9547315636153778,2.9689399868346094,1.2500307331991136,1.1156500921025236,0.7470167795134207,0.7134432313423296,0.82598398412053,3.3465291392720538
0.9549513898537814,2.930299836227251,1.2473543788033274,1.1074038295908089,0.7237305664668605,0.7075319737215837,0.8044349580336307,3.4102565719170124
0.8868197193203237,2.8986043176203395,1.1502687521567316,1.010977351411133,0.6447889716510092,0.6209007948695584,0.7312302916033494,3.382252576567006
0.7506227488271697,2.8681122895072093,0.9845708507711918,0.8603759722040435,0.5117221188515803,0.4851423951976501,0.6059116654601187,3.3070896335161453
0.6510134687401574,2.8710021275928517,0.8790619802989864,0.7679277285344706,0.3979006929127996,0.385503098881595,0.5000535840482316,3.2907492972992114
0.9890259620242214,2.9508574989624234,1.2855663357900637,1.1589626213317012,0.7470435145286832,0.7390431334822213,0.8739032111829681,3.414571944443813
1.0166701531160796,2.956633557958424,1.298155730101637,1.1722049207880654,0.7654518604202737,0.7654119748429298,0.8884839437887894,3.325350810198244
0.9917321637277404,2.9512570426535443,1.2762365781731901,1.143117361140139,0.7485551143426528,0.735477969833915,0.8873348158667165,3.3924132677217385
0.8628936295224867,2.901990462582481,1.106822678612774,0.9823917231664222,0.5957283895566821,0.604957042931583,0.7168764015806811,3.3522231490830032
0.7179905722689003,2.8852284874040275,0.9593216526269932,0.8335458401618844,0.4927019540899542,0.493157035352064,0.5940430814959285,3.2951776732304476
0.5807732166921576,2.794988890636524,0.7980521313622894,0.6700500983497739,0.3577178031496435,0.3376323611393166,0.416256425081485,3.219819655546097
0.8596950304633341,2.9067600929970308,1.1587035725927564,1.0257680290510147,0.6572516903363826,0.642142429036994,0.733018557791129,3.311473820596984
0.9566757242732866,2.925775308728984,1.2563695504859176,1.1168969698698243,0.753371002776918,0.7347259533856755,0.8643250861623921,3.3809288036637
0.9611984937471472,2.921371450250941,1.249935709154149,1.1219766685393073,0.7443250713265862,0.7289281402481463,0.8435294364762811,3.3391068936313824
0.8489599564939334,2.9076982823348985,1.1091267979867288,0.9666262812154418,0.625800874589033,0.5990429656065137,0.7170375925906818,3.277099165602368
0.7177202640191369,2.838850939989088,0.9516901624480022,0.8158926992761131,0.49604738722532354,0.4688522074000777,0.5723333816841654,3.2427270054565196
0.6470540614980118,2.848925344160838,0.8846898075678997,0.7478977522893613,0.42307884356077624,0.3981112218203447,0.5397288410239014,3.2741372302186376
0.9475661840964416,2.9369044491593606,1.248893507899619,1.0984321812324516,0.7435959633932554,0.7171406314292385,0.8293672708496503,3.3806798432870138
0.9156970144959538,2.924022625576545,1.1979416021584344,1.0572868699823652,0.7190554590891652,0.6773001984913204,0.7991303838294649,3.322270111101423
0.871023545581853,2.9297995977996765,1.1421623373161902,0.987222362578229,0.6434237286615444,0.6310764805404859,0.7194391650558325,3.338750026014066
0.7236161701281985,2.8691837712687462,0.9462856346643098,0.8049968265546863,0.4725464684541388,0.4597532005926826,0.5599861067454844,3.2514938195361793
0.5717044961449521,2.8054252732668905,0.7667851545897792,0.6263637287828289,0.34209980008441915,0.2844579999590479,0.4040025415479517,3.26326914448399
0.6913948499947238,2.8687728279091993,0.9445529955251001,0.8065028407818278,0.46657459131310175,0.4364290919445647,0.5301996830589523,3.2816663355815
0.9562618153790959,2.9539040810729085,1.257851594881023,1.103931426866413,0.74367780278152,0.7137097318636121,0.8189647066125373,3.3125920622815554
0.9477419283463615,2.933615848962569,1.2281358646648122,1.0744609071691735,0.7361536694755519,0.6830894924469113,0.7950644267061276,3.3186231300857933
0.8622392838141278,2.885253194189092,1.120080117875823,0.9780935285970769,0.6278589501847964,0.5713285620401536,0.705843987743926,3.2718000587983416
0.727870489476477,2.848551830649898,0.9433060723916414,0.7924021487057751,0.46896828936839474,0.421258284231152,0.5247393259576987,3.2397552757865706
0.5784737481597014,2.7960696669900322,0.7630397943318306,0.6416514321371927,0.3554934132399335,0.2935507921938145,0.369470403480727,3.249712875035949
0.6345185984246349,2.8427569973626814,0.865043478761793,0.7437809770945906,0.37979129737564543,0.34810997454327575,0.4565579212894501,3.2353677698461425
0.9441139859036876,2.9263677139109094,1.26079546120072,1.1078721403156233,0.7242706487133485,0.6979986415983168,0.8090326758648931,3.3512356350772414
0.937921207159866,2.936130259960728,1.2260385783276553,1.0792668466215813,0.6970107776154019,0.6711558644388244,0.7853492510961686,3.3068891218861753
0.8642907768948254,2.9204228172280047,1.138931421426789,1.0216562064573014,0.6047849716020622,0.5901219183484099,0.6974453887502372,3.3226509245153473
0.7206215706966159,2.8719141185471546,0.9233658786315155,0.8095364452153484,0.4551371282349081,0.40354920195696975,0.5126760993260494,3.231647220233729
0.5771374753973221,2.8286286762871393,0.7828597050776359,0.65528848483086,0.3268016247839682,0.28338165875477056,0.38016389622215496,3.2730563819917258
0.5966000123639104,2.8169945358222837,0.8354618039881281,0.720870267627085,0.3539355009922817,0.33209788571085924,0.40942946406299474,3.1769302531273285
0.8769527257933953,2.9170743620679853,1.1885465076345985,1.0836500150214303,0.6780641028682765,0.6330913945982288,0.7270760872530516,3.3544518443494797
0.8661098263844424,2.915646835133224,1.1495665950876255,1.0281797623096773,0.6437214690775537,0.5909816349588947,0.7289076098623302,3.2598721520527927
0.7964111640224179,2.9149184689998022,1.0562402148234726,0.9561312084188069,0.5554553688180024,0.5409202105569558,0.6379986415129779,3.2894238324890157
0.6400668266144661,2.807814110510524,0.857429834557599,0.748245722414933,0.414294788275971,0.3821857159360241,0.45931443292977986,3.2188983339719335
0.6058888024610758,2.8069550062421533,0.837904607937785,0.7263471206959293,0.3730578165264924,0.3353136481532283,0.4240999207814167,3.181707583652842
0.9043623173144691,2.9003790841366373,1.2095916519352088,1.0969663256444964,0.7254887354899694,0.6954439588257534,0.8058718265982454,3.3065924618295344
0.9010749150375896,2.92383454609646,1.1774298905239962,1.0613586463560982,0.6558644193648258,0.6667819739639117,0.7689488762892354,3.326335784082015
0.8364757948883133,2.8684671964232256,1.1059304783720334,0.9923155037269092,0.5891126817123186,0.5723097306448273,0.6949258004177256,3.2644121266659982
0.6906208416054183,2.8054574334182787,0.9061891754707116,0.8143766987155945,0.46585495708171737,0.4293104428953358,0.5159233917417788,3.1800722647544584
0.5447440146995882,2.7506064700723285,0.7564688088046087,0.6490626804755273,0.3267874238248789,0.2866599234184613,0.3753753951506641,3.2215940950961386
0.8331862592779857,2.849170478415865,1.1371175074865736,1.0111220974823465,0.6210969499130591,0.6222668043229537,0.6941548307950324,3.216722003309737
0.938061321630916,2.854612323748501,1.238359774032892,1.1098407391270269,0.7235473033541089,0.711359474241048,0.8004838920892493,3.2458746604320834
0.9307600116336742,2.831353996472223,1.213929893073077,1.0651773896600034,0.7035931143998876,0.6883661911686026,0.7905200959305916,3.1710484233069685
0.7977709273341468,2.7545866847838725,1.0552595650285874,0.9247259389964285,0.5624534316436335,0.5418357817988463,0.6297075213637887,3.0513542406729313
0.6524414972947636,2.6669762092690013,0.8759972833656617,0.7496726235705059,0.41703949186105255,0.4035080262734003,0.4771955814138453,3.0163333532937724
0.5850061637539214,2.601279994726008,0.8014342517934621,0.6570179373418339,0.36974201192156597,0.34581160381936166,0.4290975632996601,2.9087066034932816
0.9055797627693719,2.666726984371305,1.1954268903017777,1.0847564622429609,0.7272429936736042,0.7042752186212389,0.7895326248238393,3.046603241630433
0.8969451762399081,2.6011901913194726,1.1844928318486843,1.045981883303994,0.7052048410393702,0.6890853486772727,0.7612801197270935,2.912030427444564
0.8630117382787066,2.5613387534859733,1.1143754081065496,0.9874825250219563,0.6374923237646625,0.6286194689745834,0.7201318342874177,2.798881695623877
0.7039316941483258,2.4473702620619,0.9375238797300419,0.8367003803127169,0.4957510236105951,0.4533997683808385,0.5638546368282995,2.7139825138257105
0.5717693954674778,2.323903521973758,0.7612997439874318,0.674714783391766,0.36121487929154694,0.3437523371975813,0.43103736879540244,2.5256088191153547
0.7293951482017869,2.3592292026822235,1.0083219394513052,0.9176927127582518,0.5708534776582825,0.5652463536678292,0.635782635588826,2.578114337840348
0.8005636653969341,2.2862279547770075,1.0474039515594498,0.9522649279017279,0.6204266114896433,0.605405861606213,0.6909289980252498,2.4962388549665757
0.7613233383958746,2.2129857439614335,1.0119787953935195,0.9251550436272232,0.5898208900140207,0.5550746022412507,0.6847951707274256,2.396839320948852
0.6349276888395526,2.0951196904835063,0.8298798616358646,0.7726938540384958,0.4485013676559084,0.4282678431057717,0.5168531795430451,2.2832404776058404
0.4806538207509914,1.9536306309936475,0.6482346716369254,0.5530940293959619,0.2908568536525646,0.2656379327466637,0.33522540973192316,2.117465905637862
0.5552585578067046,1.9291417621500857,0.7651070946977547,0.6666213945414299,0.3994816802828181,0.37382581784729096,0.4491307524691296,2.109385281827602
0.7916754022804555,1.9792829936775131,1.0270358495422727,0.9448849238865489,0.6249560848372127,0.640796192056043,0.7351791920887885,2.1174024079442737
0.7716512919481064,1.8917644115654932,0.9839761833670845,0.9043495961043692,0.610182325702258,0.583959176848012,0.6690451630119986,2.034262322722153
0.6784825340695548,1.7817735881773862,0.8651029278641974,0.8040367091728606,0.5142435789375472,0.44580962699678167,0.5536165119325759,1.9140036147880994
0.5371059980484985,1.6724292455505778,0.6864164130427621,0.6063478590913058,0.3574148164951922,0.31943329131220244,0.4016830176568894,1.8712686621871395
0.39486462470177763,1.5572194436398423,0.5002317593291477,0.46300147428374316,0.20376827822429702,0.19392599550347833,0.2731153780402762,1.7515744346254651
0.5860664303725441,1.6212905176692076,0.7981550300918587,0.7232734649144681,0.4455482796581849,0.4381880322737538,0.5077521625237839,1.8258021053719033
0.7294114041102472,1.6714109145780969,0.9310489407775239,0.8861340275248235,0.5854224825487853,0.5830697213055923,0.6448989991619801,1.7648653996844714
0.7151965591647106,1.6236447138987873,0.9017367669264205,0.8398143655310806,0.5771316748215697,0.5551127046297825,0.6174198113785042,1.708893457622829
0.5914867249420391,1.5456426567918382,0.751191264125498,0.695128024681613,0.4349373741463486,0.3917524225774098,0.484418247018,1.605037586724142
0.4548643148329672,1.459151433014473,0.5737304068970362,0.5239424336174672,0.2697660615343244,0.22673643311302416,0.3227341061008669,1.5279065683834359
0.3136536171517289,1.4009747241313726,0.4148266968647015,0.3584728856035677,0.1601518345586705,0.10315765387813153,0.1955576334814308,1.4522858866786903
0.3840483788394302,1.432258995354093,0.5195447958038534,0.47251866049467095,0.23183638642637067,0.18048086494772242,0.27489515146872395,1.507747753996059
0.6301444620513109,1.5184495011945587,0.8181189979399884,0.7663256103070016,0.5030453658054332,0.43824323969988394,0.5517171774354077,1.5974512061331207
0.6078500281066903,1.542166716233303,0.7876454174498494,0.7216146413925506,0.46083684564396027,0.42718463976281984,0.49510708976782397,1.6314014637616192
0.5401082566647895,1.5304438813342944,0.6864145445988497,0.5951202744586852,0.3773914440394443,0.3301487186161052,0.386484681856631,1.535106976069919
0.3752058989569017,1.4673249845853364,0.48731001208183844,0.4260004553720476,0.2227694880751014,0.138844552095995,0.2377104971148679,1.5184071004577722
0.2891585680032055,1.462729683130694,0.3960922797124182,0.35652679715282176,0.11132067270566982,0.07118871513244548,0.1382902809066167,1.482571418152531
0.6178934614059814,1.6495217950518504,0.8391775775975483,0.7629383136984931,0.48763496804137135,0.44101749681929725,0.5340805587927747,1.6273778232382803
0.6292378861907137,1.6374264332417727,0.8164601006452389,0.7520338627910311,0.4782276589571548,0.40396629509392823,0.5116706794942563,1.7139108100611518
0.605961192261652,1.657455212878051,0.7877656464020834,0.7051486645312808,0.42875458973352126,0.3669132258822477,0.4662146701649528,1.7053943809655792
0.45881310727116126,1.6275011048467785,0.5926061244089145,0.5092524825375481,0.25898468849959927,0.20917858251687815,0.26820299048197177,1.6630985469664172
0.3019602313691614,1.5962725755351928,0.41549028268102894,0.32281271886916846,0.1106357788091327,0.03765459629348582,0.12988284813556628,1.7584235939636748
0.24315239268421257,1.6369586432157335,0.3504033993491641,0.2873476655262959,0.05113664965280474,-0.014618016466036332,0.08082395506430838,1.7278775867266447
0.6509703970949765,1.8745625101968615,0.8692085427992069,0.7847652687336121,0.5160471152213213,0.4390735517063344,0.5263381058415818,1.9552658845313087
0.634560004754651,1.904279931889338,0.8381846496895186,0.757476443318052,0.4766385519622571,0.3914280198848813,0.5011568464931171,1.956978286782996
0.6132448236476735,1.8950196371132364,0.7912086240416801,0.6954289560876059,0.4150650510283013,0.3467403907842553,0.456635836477532,2.0368754573429584
0.42422435703447053,1.9155000902677572,0.5490871914421983,0.4800721804312139,0.23652218130526653,0.1736073377200008,0.21686717087092014,1.9735044052883253
0.2585707171726592,1.8536814191840072,0.37297931316958743,0.27561917465856184,0.07676571563225223,-0.019981623365663573,0.05769213251701244,1.9394867205774147
0.11030638106469208,1.7925553289212242,0.20862508104741867,0.1134169377721247,-0.05889519968103352,-0.14931135676944887,-0.07749396707844539,1.924021325287924
0.5199260776743204,1.9984579925528647,0.7309911787041836,0.6461758567194307,0.35691301445500256,0.2948824576554723,0.3619508597142479,2.0274299438675736
0.5351628547147916,1.9748835141336487,0.7440067399903061,0.6614160974243484,0.3912627377949602,0.3243084487757223,0.38572294511801225,2.0526147326311754
0.5307997986425114,1.9672450543616744,0.7091081748216939,0.6178036391339331,0.35915983404442864,0.2705616424893812,0.36663441351606973,2.083562084942393
0.3720897788883735,1.8806592072776174,0.49973737597733603,0.40599804113175203,0.19260514432869397,0.09711525711495751,0.16942391751071323,2.0076831193824103
0.19854045244615087,1.792774702688624,0.28259687867630445,0.198051645937349,0.0022789905378338,-0.07124895633215277,-4.3478065575103253E-4,1.8643182427843066
0.2475684864026311,1.7743468653779564,0.36093376467189886,0.2790968119455674,0.0653778885069295,-0.029675155916637067,0.045916274031301614,1.827284115446258
0.4955384148625504,1.8350631334343988,0.706435692327965,0.6176878009852622,0.37669746168115,0.30524679966617424,0.3658354692311441,1.8841294466578236
0.43821930751175203,1.7338902383358914,0.5856737679624745,0.5185231710509431,0.27457708670429093,0.2107973709937676,0.29534151628571986,1.8000119559656904
0.3375492325486772,1.6810799418437676,0.4765182142321899,0.3975282324055816,0.19204930876444065,0.11910719000151328,0.19933763148461708,1.7116005966415702
0.14499631861044054,1.5327727192920957,0.22089108404354504,0.17061079428346113,-0.011994253668554763,-0.07863182386575998,-0.05195195931563537,1.5581237143074362
0.019238866618447304,1.4022836849584617,0.06913058581036494,0.025480697913045018,-0.11942093089341374,-0.22919584989247233,-0.14839129963506908,1.4073801905348948
0.43229786492480154,1.524826578875381,0.6023045630095254,0.5353647993044207,0.28731641098902416,0.23681494854026924,0.2781398614697656,1.4521747654681882
0.430862765675607,1.4410012011221596,0.5926242058449023,0.5148539830221227,0.29906852888973623,0.226056665346928,0.2854387517334957,1.41042449569437
0.4038794780896724,1.33408542296783,0.5301830093072313,0.4635051226171778,0.2425005694731032,0.17143286066919444,0.25732329333000703,1.3236390092142947
0.2250577327252368,1.167220242317263,0.30395640738607455,0.253511836707033,0.05219669699542942,-0.001728082366604211,0.06706946717804906,1.109469566209179
0.0406205136330231,1.017768725261087,0.08345179996169788,0.031435864358309196,-0.11860182453010809,-0.211454290622119,-0.13054912350472198,1.0187258555318315
0.24811876268470323,1.0451257318958895,0.3526948395900433,0.32124607818021506,0.08804625566439776,0.02966296337478129,0.11708009978774786,0.984399932842888
0.39436204087363835,0.9990445686126492,0.506749943406543,0.47434217639505405,0.27722801274890496,0.23202657446024827,0.27694419840199286,0.9839828684214984
0.3546599732619698,0.9223010347983837,0.456338773348356,0.43880619373566676,0.20812601645770568,0.16375601197174683,0.24856391063316066,0.8869195373941564
0.2399335478248276,0.8323966600783252,0.3041124970700402,0.26788515558443543,0.10492619959479457,0.021340074289192823,0.10535494088117431,0.7876747894887991
0.07412392596706352,0.7000387578326588,0.0893639767427031,0.055990587770303996,-0.1058390095635857,-0.14571360181655962,-0.09053105327793248,0.6145899495757547
-0.008824258431886736,0.59508337470332,0.020896646021039758,0.012725538311342653,-0.13509637766473984,-0.20696389958308026,-0.14425479029935026,0.5391499721671285
0.3509966344624964,0.7330026647487144,0.4518663603040662,0.43059940707283945,0.22074633249645673,0.16792195663112852,0.20877787842111956,0.6051190182296868
0.29494577261087973,0.6918908176354982,0.36261465698640094,0.34932607615696,0.1588673819242796,0.10605399417576346,0.17373767146578792,0.4967521783132072
0.256387299330808,0.6009019326797074,0.31574932379344844,0.29722111028778364,0.12605058274602288,0.06123845771644944,0.11162292406264956,0.47830923744843695
0.09087035797018689,0.5581075815426969,0.11757044159615967,0.08804107560623545,-0.057746345568205855,-0.13112719872676948,-0.06837021318040903,0.4455315279984234
-0.05749625384948224,0.43709035902484233,-0.06443145789446922,-0.07817013604814801,-0.21543137351254268,-0.26223311896507917,-0.2191301017186611,0.34681766724612484
0.274260355120894,0.6031714081977702,0.35942533905277985,0.35553706289532333,0.12719435201016194,0.09665206329258208,0.1419134535008127,0.4530519809013286
0.3565296829991841,0.6470241777246029,0.4527395436524094,0.46354082909730043,0.24757356972851377,0.19226970657758838,0.2578746757969392,0.4914535239128526
0.37264441999992154,0.6553739307946402,0.4513454146920235,0.45539461677710114,0.22602182364194479,0.18034041052505068,0.24838394290388405,0.5534223049499917
0.24848652223656478,0.6141649920181528,0.29821423347056986,0.306215636670304,0.07948469746030601,0.046074246392793866,0.08346009277093876,0.4664806015370233
0.10197942082670336,0.5772240873598116,0.12523740652581444,0.1478372716297495,-0.07706817264164026,-0.1504434091936735,-0.07795293915285371,0.4204318557346591
0.14781517149845586,0.6088199377417124,0.2183860776532266,0.1967962705858994,-0.004305740732819925,-0.06780127911244359,0.017471786196178306,0.4256693190319809
0.4327482205983083,0.7777412960295488,0.5683348315958556,0.5583426063269945,0.2893669950746218,0.2579012213420349,0.324274379645652,0.6117290536305492
0.41446099786601986,0.7680873331108673,0.5133491797828572,0.5412262623156162,0.24690513865847605,0.21690027513122107,0.30202604798956567,0.6048187065018518
0.36257278500894724,0.7614545244526937,0.4424955115447322,0.4677263885331612,0.18076208614425826,0.1407844984933484,0.2074457088968204,0.560962599678696
0.18991363557535337,0.711008586239194,0.2393079677917293,0.2736636786741716,0.008851150159785964,-0.02338547327030821,0.05241063732081297,0.5220525587224832
0.04385742522941034,0.6541257606912276,0.0868000324191966,0.09616732830405363,-0.11320590178782476,-0.16112886357123768,-0.09474873187277716,0.5180686873121201
0.3404759646538005,0.7943872618731278,0.46831458659992864,0.5131318307775121,0.21551518989027066,0.17162068011128712,0.26021284239572845,0.6174124099546607
0.3926142929424452,0.8479409185202863,0.5058196136762736,0.5349221814344524,0.25100409778177446,0.21853013677047117,0.30556071379517524,0.64371555270842
0.3857424365675061,0.8554038479852413,0.49169006391820586,0.5137355651240164,0.23927478129765495,0.20461605007761485,0.28622834672557196,0.7181005144389421
0.23642026750454026,0.7940170484673479,0.31158719979557126,0.32916408751025794,0.0889170019544476,0.033444108685973445,0.12702403169923618,0.6914545988822209
0.11378245367270334,0.7365661187493986,0.16890177412825363,0.17819334315803875,-0.028420229853918327,-0.10633627532315196,-0.009561869164685419,0.696588115855563
0.4094723821108577,0.910997277862676,0.5537603471072601,0.5466159244067829,0.2613761245864277,0.22088520442672266,0.3213118589312161,0.8290991740258136
0.3648776485698309,0.9352026233847799,0.485630592807409,0.5145249594334564,0.239178025088299,0.19169387230464602,0.29917368229366226,0.8836904258799511
0.34425995425887973,0.9538220649628063,0.4649640849910618,0.508277008795123,0.20619784156998783,0.1549080205885891,0.23995316531336214,0.8447695212422828
0.23160041301707737,0.929241167644204,0.2944528010903522,0.32115355747344454,0.06451484056695686,0.013419546185354458,0.10477574994853187,0.8112242219536048
0.3109573375709487,0.9820662914539869,0.41031978935369406,0.4433412114199232,0.14451266185766426,0.11196618728188207,0.2253127839448844,0.8241751610909285
0.43494247223737637,1.1028640051431156,0.5857783247129618,0.6041911650731236,0.3015146181747565,0.23933856373847784,0.3421119197875394,0.9730034980322417
0.3930318261833093,1.0757236597695194,0.5125381160021927,0.5407064044283872,0.23943483109525562,0.19894512338448372,0.2797040390298397,0.9526944205377557
0.2658853394120591,1.0438805406592784,0.37033259429163695,0.3929165822400765,0.12220239162555527,0.07142131811606553,0.15224015218498976,0.9353438346668081
0.21647244823769202,1.0381294735399236,0.30359514941759286,0.3348345730691778,0.0635983282685437,-0.00913670714003819,0.10641251398186304,0.969211471172648
0.5423327529251779,1.1792175836372059,0.7039994563984737,0.7293037471790231,0.4051625318202455,0.3698435601618351,0.48446327909824505,1.0992306912647545
0.5050815056445634,1.1935723486693033,0.6499364637772463,0.6749944623068889,0.3443199110054594,0.32231330294647503,0.40359437520121,1.0663730935849602
0.4444180188779433,1.1747035646185309,0.5632809782105956,0.5815507192070143,0.2917038075076257,0.24953545344823375,0.3232004046256782,1.0486545402064507
0.266715799588221,1.0691733981805995,0.3563122321369459,0.38986570514804464,0.09641603207501859,0.052259317477010334,0.16571850290370713,0.9109200042140775
0.5729693291575386,1.1871494986722744,0.7415793175732637,0.7724543000478871,0.42361837897685223,0.4001507399990427,0.4798708269110971,1.1113865642209644
0.5830837417791459,1.1932592684532701,0.739129747490221,0.750635298534067,0.4168043052622065,0.400414249743137,0.5127113616131844,1.0348915495306785
0.5432920232693215,1.1642539273360755,0.682740114363327,0.6874299226908537,0.34691788446314686,0.349249160425007,0.4324613470255307,1.0087239649066047
0.3758182345536815,1.055078973714387,0.45634471126861886,0.47501432740118077,0.19242412736488518,0.1526394511042049,0.2692498061010603,0.947812550880338
0.4205670998242393,1.0300650388026011,0.5564964679960656,0.5777235508675201,0.26800963226802693,0.2238727331628958,0.32466793541199906,0.9398765743959567
0.6328687296505762,1.1355356285658698,0.8007415203770819,0.8185934684042134,0.49254653872798726,0.48380623872804207,0.5833494991627901,0.9787262984622652
0.5783951200552992,1.0434047792065886,0.7349621808390032,0.7575880539985393,0.42416178608951066,0.40841241692589386,0.5054502669554612,0.9117782057878587
0.48484013501583617,0.9813613238106907,0.5815824121131062,0.6155523946745981,0.29653949500355115,0.300773625106782,0.40001754402334033,0.7903055024551937
0.29174366557472714,0.8716762199119756,0.35898066155082353,0.3924403688869516,0.11921568437300119,0.1033613269353268,0.17180587995537128,0.7514353897587773
0.3305972941444265,0.8544722863353504,0.4202498937795737,0.4624439033773282,0.17988810410483963,0.15042887335128718,0.25872161491270984,0.7043081563619481
0.5855315425392147,0.9520836214746337,0.7472294831806076,0.768491209245581,0.45758869603771823,0.4519213665665799,0.5757911601640598,0.8023340644065744
0.5622371846091708,0.8932598806904621,0.6833110321350234,0.720898864412246,0.4138891840542201,0.38744366545153497,0.49128487490157574,0.704518740046936
0.45782801017425145,0.8281897929759894,0.5504074374772913,0.5839313545900165,0.3011123074282468,0.29157556969594567,0.37347835681378627,0.6495590210935811
0.2629204694731751,0.7149100930299626,0.32343054435158286,0.3634566622112699,0.1328923258407826,0.08463768155293637,0.18479424020571167,0.4656041955823136
0.1019956709311845,0.5628049066990196,0.10845488907262987,0.1474218388245832,-0.056928349855246516,-0.09007793856990923,-0.0011708223041274474,0.36328941086574135
0.40156272926799863,0.6711135480147411,0.5267709313291109,0.5491631933643133,0.2842369125675966,0.25628032488188984,0.37392864801878417,0.45126092457001615
0.40878626992928857,0.6323792897975391,0.5365261889435754,0.5529972876431696,0.29993793001821306,0.29489936107490533,0.39334995289324687,0.43027851914420934
0.3806581852915495,0.5535168377396319,0.465300289174334,0.4921636010929504,0.26305134088502646,0.2511252118323556,0.3303078647107814,0.37848017793350225
0.1976563347774653,0.4403765043231899,0.2260342728888076,0.2608112522365842,0.07023151852216672,0.050275639316946744,0.09801311280527933,0.23214761849134913
0.0053661814759641095,0.301577409229379,-0.019263137066933958,0.03171195959352037,-0.11583841675920394,-0.14975447050938073,-0.08369101060991264,0.04360790409149681
-0.08663233201979693,0.22019609492345182,-0.09639105585657867,-0.045187755150066,-0.19063749398435095,-0.2156917843501332,-0.1673194831678475,-0.005176906224210701
0.2876999873439597,0.38310816958741906,0.36655456720728663,0.41223959193076304,0.2088738738624223,0.1809728722945003,0.23972542490277815,0.19407262994056698
0.20896367529612495,0.31269647355266866,0.25290226894292017,0.3011779786998328,0.1357272124725402,0.10948087836688457,0.1687880616128842,0.08531089129901981
0.12718854457592496,0.22074929820535902,0.16243568540246994,0.19796948868657496,0.05642030769370589,0.020867724382527597,0.0935041424627221,-0.01186570952325694
-0.08471248958304439,0.0694389931441694,-0.1111414205339333,-0.08282559433941034,-0.17217469787863116,-0.20014355952027674,-0.12494041828582933,-0.12107354460549373
-0.27826559349869756,-0.05605987963123482,-0.34071897441385157,-0.3177472851934713,-0.3519245109604903,-0.4070209087057456,-0.3450983004154263,-0.20089881651790675
-0.2608875516906671,-0.045685235187774384,-0.3338408380566042,-0.28396658119872664,-0.3499842522684405,-0.4045570782560237,-0.36605173862164825,-0.24987688200004676
0.06658672617953909,0.07343406178621331,0.09842692276746631,0.15617251469966564,0.01553046223140761,-0.01049497274534053,0.037367722433583536,-0.1590662571748925
-0.02462096926985532,0.004716755645143206,-0.012097342131649917,0.034508294789584684,-0.08726529945737367,-0.124862865080767,-0.09529142060609327,-0.19013437584264256
-0.12071997245043913,-0.10796542758872035,-0.14625473268423628,-0.09389266990521351,-0.17618780361601255,-0.2150235353194057,-0.1916250324915063,-0.3204811904293352
-0.3433257246288618,-0.22804164986963035,-0.42816060015624124,-0.3903328505201923,-0.3789858264625105,-0.4380730205862812,-0.4116327518549896,-0.43694426626730776
-0.531720298659449,-0.3740023517622044,-0.6632806616428191,-0.6298289886287859,-0.5711560532826858,-0.6726902419741305,-0.6182932626034398,-0.5505686030334176
-0.29550380699485307,-0.2418705329638385,-0.3528673966486543,-0.3083086133765581,-0.3783336009548584,-0.443537010199687,-0.3878663310896135,-0.43631543137194073
-0.15307545873860534,-0.19173515816232656,-0.169858411151669,-0.12161735405584045,-0.18923253247420563,-0.24292867877983584,-0.1922356299054821,-0.4241678039435387
-0.2141626566211444,-0.240289524193012,-0.25086477127243245,-0.2062921532709626,-0.2771584328813852,-0.3207112717773865,-0.28052893793782807,-0.4427664802624091
-0.36296272265535245,-0.3388737800832837,-0.4358519925060798,-0.3938067406315984,-0.3722140749325146,-0.4498335709295149,-0.412963855712928,-0.5544019770330508
-0.5785304862634844,-0.4955908477104259,-0.6983860385601003,-0.6650591176608663,-0.6009449796003765,-0.674023492460611,-0.6462296040576498,-0.6812231395339196
-0.6342310283144406,-0.5336738562857322,-0.7850790875479865,-0.7517341631316176,-0.6817674791478361,-0.7593780622949008,-0.7204676807424463,-0.6731773978164555
-0.22953484922452266,-0.3252753283069086,-0.25860823972468,-0.23126739100371024,-0.2583266025297516,-0.33699157734917135,-0.30464104564596756,-0.6091413752913176
-0.3105052507520963,-0.37902924592076137,-0.3637582635692615,-0.32557189086357946,-0.3326013452560896,-0.3900388009617021,-0.36837083969808493,-0.6562127882002498
-0.34565570463803014,-0.40818291083623176,-0.41400484969012086,-0.3759570090039265,-0.38831793211612153,-0.43056591301805314,-0.4327374501039229,-0.6284068941211994
-0.5421036972743347,-0.5290039465829222,-0.6515536006222494,-0.6306903171053805,-0.5635932621670295,-0.651483787397129,-0.624763631145186,-0.7127114812301467
-0.7113231565954389,-0.6307912332627685,-0.8705518551599881,-0.845815177724871,-0.7384956381886678,-0.819242475519819,-0.8158581854168692,-0.7819419339760407
-0.3671515802280621,-0.4355157936546358,-0.441005382477191,-0.40694326005189846,-0.4512790669514647,-0.500997146534111,-0.47523321948131014,-0.6744334538298682
-0.3164193258792547,-0.4226167467339045,-0.3614310002659069,-0.32681103446887727,-0.3184839455203097,-0.41600333856756855,-0.39013532249415833,-0.6552274758153787
-0.319627802040859,-0.42901357347772334,-0.37637089481988323,-0.3484510897435519,-0.3745874830611653,-0.43000890964344607,-0.42657811153760805,-0.6822224579975884
-0.44203698334885455,-0.47088173537356737,-0.5551110127635359,-0.5194304174936051,-0.4889442597009506,-0.5480783521909945,-0.5449762764853958,-0.6902709924842377
-0.6174883052725023,-0.613890608251647,-0.7537088031598712,-0.7355994752997983,-0.660614421460035,-0.7425246134336894,-0.720180272896606,-0.859125613395008
-0.4757683303702937,-0.498319000920522,-0.5691312291020232,-0.543664788990444,-0.5238138540897057,-0.6019843777995921,-0.5747298497943218,-0.7206893619589412
-0.23913511291044162,-0.3893461893521054,-0.27458800116259763,-0.2466569135498214,-0.2535702907908539,-0.3199019174766277,-0.30431563120882543,-0.6342005871677904
-0.2506775538415981,-0.37583480979538353,-0.3129220045229018,-0.2886770852504142,-0.31969875908617096,-0.38107021770812627,-0.3661581799043495,-0.6315881292234801
-0.3398015519121481,-0.41652808266771707,-0.4164747687978169,-0.3902993390957053,-0.3969462370221666,-0.4610034027249138,-0.4265694577978543,-0.6864776791239405
-0.49646514180694223,-0.4895284982434797,-0.6168596151995989,-0.6038083037182056,-0.5584652456717116,-0.6389044019991303,-0.6148476705032381,-0.7180210039793934
-0.45621278437190055,-0.4724081123545007,-0.5620858392479845,-0.5406087207090816,-0.5312879659977636,-0.60524752036937,-0.6046880155717284,-0.7262623957255866
-0.153192867173214,-0.3346824483691021,-0.19065050761929603,-0.16391417939050196,-0.19683661340595995,-0.2578073890062803,-0.2526238116943551,-0.6013540120778377
-0.19139568304192883,-0.33787606310245794,-0.21726294086255896,-0.21324449245090016,-0.25117267466395693,-0.30356800092244296,-0.3114731804499792,-0.6352169155865041
-0.23566133256334715,-0.3487114323818437,-0.30848462570568663,-0.27208883750146123,-0.2924993968678039,-0.3497176085236302,-0.3623489513026231,-0.5946057935918329
-0.39584038603811517,-0.44988212076071865,-0.482718351025561,-0.4694881484215848,-0.46324245087014604,-0.5123752943721047,-0.5309045470449617,-0.7137939219830315
-0.4252369961410086,-0.45520839390447604,-0.5359755397980298,-0.5294469298556644,-0.5313172660668282,-0.5865703733849534,-0.5987902816396685,-0.6713458851856831
-0.061758863608519475,-0.2878771366538417,-0.08596185673478177,-0.07317894771786379,-0.14361284137066496,-0.18586616666108421,-0.1983343612700565,-0.5664614210255705
-0.09804451088408712,-0.2592700249896843,-0.12128125220966268,-0.10524136591242972,-0.17559350390825088,-0.21571273892482465,-0.21489352637257747,-0.5180073904420578
-0.10081786490998884,-0.28026914503491934,-0.14490623754309678,-0.13552367356376752,-0.204541472512627,-0.21639086647949962,-0.22445086050279878,-0.54250998642228
-0.25324451291339933,-0.38083647500175244,-0.3393847459230539,-0.3012856006313205,-0.3515542930565788,-0.40337796309281265,-0.3936264489687157,-0.6129820211547481
-0.36443169404010667,-0.4293876417518831,-0.4765376491714585,-0.44579848984681775,-0.4553638302041034,-0.5336532711681898,-0.5225470106304265,-0.6882768587792911
-0.025326443962094464,-0.27091882314451765,-0.053624115797873545,-0.029674003766613468,-0.11387855937984065,-0.18335380417125707,-0.1741266204308448,-0.5116805171152857
0.002095479742273367,-0.2916500646284607,-0.01454145934019148,-3.799392085211302E-4,-0.07436738597117444,-0.1101414520530169,-0.11511241267806344,-0.4871752709230145
0.024219792128665145,-0.27084780716628937,0.0030109863339223865,0.02123559011379988,-0.06101394112176295,-0.09789505593299055,-0.10322864844367349,-0.5189189456020655
-0.09145713794776765,-0.29513816990386366,-0.15769074607308958,-0.12907933446091574,-0.19415621329713872,-0.22339735087991192,-0.23119688342776637,-0.5427524992434921
-0.19606660113398544,-0.35970771993612244,-0.28315143415902,-0.26352634334733976,-0.3169966655750992,-0.36372339827188777,-0.33489931171499043,-0.5929795461695885
0.015027700056307516,-0.22715276669070894,-0.008121708359604022,0.04742033544153785,-0.08056105397612673,-0.12074614904785871,-0.11065104362093,-0.5336943154920806
0.0895217294324049,-0.19576235935664754,0.09295586110786319,0.11406759795724249,-0.024627018838692158,-0.03691639212578182,-0.030790186269544093,-0.3996973831325168
0.10566846232361415,-0.19100265990692822,0.08743667992947218,0.12363282084306308,-0.003282237140414958,-0.031573275122282016,-0.04748300133321204,-0.4350038546698064
-0.007175077209565993,-0.26772835053675714,-0.053036520276003064,-0.01867882463567177,-0.13368389262296432,-0.141768561171698,-0.15173341879292118,-0.4670276527455839
-0.12070476584911362,-0.32962558652719337,-0.19481267299111538,-0.16807351422310773,-0.2577396482198593,-0.2930352595515857,-0.28422315647497537,-0.5659425117715666
0.14464529654817065,-0.1488052492066061,0.16188610085025495,0.193099920783049,0.02162864195180185,0.03364490859369971,0.029919551043149747,-0.39739918357109094
0.24852789924873114,-0.10241170271363378,0.25049331027759514,0.30250420483492546,0.14708850429604306,0.13864824392694844,0.1303796012814536,-0.38166001630794094
0.2596674387601712,-0.08581563596013345,0.28901638528980883,0.32266515493831455,0.14154721519989813,0.14186178150326761,0.15647430045022193,-0.331873955947327
0.17832162319819184,-0.13587839804726148,0.15432934445678972,0.197994307817856,0.02739694183000814,0.012175775289555706,0.027393013478584936,-0.4240952120695807
0.06006099795800553,-0.1807655562708373,0.005877050394023436,0.06380290634670305,-0.07368334226025444,-0.10726459705814251,-0.07586875475143143,-0.47695011444363694
0.22386781932340827,-0.09115750111058873,0.23396569753421148,0.29041822007512225,0.08951487903974405,0.07962921937781207,0.12033015665441357,-0.42278694165571307
0.41158613427514057,-0.00222251354762662,0.43235045520512316,0.5009240856001537,0.2836626272784512,0.3013077355046113,0.32407105048525,-0.30302174173013297
0.43044008631630337,2.1146704074131994E-4,0.44701868023005586,0.5330861268803394,0.31557735243734303,0.30062475575272063,0.3418177434334112,-0.30448246143704877
0.36251871962521465,-0.01641991556031555,0.35764322885199745,0.4289904327130553,0.23283694891485845,0.21868074785122088,0.24508373824165286,-0.3004650484234638
0.24589889910127583,-0.08999851503076042,0.2301756427642879,0.2900082191636889,0.0914398847781729,0.10966989297814661,0.14709654196976335,-0.35390181130143705
0.13130151304268622,-0.16467897335940002,0.0907144117317434,0.184294330328614,-0.009402490528225428,9.958268332871112E-4,0.01970727496971829,-0.44014448329436984
0.24728494760447794,-0.07657937319453864,0.2657039293736506,0.3498973589697523,0.11186991220648773,0.13725674498542878,0.17667770640040653,-0.3790788028446193
0.45350743797918763,0.027250073376640566,0.5126624321647256,0.599269103061629,0.37217506259252586,0.3855478054230884,0.417181240636333,-0.22794308680783024
0.49595564042445034,0.032150607210503196,0.5338470939810829,0.6188879818719971,0.3920693385813718,0.39141236432521387,0.4356527482685299,-0.24568435680624365
0.44501069061103454,-0.002303454299599883,0.4413915638455982,0.5507999565500057,0.31041214497235187,0.3363342796921494,0.36429565224478067,-0.2490748632302333
0.33423069741446887,-0.05299117250902169,0.3537846263686378,0.43505630518980487,0.21347851902632617,0.2522131117346172,0.270572601457216,-0.29438680749620305
0.2386018416662301,-0.09658123204892759,0.23691044496577698,0.3181141928885773,0.12982851485397806,0.16367553882518343,0.18838239177987412,-0.32603553989154266
0.48009612885422703,0.03500241099313109,0.5472957371353676,0.6353269621085859,0.3991726233569081,0.43970178336977955,0.46818552333097835,-0.2126445735987644
0.5306511132545957,0.0718203707951014,0.5849147595954064,0.6748347187991005,0.43688737351683116,0.4448007215563876,0.5093419854831212,-0.20926338537256725
0.51856907722825,0.05018585126309133,0.5584061811998208,0.6356897352927451,0.41487321094261864,0.4412175497089012,0.4786004660138512,-0.24012758676206963
0.39353665817390415,-0.002297657350451815,0.4058576785873239,0.5240723825093684,0.29146748131685424,0.3229645915342806,0.3538327017148726,-0.23480759386504219
0.28068192080024473,-0.05510394950870061,0.2828367769724238,0.37610905611900314,0.18975706112529192,0.19963093238491525,0.25172549753275936,-0.31177015371221917
0.18407767962301522,-0.11052439691928186,0.17383421545664043,0.27564601509449765,0.06730603311635558,0.08553370657007672,0.1350758259873616,-0.3277810082398949
0.5022047617375196,0.04836420540968436,0.5782525547039732,0.6647426741461641,0.4322863417924434,0.44846532690691776,0.4844657449619566,-0.17551062313329513
0.5709766876026617,0.0830594315875397,0.6208023964467819,0.7263229662411756,0.4993014749162793,0.5314077192870942,0.535821141423818,-0.14422734256157957
0.5661261327922641,0.082582150022019,0.6167453972401107,0.7115866092898043,0.456843245114886,0.48626152894006025,0.527427671321432,-0.19455546092824877
0.4357552172941952,0.011882819222774399,0.4669263915795232,0.5647558490233143,0.35185686657841136,0.3882345310654566,0.4085543920485282,-0.2420701579471215
0.32066107187386195,-0.025899702216348616,0.3126125340892146,0.42281716269438907,0.22607716867243646,0.23210105943272505,0.2931010257095404,-0.3126700229020534
0.1791313151837196,-0.15667281818141138,0.15854976761943299,0.2607225985267095,0.08663162749729099,0.11711406325112142,0.13300021327665165,-0.36175669246927505
0.15780415328456804,-0.1237403651335002,0.15920964685778177,0.26538562586251274,0.046595558617784846,0.05732908358709654,0.11638559853654809,-0.3942794468678172
0.4787495633135046,0.08440433464591962,0.5521328578701641,0.6520033851512168,0.4208864745634685,0.4616801634640908,0.47012342201621543,-0.21743294905654012
0.49857432010755554,0.04791084913613494,0.5305391367725104,0.6428569280493068,0.4251832928740709,0.4418283024144888,0.4916437808344587,-0.22896361127541712
0.4384057939053683,0.002193241101600185,0.4714022781158104,0.5751786708863184,0.3802312126875366,0.39185473660215975,0.4020889465496029,-0.2710328209568572
0.2938877371844777,-0.0719324091962016,0.3044702319803313,0.3958281547719844,0.21815689537969596,0.2126416894081129,0.2435036832725315,-0.3378459577388009
0.17356033323739292,-0.13808038308688558,0.13760397986786188,0.22700888098579952,0.0945334320627809,0.07210809068592826,0.12117967562749046,-0.41963606204892145
0.29287920383023475,-0.035439463531124316,0.30837480914059245,0.39319776824546515,0.17590986504903516,0.2409749532200872,0.23492767274045606,-0.2723763567382921
0.49629358437063964,0.0420088966303869,0.5459404997671395,0.6344947586582051,0.4401274505266322,0.44975289073168695,0.4954960986821323,-0.24242151437493595
0.49279391576889753,0.02730586973105703,0.5327071513761684,0.625231398891651,0.4064993229853479,0.43117346536051815,0.43814751633849525,-0.24560713785733765
0.3999763070862747,0.017387140226592587,0.41214040155282256,0.4954335629513294,0.30060922054173445,0.32442507084619543,0.3299117269842551,-0.28206304297433915
0.2360663291894866,-0.10884322971180177,0.224194213192811,0.3192061653300716,0.140955860129555,0.1496273779623904,0.17115742415414487,-0.3539394574063554
0.0964514350031056,-0.1828202190101515,0.05420348784282912,0.14176101556942486,-0.003459453230070769,0.005622495868780941,0.02260527341381882,-0.4488302045857393
0.1662633751887443,-0.11042691658470034,0.15754498189847627,0.25840082620969523,0.03456066174042195,0.05529776720856226,0.09180734634764284,-0.37596393180316917
0.4543641264918054,0.022216285941358938,0.5121714983685107,0.5959516152124891,0.37843327250368747,0.4008088314634731,0.4305408824974659,-0.29941791408069873
0.4459042549026794,0.01189091843861817,0.48936591226638554,0.5859188901258006,0.34948653435330174,0.3761480568476828,0.425821350173633,-0.3046035805057907
0.36331048817295536,-0.03803982869031863,0.38008802140836234,0.4867416082789525,0.2850954119950703,0.2903746039643426,0.3088244490257296,-0.31463888850380184
0.21457121177447963,-0.1222087028908553,0.18886566713335928,0.2969620760148219,0.11040792258675652,0.10515748724555393,0.133048686677474,-0.39829077583559713
0.07009941397477557,-0.2034601281953998,0.025633014746426673,0.13689993473425685,-0.045130252560151005,-0.053603310827587985,-0.0011798062489799394,-0.43933680885870485
-0.0841989773650332,-0.2736667594449286,-0.15757896355954204,-0.04270389472649243,-0.1828281829569674,-0.20467668385053367,-0.18728264098490752,-0.5511417824137448
0.25509978555695556,-0.08637206128745054,0.3152212656354655,0.41887525783792906,0.19700829178969348,0.16522775857318533,0.2289678496172577,-0.3795294740412878
0.3162971085675086,-0.09389892635970146,0.3553079751939615,0.4703817592153125,0.26601602438899263,0.2693456842864829,0.28539842127850273,-0.3329554059843199
0.3098559913829474,-0.07483802480571541,0.3347198824568327,0.4378573780696836,0.22415411142956113,0.22710745065724242,0.2760210903355197,-0.34980004602189363
0.16161704729773235,-0.14562212785514023,0.1312101788808257,0.24245206947053247,0.06996014099649588,0.05003692014489147,0.1159559095249358,-0.4175274292158817
0.012871503524395773,-0.24342863637520695,-0.04317089195451383,0.05325153039012616,-0.10123751496759785,-0.09502534045648012,-0.082614544602516,-0.4690219237859013
-0.023250642533651597,-0.23718292824009324,-0.04174643870617363,0.059565381813457455,-0.11962130609903812,-0.1294485051333392,-0.0935436097692994,-0.48106325401058053
0.3308591481119284,-0.056493234603957304,0.39762372591640316,0.48724239925303603,0.27651938164346357,0.2797621267862616,0.3092833641617533,-0.3393488045077437
0.33011797491919903,-0.057214421942891586,0.35264018310764933,0.469431104070099,0.2397107690095478,0.2302431774685721,0.28240888442999845,-0.37876329693092525
0.277924096371367,-0.08403038632223381,0.30509762510550914,0.4097665687282049,0.18627025473229936,0.17599712079287305,0.22612370264002102,-0.4002978204610753
0.11301611720104088,-0.16406835740589626,0.09333695111371738,0.19763264912830936,0.012825902361812892,0.005509467160095177,0.012798919114466498,-0.44242350335920805
-0.0342465156710251,-0.2562568973510798,-0.07740018481120914,0.019894172267882114,-0.15292439905971722,-0.1500388953714269,-0.13146843243991635,-0.5059223584187155
-0.052557638570187734,-0.29877444202599124,-0.09742097845348621,0.012142402107599523,-0.17701997644972417,-0.18816049607430668,-0.1496017694288369,-0.5254755264954397
0.31644665425748175,-0.09593606884696365,0.3766544334421462,0.4815136070412755,0.2327494499798664,0.23586495875451502,0.2794249725801831,-0.4580601560809771
0.30424874185032963,-0.08105654983419422,0.3327051934057048,0.4378304052155365,0.21468710639959526,0.22485179561303226,0.2478858695854067,-0.3886321936659009
0.2642211899156563,-0.12715593985741616,0.28463365037704713,0.38124945170048735,0.16020433090794284,0.14528125466885725,0.18576430602947858,-0.4174775403289367
0.09251683244104267,-0.19223657892354298,0.08233080376988988,0.16929503094873194,-0.017528275425102276,-0.016687583915974524,-0.012615050097574312,-0.4926036952776718
-0.06377327272973209,-0.2985577980001367,-0.12160838013854902,-0.007660658879289503,-0.20120426996808569,-0.20108674003421326,-0.19060062966862018,-0.5381281123428329
-0.19588005369659656,-0.3550506362185895,-0.25482446338419124,-0.14806595134040157,-0.30618643136377355,-0.3085796990983586,-0.3016271494878172,-0.5851729782074485
0.2140534480190661,-0.11409341210188238,0.25718892282903505,0.38053841629608454,0.12682098821063764,0.09792153021187622,0.1397772405663026,-0.43359238176386844
0.20685320094353618,-0.15475267085216698,0.2427161995577633,0.3564369999807437,0.13621203237007523,0.11025561975480437,0.16886832309939245,-0.44280181324188217
0.1948750929044734,-0.16823933917025657,0.20412469850687617,0.3183996060436263,0.1225024512141411,0.08385632568543908,0.13584673333542513,-0.4419616439333951
0.050901211056686546,-0.23777860759787725,0.032146335651877675,0.13004869033919159,-0.059671603095639035,-0.08964318280647274,-0.04557877541996025,-0.5059450714490996
-0.09275057987815465,-0.2949906267114927,-0.15064251099365322,-0.04641381770639401,-0.22984907990599704,-0.2438398457285182,-0.2097757888629258,-0.6222078503249465
0.037154788095912716,-0.2365450172796421,0.030624936156935338,0.15154189655805847,-0.07646941172103319,-0.1059627861621451,-0.06135553442580056,-0.5217534938147838
0.21308760176566552,-0.13895885776297873,0.24984051356891926,0.3764158048942563,0.14827662646860246,0.1305246606873896,0.14701518758899296,-0.44492133066620965
0.18511196398017465,-0.16176479080759765,0.2115710235920058,0.31712056672641503,0.07553544337847579,0.07357232626291546,0.1317240926208511,-0.4321116126348438
0.08451672711582883,-0.21896318474412507,0.08718481181900312,0.18885278115130882,-0.021808183646591275,-0.03398084190709762,0.002147620282216073,-0.5115799887471891
-0.06932664364031087,-0.2818487910151376,-0.10759632194098001,-0.017601099911107435,-0.2065246429998524,-0.22434217759062602,-0.18416716776722752,-0.5309512011718354
-0.12627492957644632,-0.33876602306319303,-0.16130117229854124,-0.06766286198606611,-0.2493391958093166,-0.27156608124263804,-0.24262881056674984,-0.5726387879068131
0.2637100493783012,-0.11478990115448778,0.30645095354282575,0.421455877927149,0.16407969733850344,0.14502396588393973,0.2053150944532342,-0.4262182582075891
0.25469637648107957,-0.13134459885612954,0.29672708224896915,0.39817916688110777,0.15179036227787948,0.1484152217378777,0.19363997317450105,-0.39054678415952254
0.23394467927994894,-0.12792558428030942,0.2545153838314023,0.34747730630415474,0.09685436781370316,0.08496613143794922,0.14999034378277487,-0.3827584072306183
0.08414187490779176,-0.19510930115648817,0.0633454193864216,0.16967928278302924,-0.08794482210844588,-0.08650116913873646,-0.03055101033187635,-0.5088370434636327
-0.07238351132819383,-0.2705248004507684,-0.11292947567185319,-0.0026374339408669067,-0.2169908317244224,-0.2556788064766912,-0.19415435129590952,-0.5590450391591322
0.13065366690186853,-0.16565805415892682,0.15781976970231557,0.26429309992007,-0.021178619817988124,-0.04291514885349161,0.0014356602643051802,-0.4801707097896952
0.3046999011546989,-0.07369351909226443,0.35534391014185657,0.4643733434701596,0.17663950922671703,0.19026472167417452,0.22232384749881545,-0.35953345939550374
0.30500979849962556,-0.08378508559617981,0.3535282745717898,0.45657148682408427,0.14545897251250872,0.17885732788287803,0.2025371550045021,-0.40080365389233624
0.1988745652923956,-0.11567174085308565,0.20110178295992306,0.3153971360383252,0.03429929455124716,0.037307220975981686,0.10903103901845668,-0.41575944426060196
0.0454363530619728,-0.21126745554561346,0.016778509218456642,0.1324381304589992,-0.12440119176158694,-0.12719484720906374,-0.08978816750898752,-0.5057607087890215
-0.09182137945342866,-0.2957570699603296,-0.14222593460405905,-0.036285257517026034,-0.25937281183531,-0.25573007259209063,-0.23517577588467614,-0.556634866350825
0.19799879786006244,-0.135127571090837,0.23059352045462211,0.3458063803106647,0.034539424849601486,0.022742674985380865,0.0905808194508469,-0.4122815213099601
0.2553534529517948,-0.08545799485252047,0.3025026290285611,0.4127238438728831,0.12102193837468442,0.15216602417696484,0.20614942002299055,-0.40176121456537817
0.23962872865832535,-0.1405407707347843,0.2841348688749967,0.40100868987442667,0.10558967203127284,0.11308149344172459,0.18045471618002196,-0.4578035235695589
0.13109366558590926,-0.16903546680991466,0.1249516475811818,0.23156439694399,-0.03475069145632075,-0.04108952546590085,0.019931818047948135,-0.46686374519594015
-0.0435013154191425,-0.25139211935908945,-0.06899999558805366,0.03509350573686859,-0.19123088974658858,-0.19549685057371363,-0.1578772218351674,-0.5491958039730283
0.06493622099714386,-0.18109005607987755,0.06967575452333595,0.18633588285931033,-0.09755133975715016,-0.09006487339347669,-0.05279950649375127,-0.47330572511126745
0.3269199278608064,-0.055635504967764066,0.39567456413819846,0.49630178912189127,0.221305281051113,0.18119890982922154,0.28226965084862,-0.3995105089831706
0.32909936232463943,-0.05386222166302648,0.369303441668809,0.47961865139514054,0.17482668811069205,0.17690368998857403,0.2554270268702885,-0.38042438381537114
0.24637419953171916,-0.10048487330391621,0.2634816947061076,0.37705418416478825,0.0876340100318939,0.10834230079406713,0.15295891227553993,-0.4157019376881784
0.09203671728243748,-0.17690118572581753,0.06312001017072034,0.19845073189890788,-0.07068053734910729,-0.08117938943166375,-0.02101965990934293,-0.48079328827557843
-0.004196414904323773,-0.22850319425954282,-0.03720632858475622,0.08273744321486523,-0.19591184661305014,-0.176878846533097,-0.0989427451002775,-0.5498411794569287
0.36430693308459094,-0.010648976942183891,0.43313080252010355,0.5379610751214806,0.21426484615367966,0.23463155211824693,0.28889323082240453,-0.3724949959762012
0.35128520719583894,-0.019736154073499518,0.41717316679196254,0.5357151802059722,0.2099549611604459,0.23025770114130123,0.2731660055990805,-0.3324309614830446
0.3388516158874468,-0.05306879826806363,0.3711629412948212,0.5049026565438294,0.17109906382348422,0.20323192317218147,0.2528199190091279,-0.3432578760878757
0.17618494724995937,-0.14186762338949582,0.19965438877421735,0.32006776472827436,0.015179662909009538,-0.006757620023781857,0.0858524393257855,-0.4456303699141604
0.018031616398925157,-0.19069738120289137,-0.006933250360990101,0.12325326622308114,-0.15205609922556773,-0.13294669436954287,-0.06755672140495954,-0.4801125212477267
0.16744958223644185,-0.135952654455244,0.19347920698811805,0.3389834158852821,0.010269636381717878,0.010456232085136768,0.06869078385997905,-0.41840460730661827
0.375835144133515,-0.03360187240892093,0.42788287946767706,0.5659841372259425,0.22683530625516862,0.2729330154097555,0.32368637233910547,-0.33972455931866335
0.3697261264175124,-0.03491292774185592,0.42945994444208446,0.5489990120259688,0.21822891520042959,0.23533511055246528,0.3118251377434631,-0.3064397727474056
0.277931414957945,-0.052979287841724315,0.3195501675248985,0.4401244396965036,0.13761103420568158,0.15001453515607427,0.21199857366192337,-0.3451735835261257
0.12332244429262104,-0.13488140200744983,0.1415965199582521,0.2643370745868956,-0.04964311301218697,-0.008543703177954942,0.029308877452885754,-0.4566505668888015
0.12061116946784309,-0.1464768415800802,0.13682155608528426,0.2711905262150073,-0.03780983539220546,-0.022642738244299493,0.03327188179137247,-0.4953427556733283
0.40186265657614406,-0.01834875862274596,0.47440159131129633,0.6061997264233094,0.25849388260859124,0.30217720662162795,0.3619562992111721,-0.3004745828588483
0.35106792579013096,-0.046622806600348066,0.41724009257824934,0.5449068017418607,0.22208281664738566,0.24844258205642278,0.3088115281205833,-0.33693282511110145
0.30487434861787277,-0.07646547127402922,0.3539774097905748,0.46496825559080096,0.18971857553953847,0.17639087233766143,0.24569015683981715,-0.35362337814153005
0.14882113886898654,-0.14173863410571488,0.15413346048764318,0.2883441607446598,0.008487826737019283,0.006142061640162344,0.0994741752591254,-0.37663704804306725
0.0056033451539958395,-0.1964957295001139,0.011288109353068149,0.13005431783744564,-0.12401953536468696,-0.11884409652595541,-0.04393042634591893,-0.5041168971712547
0.32398899530396374,-0.055040883532201185,0.40755416372349423,0.5382170321923455,0.18835548030669158,0.21400683403453896,0.2891175505690554,-0.3299894721742059
0.4246159160127313,0.008719751314113927,0.4985397330231536,0.6292965220134248,0.28731103798323465,0.3261114839635988,0.41658022559844793,-0.2735097343124615
0.4115986055869894,0.0031831573645590416,0.48313666442367476,0.6212979398460631,0.28968052327223986,0.32483509435234614,0.4053309629977544,-0.3202693562667519
0.3128617544268361,-0.06589128572924072,0.34314804375941393,0.48308492180713214,0.1717965909284749,0.19457337950101478,0.25929500125690585,-0.37003109396453937
0.16873229503557843,-0.11311446874072734,0.18275359730736468,0.31755338859774157,-0.0011185229717113124,0.038448277688590604,0.0952846188264027,-0.4132331193883815
0.026964429504393463,-0.1772977432274486,0.01938201984407207,0.13323473404508274,-0.12120997220519461,-0.09604436059237592,-0.027381913379844386,-0.4596116999182957
0.19306965889611571,-0.1000895053775679,0.26006248171826846,0.3897000046315862,0.026865334457661913,0.06043964557508405,0.1437278950756781,-0.4031399858282591
0.4225647729058116,0.01218801657482485,0.5011681080475203,0.6504547631115761,0.3126305589161954,0.3404099359638768,0.4142240891458591,-0.3406327966319703
0.43278180892370516,-0.006265755578293786,0.4941888971378431,0.6577338629129706,0.30024230559589665,0.3479696634728151,0.43613531646432485,-0.2719401128733139
0.34763033495130297,-0.025262663620712555,0.3861624181299268,0.5381303282143044,0.18488882534037343,0.25081725898091356,0.32099592005666033,-0.2602460464308074
0.20910423800469438,-0.10084208965926506,0.2134777525947789,0.3607359774225661,0.044585025019497314,0.0726394376777988,0.1486170091366893,-0.33338338759207703
0.06765081032684868,-0.18878443214458862,0.06151050594220739,0.207815060006963,-0.09136392218405473,-0.031417748373053195,0.02638731395225631,-0.432594164973591
-0.10583828863565574,-0.25908593692059423,-0.13602720523729092,0.011540723494252628,-0.23141794300178942,-0.21792796523576374,-0.12872751657830014,-0.5246878017410939
0.2551822313250163,-0.07722744504381382,0.33481839660963925,0.45950675494203863,0.11048771113066673,0.17608816684702577,0.23033235009956796,-0.35073798590179484
0.3628941845763928,-0.010669835225335461,0.4124543864357971,0.5647919635823825,0.23033238470152156,0.2890864597363299,0.35411359578125245,-0.3101160024006878
0.35220407231978634,-0.0665673662068777,0.4259785886254043,0.5630279849602081,0.223886899483897,0.2733264914078071,0.3836263569966393,-0.30191497848640503
0.2400490378506389,-0.07135499419451692,0.279901977782494,0.41629391902504465,0.09973751833630565,0.13352593823836295,0.2059868336253285,-0.38609629562580855
0.09093406006161685,-0.1350207074769586,0.1094487886363358,0.22806883172699072,-0.04020910312485565,-0.02884574348873946,0.053148884380149336,-0.3790962020115384
-0.029372595470361848,-0.2175755543509586,-0.04296522331769817,0.08414816606053248,-0.18344358303855546,-0.14891351734411665,-0.08400041769228828,-0.45442443180625075
0.2766218998354345,-0.06553244216030663,0.32735097546346853,0.45929083268662885,0.11914299890252693,0.16205741235321233,0.23671790416545552,-0.3284585886196509
0.269341332971901,-0.06256318411952283,0.31954665522033143,0.45944683889113913,0.163818303594259,0.1935258607465289,0.24646085835563963,-0.34036725734215034
0.2540809812485194,-0.06623201718596769,0.2984421362254227,0.43751918824492175,0.12145056077755777,0.15079816173850458,0.2385717205978825,-0.3593978293726835
0.11025189539578777,-0.1370245855670261,0.10908735357658154,0.26058088958396564,-0.029719519572997587,-0.007277527734315045,0.08521409245429729,-0.4248868798886424
-0.048518494236009166,-0.22564271215140322,-0.06385596976865252,0.06503546085696375,-0.16018750316152675,-0.17613834811735293,-0.10225235513365125,-0.4631399117134279
0.07451644124782579,-0.16292426633593615,0.09143374935034347,0.24322885514712664,-0.05911216134527354,-0.04357386900345528,0.038762708709683014,-0.4133042675755164
0.33375414131333725,-0.04965496880387918,0.401104806404669,0.5438267808586843,0.24234957529324724,0.2428202109087651,0.3338413374386616,-0.32506153252624553
0.3189401494219099,-0.04088716039809567,0.3840969862814153,0.5320411708406895,0.22283316762335656,0.23220669088298068,0.2954106567059523,-0.28737426687908774
0.26579526332329784,-0.08560566903417526,0.2917170853650736,0.4262934419228688,0.1287375526054751,0.14829057543350005,0.22077604924721222,-0.3156548984522022
0.10248371174097066,-0.15050427486158863,0.11415983506546998,0.2510986845195786,-0.05039084111501524,-0.003809911316525083,0.04665750938606185,-0.4129029081848938
0.005942651772576204,-0.216297258983145,0.014098819012018954,0.15504154982882282,-0.13074144938662002,-0.11000651583710079,-0.05097587888433221,-0.43761478408556836
0.362224720936332,-0.014954533870303433,0.4436435994797582,0.5703954756899846,0.23861485604508278,0.2571864404292673,0.3271713332367403,-0.24623963430734494
0.3895678920521972,-0.0034389712098140957,0.46665542025406676,0.6016966268907201,0.2602505567874951,0.30732060780629905,0.35706565356025066,-0.2816938611967289
0.3778280123532716,-0.01188386358566304,0.43615296614605986,0.5886832821739287,0.2638753663164231,0.2796535909172221,0.33996247791859974,-0.2681397805589052
0.2634532260296022,-0.08037495326785864,0.27583759414099807,0.4207256925351196,0.10089969362386852,0.12801231956554102,0.1869300738112103,-0.3051356273089272
0.12227138813873745,-0.1423819024685148,0.11654987333483116,0.2744341703298245,-0.01741703087444261,0.0013567523331870224,0.066954663903887,-0.3612330218313025
0.09783801782607641,-0.1643829423966905,0.1058685976104624,0.25083277077753013,-0.04171514203830685,-0.024890597723254596,0.04102243876230005,-0.38517950879700935
0.3991364853541313,-0.002036963910738404,0.5022609603139662,0.6346325921089186,0.2974785550878787,0.320360218571834,0.3834960381684549,-0.20910509272539704
0.390422750260196,-0.019421306580123088,0.45701679848495136,0.6123859980975733,0.29172691481315544,0.26714484057110444,0.35653331809113087,-0.2668666925527331
0.37319173328230787,-0.0263296766972696,0.4383470751450784,0.5656163402746276,0.23847030955845092,0.24770259840222905,0.3394819896672168,-0.2779806630974073
0.24109361199844498,-0.09879939609020345,0.27834215443273436,0.4121586139222366,0.09224326178559067,0.1061095667420551,0.1828785837941233,-0.3060580790577402
0.11267705245976384,-0.145318752247862,0.13315094222372784,0.26790367515038965,-0.014683040379981183,0.006908278416921487,0.07257093450323375,-0.41429427378061556
0.36036317409522245,8.470715964817854E-4,0.4613775321771756,0.5769688132494659,0.24429309762504922,0.2774721556509935,0.3178846867723317,-0.3097291700872011
0.4088499671574528,0.006579202500000408,0.4980877036308117,0.6488429285193469,0.30185355430799654,0.31790431405536745,0.38398482456619615,-0.2484484216728255
0.4211276517428995,0.006299997356626702,0.48929755750938886,0.6322938427640952,0.265147797886267,0.30829559615283963,0.37546012245287275,-0.24382940299658679
0.30100419028316094,-0.06647393366183,0.3455935258409279,0.475274185663676,0.15055967512404245,0.1813286952875211,0.2289518007969019,-0.25605801778264853
0.1706023423178086,-0.09829703909189047,0.1940781911122907,0.3308313875118353,0.028651656553237113,0.03873231047785919,0.08562965444766422,-0.3567047802263687
0.208253020411428,-0.058113407636771544,0.23962320297960277,0.37188894375225123,0.06019840777784451,0.0709904532203832,0.11420543975560528,-0.3140040659558941
0.48774534636922895,0.08305086681966392,0.5800170828379901,0.7288511728002657,0.37394788287174774,0.4080958679485357,0.44327833832532904,-0.1855338991066058
0.4896249069000795,0.05962329516317663,0.5764876537366875,0.7092226379597921,0.3423246306801476,0.38214134669397565,0.4515961767414941,-0.18572728336473399
0.45074062795888303,0.045806793313458896,0.5170814346299925,0.6608965443710265,0.3113090024729558,0.31898394489213655,0.37484918432984116,-0.24592947189694392
0.31107407062228976,-0.01595777763145209,0.3636955909066205,0.4878270295275385,0.15656419825725296,0.18279455359904406,0.22974998271218783,-0.24861553840068762
0.20704730648124575,-0.07569239088282002,0.2092988872392242,0.3550827143314018,0.05580103252766304,0.05494174083119173,0.09933505745096187,-0.36956089678280774
0.2253232369348706,-0.0612035704904796,0.2855048056856003,0.42112950492209844,0.06206441327504696,0.10193782620902289,0.16128976494864167,-0.30322261900331166
0.5074994576762863,0.08331125577818464,0.5971769411894502,0.7570474246341814,0.3965413016493577,0.4255315497033144,0.47971613775816824,-0.22691722046526613
0.5064491986008222,0.07275565220585371,0.6028638344870323,0.7371876601145391,0.4035098695230093,0.3987170693712005,0.467492529027123,-0.2079716232767922
0.44908294877265736,0.051943036170016124,0.5150015233464623,0.6627020905975547,0.312254128289045,0.32864553235185334,0.3971207470044253,-0.19919822997593817
0.3207536797545017,-0.02404825047167873,0.34950890050941674,0.4941692758566176,0.1540482034456571,0.1680152266197073,0.2351115760055037,-0.2664938967614026
0.18579238646520502,-0.09453346318513578,0.20764809322922698,0.344531683572064,0.05196422899710257,0.05144525868479104,0.1319284064800127,-0.3210499001054596
0.20302720726292328,-0.06342164395665628,0.24335554532547585,0.3954179443915683,0.06478355053618312,0.0748266474514129,0.11324023435772093,-0.28453490754664945
0.44830025976463095,0.0549733520007831,0.5340356192681204,0.6955420755373554,0.35086883986148365,0.3526746733959868,0.42964463781339063,-0.21799791108776956
0.41723933287058645,0.021056708736280766,0.47855297003881003,0.6299190085710814,0.2846698214835436,0.30245087508810486,0.39643225722222053,-0.24871450996009212
0.35112383753711063,-0.018884447271562757,0.40787741064608696,0.5482090933612798,0.23440741032768775,0.2200149683347032,0.30313811325775425,-0.2343420288494893
0.19161676781232265,-0.0956050584426532,0.22342899670038896,0.3485501964512363,0.04739367731298784,0.0564136319773242,0.14352577462699773,-0.38106417149310157
0.048694036695753874,-0.17195024774073142,0.039186458801458726,0.18254308599436114,-0.07283662929539303,-0.08624550581823084,-0.039179708801362415,-0.38854109526985736
0.23214984730525304,-0.08929389544322158,0.2770830033400141,0.4138693503994118,0.10327690068857759,0.08915602599321464,0.16286978405371474,-0.3367474161105967
0.4316562442556883,0.02333944960028092,0.5072871023301293,0.6691167825842373,0.3296047046861996,0.34852996646359585,0.4556769198601474,-0.2303096247486462
0.4266660424461169,0.04328970982533292,0.5087183825267251,0.6594127948751606,0.29389913962083203,0.33808173470638836,0.3950658442784135,-0.20785501157599212
0.3279227599722114,0.0021930101195769963,0.3802774649809436,0.5341877623691847,0.1919509253842212,0.2258963361790181,0.28100374401097455,-0.2540926583382117
0.18174923774106622,-0.07921000750525464,0.1933402998692826,0.32919767432512737,0.03153755892703216,0.044579897766801005,0.11743448345407503,-0.38367582608124323
0.037212742107429274,-0.16803036724429662,0.023248287667749015,0.16361473013423883,-0.07607238541092462,-0.09362379772493357,-0.0453894056430233,-0.3949151508325731
0.23999667286191378,-0.07346352591815362,0.30800111572025884,0.4305891619576973,0.11564306675408936,0.12953662387039577,0.1816655266824492,-0.30799009633628105
0.40404446650354453,0.03036246170498587,0.4849454975040562,0.6236710944831808,0.3133059957299939,0.33339651070359155,0.38153784369283766,-0.2514958020680145
0.3964212194520456,-0.002555209280214382,0.4522951633755724,0.597302541507558,0.28441376039835264,0.30471762089376775,0.34123954267153045,-0.27751085077937043
0.28004686385531125,-0.047861897168476455,0.3250613840711247,0.45570702826186316,0.15593581627160877,0.1707766683454766,0.21697553272740322,-0.286430342473968
0.12329632060078276,-0.14183972379957815,0.1370347683072189,0.2725821381980664,0.006623456749722388,0.012380757734651276,0.045170912193962715,-0.3843602427287192
-0.009343916433794754,-0.22817236921042403,-0.030451147187432415,0.09082453985873178,-0.13825582135188433,-0.14886848848129897,-0.11409377248489797,-0.41799392244421024
0.19207457462675165,-0.1265292747074071,0.23901555298730126,0.3811200826759611,0.06748770285075681,0.06933238717178886,0.132045070039165,-0.37742173245685756
0.31273801638577525,-0.04277144828943545,0.38174126619521476,0.5335981091143727,0.2383374230414873,0.2443290051130428,0.29896980561765724,-0.2916839183994359
0.31529922628460133,-0.06099225376958298,0.37582176914117577,0.49271017518577387,0.21650325930071843,0.1900485915825501,0.2588227549327793,-0.3121420362975921
0.2024137978046869,-0.09572769730124309,0.23442769117305956,0.34920923578069096,0.09007495626272707,0.09967599572142506,0.1294565225178784,-0.35326627134114746
0.05304408216799115,-0.197454025280241,0.0450366345030002,0.1670733644332414,-0.08802675922818175,-0.06392178184586499,-0.03553438620668535,-0.43531215867276585
0.09490617120321175,-0.156598403117308,0.13273910321276874,0.24946101921094838,-0.02240594942824476,-0.018922481800395116,0.0221496488211394,-0.3931241101862568
0.35356736983883164,-0.025103802444439494,0.443186939577726,0.5593381546827982,0.2694134796277501,0.30841305363157884,0.31788442562774155,-0.3027052523346362
0.3274828536680113,-0.040722727044391435,0.38693248650145196,0.5208678251723555,0.22688814695189363,0.24847220295096561,0.2923656221162664,-0.30547033348255154
0.2727722202757204,-0.07984489956447048,0.30009964192120486,0.4491036989313386,0.1439414540107735,0.16345505109080372,0.2057089409491945,-0.35423650674870727
0.11652032696553598,-0.15030861876752166,0.12442292733563562,0.2486500749899518,0.0034905537566330344,-0.007410788776431532,0.03922961515311012,-0.3960714815453747
0.016656329943840642,-0.20074137866488523,-0.002411165333475254,0.14026746133017887,-0.09920227045137389,-0.10584562603898577,-0.05703414286107021,-0.4959867862960136
0.3599342586025896,-0.020138881600165637,0.42875868266086464,0.5676818894517778,0.2488712250722157,0.27079153238868875,0.32466683347625197,-0.30965679516987793
0.3864507892632453,-0.017720316408139897,0.45299984809469096,0.593128367152151,0.27160175540280534,0.2830328049350732,0.36122066761886235,-0.3151707005080643
0.3802224932741714,-0.024048158653449447,0.4431374494168159,0.5747076435424455,0.2626907776683228,0.26396754145502827,0.31994619220395115,-0.3092480409859659
0.2529251433496813,-0.0863905543234354,0.2756157672519961,0.40784310186350725,0.12983715455431144,0.12338248394097454,0.18518380978761126,-0.3583210535194217
0.13057289231576155,-0.15514852525939737,0.12300425159248093,0.26012154459043324,-0.003914638700681448,-0.009194258518073303,0.04451822614781102,-0.3892035905692263
0.04827060696434035,-0.20596121847637364,0.06670869006241731,0.18838957473181117,-0.07807457735753777,-0.08083081549706472,-0.03231632378133123,-0.42265278757284863
0.3990003776329303,-0.00941893716301287,0.47443709016135643,0.6257896247968744,0.3183353601279333,0.32130218215458495,0.35586425638961233,-0.3150065970162207
0.41078341804821317,-0.008377837469118576,0.47285475190455395,0.6110031601642318,0.30327755027579084,0.32531821252507115,0.38645993503704107,-0.2682626594431209
0.40312822478024385,-0.04238428128234248,0.4343954783317464,0.5891819667483692,0.2681933795671104,0.3091450987092796,0.33523050781035935,-0.3105678812167899
0.27277051932772056,-0.09203133912847354,0.2959106363119061,0.434340677351038,0.13225212104601958,0.12877944711977624,0.19536173536152174,-0.36318898523793325
0.16632378970434247,-0.12176732986098529,0.17435041051267527,0.3021699734964973,0.02907091872132367,0.028999191842486588,0.09992598279948045,-0.423100012624903
0.07824959050103818,-0.2008967778856945,0.07379271333568177,0.21250876439731908,-0.07819404525965992,-0.06590374954374552,-0.022280546912749888,-0.44456349212299745
0.3761395503016076,-0.0022004127964416476,0.4686725962927378,0.5963120122748389,0.2917282747791443,0.2913761991479831,0.34943912350836664,-0.31772832543875984
0.3738828686060284,-0.008636715587222649,0.4338174118792176,0.5662655275366995,0.25768975902703933,0.2532873067647181,0.33437346281362734,-0.3049134598392165
0.3609275249983969,-0.019867315077984893,0.40897779247377647,0.5297198345474303,0.2509907920511512,0.24978217448220882,0.29660238238386943,-0.30502057597389576
0.22737152461275556,-0.08758028666508537,0.2472360936017723,0.3754007387263989,0.12101939747678542,0.10483064835139899,0.17951013363885848,-0.36658398700562145
0.09588133393506368,-0.18556447644961244,0.10418004774113324,0.2182443524818259,-0.03916567365673102,-0.043213947461544125,0.04055481352779369,-0.42352003854214926
0.2954734001021848,-0.05119025645863598,0.34149760307984867,0.4894467235942596,0.18032550892892552,0.1888572417077371,0.25832614246977786,-0.3718535565680473
0.42922118714251534,-0.01518954093230901,0.496009727031856,0.6375748858542879,0.33972784938185724,0.3564835124137107,0.4123160297442463,-0.25289331097809264
0.4399495360365419,0.014681805595328473,0.5034988236541862,0.6485476569442479,0.31790174339959126,0.3429650380487049,0.3913736514965051,-0.2898530617931897
0.3424380840182132,-0.04343036966338408,0.3724457359602834,0.511387446559544,0.20045025415773848,0.21294879013817725,0.30757187821026755,-0.31190973879172607
0.21571847959709992,-0.11584930911587538,0.23524919759006274,0.3596461816932653,0.0844435709371196,0.05615610917909099,0.12901661294636502,-0.343991542891106
0.13575196543452347,-0.13537725775025947,0.1464941194138112,0.2875655977332983,0.009329840524459801,-0.0017769354806445592,0.07881852999234684,-0.4556642837784025
0.45559973477376464,0.02443697918829807,0.5313184222970392,0.6672279760705196,0.34172980352435106,0.37296652679691855,0.4204592943794187,-0.23403587149054877
0.48007744790716034,0.03242129840501151,0.552953941642385,0.6900642815492621,0.32692500393478663,0.37628148867872485,0.45777486941024453,-0.2652317074027699
0.4616135167578393,0.022036046327876868,0.5105677481017387,0.6568154043069022,0.32000779304233273,0.3130873519577728,0.41292898940380346,-0.2758432732718237
0.3306193459183135,-0.042044658876925795,0.3731630899457195,0.49327705649196035,0.17707183514150543,0.18195588565025023,0.2530292032875404,-0.3112813676380154
0.21393475350934787,-0.11314688796428486,0.23839806281416148,0.36113164469388337,0.057437507863191246,0.05816461039371659,0.1515749827037192,-0.389370614407802
0.10926238231476958,-0.1621666588402308,0.10167689055275558,0.25932586848116773,-0.05782901483658573,-0.003955312489749452,0.0456145697078395,-0.4122303242148874
0.4418710029878855,0.002944031299808164,0.506115090405007,0.6627418534418749,0.32539168710090444,0.34348831388187867,0.40468262721501613,-0.27808635656098196
0.4566901500140087,0.013232271874521584,0.5216680969862048,0.6740739396866452,0.3385266665794849,0.3683902580716852,0.40686124273048074,-0.26353473815445366
0.4388624490915808,0.007310240707247756,0.49379157383384314,0.6441590358969715,0.3009035986733564,0.3463403875105112,0.4275565894195793,-0.24927792682732886
0.32770287233314627,-0.07654467738445994,0.36331868243399684,0.5087380500339658,0.1905533501916201,0.19811862224826804,0.27601844463496,-0.34568013551913385
0.20693927561199135,-0.11216025845651674,0.23662319159518358,0.3636995977168663,0.06797028294712162,0.08736135613504678,0.16250058366935582,-0.3811688582545937
0.1257661599483102,-0.14696726736473717,0.13288038843313288,0.2604263583044714,4.842999662293193E-4,0.008041375629145031,0.06223494486178244,-0.3721708643420708
0.398146504127956,-0.003981442512830002,0.47215385418326306,0.6266024432565109,0.284866100678044,0.32198329185624064,0.4051111334067242,-0.2545683502999932
0.3680125936120438,-0.02751674766019424,0.4264872792545254,0.5655027669677498,0.25651307407286,0.268790151206362,0.360035658257911,-0.3041532807666835
0.340114968448756,-0.038185715076340485,0.3980132184547794,0.5125466933990106,0.2172507352951301,0.23754317356091556,0.30904628009085694,-0.32687044866751264
0.20273372525978145,-0.10324366626116492,0.23226947568012976,0.3416117435282902,0.04857428346623154,0.07916831287586482,0.14941169442787056,-0.40178059743973765
0.06570534577771164,-0.1593803371545217,0.05373329817141132,0.19346811246047685,-0.07204563267913629,-0.06162787383202356,-0.008335453031186504,-0.42202806686814937
0.12477991535343601,-0.13299147912772644,0.16155284187499197,0.29372197121869803,0.01624653445881913,-0.0016932493969479268,0.09739279299288729,-0.38911427870989845
0.4057514176412465,0.01827059678225422,0.4905727402268148,0.6201101485923443,0.32238270615847936,0.3285924019658011,0.41445353526875855,-0.27651281537561023
0.4075153337417511,-5.161581195513854E-4,0.46825643675271816,0.598455372559111,0.2684400457542163,0.3003255924513819,0.38247094125633124,-0.2772051823496391
0.3456290808696898,-0.0230976205494767,0.383227843649031,0.5148065323277186,0.21228467525698255,0.21694520708736678,0.31785761779873256,-0.36568807927451297
0.19808635372205827,-0.10346184118890948,0.22071818141396857,0.32437593270821197,0.06224473780907588,0.06742672314555412,0.14050579809216118,-0.3735144703551702
0.06871433148646026,-0.17385243613075202,0.07428422969896102,0.17879684778071792,-0.07446377769194107,-0.09062331156148858,-0.003921791233820915,-0.3798789015682452
0.2928104225166824,-0.04021457195708791,0.36541094423970055,0.4813642372679283,0.1782410288977884,0.20640108995026607,0.27439926039285006,-0.31579809238782264
0.39771531294275514,0.003912306195326648,0.46971913032665014,0.5975205383592609,0.28509813958162034,0.31757130858695237,0.3885378573090927,-0.276703119920641
0.37819139538028707,-0.01803211915010361,0.4527640391144137,0.5881718713219428,0.26385355077789796,0.2679144524426169,0.38326807471301144,-0.25718058210770023
0.28477039038842716,-0.0340725069524358,0.31735499939026673,0.4443373934988878,0.16271500373916986,0.16534960644024632,0.21231965404785771,-0.3310838046786268
0.13390775085250195,-0.1419460231458749,0.1538693230743457,0.2795856932393574,0.0027194573887238394,0.006043178293130058,0.0570210912761351,-0.38743580880532746
0.01119910650590974,-0.19508138700906352,-0.023940308555562784,0.12345187755696228,-0.13500915857706625,-0.14521602584388843,-0.09327391129056566,-0.4456433667633867
0.2630146063949846,-0.06944145596004928,0.31779465354183434,0.4677978562507654,0.16377275791762103,0.1388760556388413,0.24710824811878596,-0.2801732074734199
0.3482616744758515,-0.004719906350839201,0.4027032362520925,0.5352675510041817,0.2539376832070143,0.25056022779778653,0.3164508230229334,-0.34033120673843087
0.3459451717293262,-0.006564680414452725,0.41861285736774556,0.5411034803101258,0.2290020389505199,0.22048697071484763,0.309168196169583,-0.3234901911112786
0.23296025750600294,-0.08669308208815427,0.2618498196963396,0.37819223708342026,0.12313928286710026,0.08382526264475153,0.1596155084384805,-0.321369403000784
0.10354476801403246,-0.15293779156282225,0.0985099514317214,0.21263588956482807,-0.037133193658933375,-0.039032830259896706,0.015525466700972726,-0.36844631133421424
0.17734762790488343,-0.08574597753636476,0.21947012491067164,0.325866836383216,0.03985280040817378,0.05087784025839613,0.13781597756965963,-0.34989623282873716
0.4066411934667574,0.02113182619203542,0.48816136958737694,0.6055786584519027,0.31368230149238235,0.3034875482962197,0.3664574933879982,-0.23191836097024604
0.4078516489036403,0.02786927136456549,0.4841349542123136,0.603123489230933,0.27152021476792365,0.3011293958980045,0.38520600250875775,-0.23731832010085047
0.3488056775856387,0.010730140670393615,0.3886180723977332,0.5153212936934521,0.22639599639553606,0.20695395830590452,0.3033367605822062,-0.2933350342138954
0.21577479569313776,-0.082635013540722,0.24141493476954037,0.34987365263354664,0.09704178406789238,0.09321669651567377,0.1699993177254433,-0.3487641653054861
0.11167534503108727,-0.10937901425699839,0.11748298874260965,0.22232903818159971,-0.012625573617107796,-0.018480367777381435,0.03927271433040305,-0.41031101392920294
0.381311192115282,0.01705912150122399,0.4718169075827956,0.5844730220834043,0.27116404681006484,0.30191063631933635,0.37758920360925696,-0.2654902021019079
0.4521031575905651,0.05858680020468064,0.544652403612845,0.6549124545346545,0.36165958099312473,0.3837059868557324,0.42042224751732016,-0.21113905085143259
0.47772815618855624,0.059118997320148844,0.5382222543612812,0.6610630348264392,0.3554748710174944,0.3561221168188772,0.44610715509386917,-0.25196970033387067
0.3676755558310383,0.020067175218972,0.4085327871912537,0.5255201791446887,0.21686567910960922,0.2450375113384062,0.3169353721709205,-0.26006998218186406
0.260156289393221,-0.01692378508818025,0.2627553467718216,0.39661780394763907,0.10733626802128236,0.1212386415732398,0.1825821969027553,-0.34131753246393604
0.1848082822742661,-0.0884400975773537,0.2118395649998918,0.33327499760445223,0.0308166129608462,0.06482616652800394,0.125665219401093,-0.304612615818571
0.47963345769766746,0.06993847232420364,0.5483749422436152,0.6955939152035094,0.37673676707576353,0.3939652459340567,0.4691557573621643,-0.21745754600312597
0.4811324960149356,0.07001731967201437,0.5624579463895947,0.6761220717739204,0.3596162870687851,0.3825132628752703,0.4546675386942531,-0.18735600744743508
0.46177609278028603,0.0431405235342462,0.5168575595306908,0.6548866994839999,0.32409846727890707,0.36621420183249376,0.4304807441362192,-0.26234038521355796
0.3119443831060524,-0.00724132670979051,0.36795351115055674,0.504230936087527,0.20520312095560925,0.21247144917270333,0.2820021139178462,-0.26364971640394924
0.21641343642053598,-0.0791052400634293,0.2474543933715219,0.379830682737786,0.09074330868898606,0.11954486080447443,0.20271866363709215,-0.34188363808877853
0.23583163346670621,-0.061054956691246415,0.27646855540822446,0.40948598770145195,0.11417461087567526,0.1366968789943424,0.190868815179637,-0.33205328302575776
0.4589547421587006,0.06514607085860105,0.54557229111084,0.6825577586265619,0.36737215558371383,0.3901187315641916,0.48377031825970185,-0.23998515846739943
0.4263715797584444,0.03220241930206302,0.5064607578755561,0.6381538293842919,0.3338023378492163,0.3467698999016482,0.4419595399981467,-0.2581561453059392
0.3655179352419657,-0.013279710593950111,0.41600427388483163,0.5438612696800736,0.2536947978591785,0.2797646914844174,0.3575156189913705,-0.30627824423013594
0.2373744484371165,-0.05030689818667253,0.26672601258913986,0.38833117819222374,0.09758956862013576,0.12354872095803318,0.21747059378745479,-0.36628483673967804
0.15219196152722803,-0.08994500072079309,0.17837278246655533,0.2899130449175484,0.03920819676121223,0.030866147863848198,0.10020311530844153,-0.4023449623655315
0.46049555007865944,0.058777412981794105,0.543657970633455,0.6603562339889328,0.38104123954449537,0.39373390285101895,0.4936451694527834,-0.2021291924746075
0.46968715402655653,0.040606789540330146,0.5352397977215467,0.6771095751073638,0.37734647493841555,0.39762587297663876,0.49514801591141233,-0.2464758628921313
0.45227451333930513,-0.0034404578367791816,0.4960947062543795,0.6535306094889098,0.34629693154186286,0.3737674456839785,0.4671720759484983,-0.19969062979565227
0.31795207317776353,-0.09445189340402836,0.3587117747061522,0.484782790349851,0.2056519345983557,0.23950640702114911,0.3277735689860585,-0.30434942676533633
0.20978024466088602,-0.12770229639409308,0.2208173545375477,0.344037450414764,0.10255109724386338,0.11080723360175121,0.17329222714322787,-0.28307231271772243
0.25057636060558697,-0.10436554493412466,0.290913777177001,0.4215218832845691,0.15693188933705243,0.1714072196259003,0.2530475233164863,-0.2696034616637957
0.48034962041407,0.027067765183488968,0.5606963304245084,0.6751602729569033,0.3888577250484049,0.4342370464387795,0.5407727828127121,-0.17384905085639613
0.464859018062916,0.007073748594786822,0.5289161689789421,0.6715726851275794,0.3460594517177607,0.4003696251355739,0.512221775410312,-0.2078830379185665
0.39121180897954316,-0.006089464890653873,0.4462868335075074,0.5866602383476235,0.27788850386582026,0.306225438987082,0.4040245674261056,-0.19863179284144478
0.2528743323066648,-0.07424485044345919,0.2693091877647722,0.38793779346352864,0.12836918024608845,0.1764157776299759,0.23189412496975687,-0.32991350349192994
0.1246591696448186,-0.15415249494307828,0.13115763600615848,0.23788674753907185,0.007976023086289072,0.03966664094933961,0.09959926989626014,-0.35487958814177206
0.2699874417388893,-0.06885076587634947,0.3201675949481099,0.46701112303783654,0.14400547241309752,0.225989917578079,0.2897398130673862,-0.2574086190621748
0.4104606057040017,0.021293771514581117,0.4814349943020649,0.6095530259204383,0.31901827449145037,0.3643324630419704,0.42839760123862675,-0.23667763041279483
0.3881123624810677,-0.01720602400723406,0.4516947332856565,0.5823677088066254,0.3128491779644534,0.3346734615704232,0.41293019018624605,-0.2810820502354474
0.28998064311802385,-0.04613233383206715,0.3274551845980077,0.450359444386496,0.18073970368032818,0.21535913698323647,0.28617464907874574,-0.21048595756645694
0.14177576762330715,-0.14192419176215518,0.12741832200591435,0.25263173299360486,-0.0015611267993172334,0.0267719524033129,0.11487367866358841,-0.33241109110172984
0.19129241900638283,-0.0683654385550152,0.22375406700239392,0.3500929479611697,0.06346385627597555,0.09970989899155623,0.18556853870068787,-0.31630132443396636
0.4179165450690064,0.049326926496006895,0.4906415744995916,0.5947680112865723,0.29935704287684517,0.36370858373094817,0.438496485848086,-0.2244076908231197
0.37792662978350045,0.0029927394361029674,0.43812517340285817,0.5282648407808738,0.2765804079515182,0.31481761283564946,0.3674596345252088,-0.2589317915164061
0.2993453271342934,-0.013804093932303044,0.3353364543066932,0.40767639882356344,0.1823188969329696,0.20996431282953568,0.2734076318716534,-0.2772661578306754
0.1410559696089839,-0.082314322245572,0.15965041345977662,0.22909182085568824,-0.003226568169083774,0.02849012599450723,0.10695724657622521,-0.3634912445347829
0.015372436130098527,-0.19018734075902693,-0.012720248118398385,0.11764928123959166,-0.10352958811642579,-0.10127063465561703,-0.010638151842298715,-0.3574678572730207
0.36219098709314457,0.0030981437060430272,0.42821879478574215,0.5361203658415019,0.2657579016664039,0.30664011963323423,0.3538165947113332,-0.23245344485711078
0.3856248392528545,0.028563952375561655,0.43376353546657814,0.5290300172334462,0.2844160039112421,0.31054677802766706,0.3799401997047984,-0.23302707498338981
