0.004118315556730825,-0.02126708840723639,-0.01823887244716763,0.010974818964078216,0.0010247558715427026,-0.010033291902666075,0.002135614617575988,-0.036561659724117346
0.007252048587303789,0.014924736657229551,6.497051016166054E-4,0.010870031384507704,0.005483356911023777,0.006821516876986731,0.008686176834648038,-0.014243122744881476
0.00623808701678901,0.015307194300806634,-0.004675385685186856,0.011164203017907656,-0.010824763196862631,-0.0012344187534169178,0.006904326460728361,0.001091171642878514
0.010352388742811771,0.012723953695903558,-0.0010215867762668322,0.007024149708306169,9.15634397114736E-5,-0.005823297302110118,-0.003230136887114397,-0.015604819883361008
0.00493644329336919,0.0014634884325682345,-0.0012103602170585204,0.013518112148766824,-0.011580348880231208,-0.009016807684741869,-0.0020654322695734984,-0.031796437468680896
-0.0024578883552581676,-0.017214729913951135,-0.015105043341583588,0.009836554705566181,-0.013440176517204399,-0.010130079304215124,-0.005500925725037439,-0.04192124547755706
0.008008427758621888,0.005872046306242875,4.0140200591389473E-4,0.012901044360339006,-5.251636127676547E-4,0.0038133382653731487,0.015988425106714624,-0.0014572076617298082
0.0021567201098496476,0.029492998903489293,0.009147077427817058,0.009506316006705418,-8.654918677050198E-4,0.002969611581819176,0.015021029949654987,0.009915050446268416
0.008996113253291306,0.02489566053437863,0.0058100096041864375,0.009779049726495992,-5.897702705465954E-4,-9.500238054925818E-4,0.008044925912229248,8.512642722587157E-4
0.004874714900681919,0.011228737877288897,-0.0018751504331488305,0.00425791309442614,-0.002241598616350267,-0.004445175892300438,-0.007989632427038526,-0.022301266120845428
0.0011446529686237547,-0.0046537924983700765,-0.010632879522267533,0.0033066230253145606,-0.009419664711350672,-0.009735409142404988,0.003446554152693598,-0.039063705704272984
-0.0017695034177768194,-0.02211706749366913,-0.015016861559439194,7.244987043902862E-4,-0.012493381842589486,-0.01957898666447995,-0.009214043673022084,-0.050684358423177214
-0.003614962411609585,-0.02455301235842794,-0.015836942735061654,0.006688217781778025,-0.005248668403274007,-0.006969060830288238,0.0031576981368690994,-0.025391398624278236
0.00220968176899609,0.021513379240259558,0.0023033456775763137,0.011659879932408763,0.005197954925935705,0.00617798238446075,0.021406411339818576,0.004173887127621913
0.001456442635728141,0.021565972241799517,0.0015109241345249182,0.012734354876055768,-0.011543419120602399,-0.0028114848798122334,0.004193450277779104,-0.00269718543986923
2.0735150333140275E-4,0.00870775116529267,-0.003894058191560245,9.041757025057032E-4,0.002983596279973795,-0.006931788118123172,-5.977444415612562E-4,-0.02261555723971268
-0.002597942751903829,-0.011508834345975877,-0.0165937605470686,-0.0020363813557860563,-0.0046503670716296075,-0.020817911139441488,-0.012152041414412897,-0.03317240833545407
-0.006502406546975116,-0.030031931043175215,-0.02353326904582505,-1.6229241451888447E-4,-0.011605020032596749,-0.019323509904107482,-0.01642249951332782,-0.05178421357449578
-0.005671009127617181,-0.03578550176017927,-0.029981244267225194,0.0010819389946098053,-0.014565095423288018,-0.008962985378995007,-0.007002375621501528,-0.042688427881208656
-0.004814942392709187,0.00790130918146246,-0.005717203509150513,0.005952587585697421,0.0015995080317347504,0.010078909420141328,0.012255876128768675,-0.0016770978823909878
-0.0033830463180963125,0.0012095280520133562,-0.004433725283100412,0.006150744594232928,-9.883146679532707E-4,-0.001503035095894381,0.003250500770752327,0.0020001271421161634
-0.0026935006319021774,0.007549775700843538,-0.00876528306695312,0.008753241512319277,-0.008789894187816328,-0.005651131483643235,0.006141951349766068,-0.008063758742539817
-0.0020616866571907936,-0.01592684497037112,-0.02039673497831533,-7.618744854161998E-5,-0.00626742167550114,-0.013377540076925822,-0.012790705541928802,-0.03888563584361474
-0.005505859285641303,-0.025064774990084582,-0.021384684153322328,0.0028688619032310354,-0.004606267072148843,0.0014320772217033,0.0026484743672435737,-0.02853344717746727
4.471452314121592E-4,0.012534571228810588,-0.004340196360112204,0.008320209350830584,0.003951269425391863,0.01522755522955329,0.010018744080390198,-9.000824415226324E-4
0.0036523086843959105,0.01499459173899766,0.0015741239742941297,0.010994073725046537,0.0012422687473909468,0.003487535576428127,0.016174047502769785,0.0016874832245388255
-1.2770523526154745E-4,0.011368087293420268,0.0011297221355697489,0.007403899807200744,-0.00816327820978141,-1.302402287721787E-4,0.008053583214552731,0.0013943964125429644
7.742109887045932E-4,-0.003571281394016763,-0.011450366262998085,0.003811489977428197,-0.007767175845720769,-0.009981444507707181,-0.007342859338506814,-0.02560767583465422
-0.0029963916779004343,-0.022789948580024373,-0.01769513686198431,0.004356172318808759,-0.00925750415661178,-0.017627421067533806,-0.002181725551898479,-0.04585400484752373
0.003919419737152472,-2.5302942320435155E-4,-0.004787675963106257,0.008144065932667787,-0.005202026899612388,-0.0011392086631665129,0.003188731726132263,0.007350950988399023
0.004231385948841896,0.02646301838072119,0.005580993234983253,0.011070652032926662,0.004905400069284676,0.002939743971227128,6.272433118282398E-4,0.009924721788936768
0.006201032267034192,0.020536351862732793,0.0019308104654543158,0.006445671161700349,-0.004813438387096215,-0.008810606749046088,8.784965230923173E-4,-0.008004320877477373
0.007059854223633001,0.014568640943509244,-3.803107392388039E-4,0.002881460836543608,-0.010180608663744537,-0.014913500970514356,-0.01685894835354363,-0.023291020843536184
0.006723617364785754,-0.007172336204807662,-0.011107414916980246,0.0048292908875003275,-0.011706638299186903,-0.02745602770071549,-0.02644301173453517,-0.0399417795627914
-0.0012365715407940416,-0.016203570585310273,-0.014687283543136304,-6.673135826545743E-4,-0.019499480439984687,-0.01850564563759925,-0.013932642545456002,-0.03861060153002413
-7.082705535734459E-4,0.017828533838582027,-0.001353968534918899,0.006155078886396828,-0.011999073577845411,-0.015360999368678734,-0.0163108508278876,-0.00591443114537662
8.598448715485409E-4,0.021506551503513813,-9.478542625297455E-4,0.0013588315794596454,-0.005859916376100386,-0.02408269468772183,-0.025778228063978934,-0.018330974539070753
2.3189290894497057E-4,0.019880866511834974,-0.0055834373032371525,-3.757570530202724E-4,-0.011427164323340362,-0.028738736158942242,-0.034218399386885805,-0.02857921130622341
0.0017443742651032758,0.0059932413856269,-0.010411307917969357,-0.006018095278152804,-0.022953539928199873,-0.03673948834553642,-0.04297829739866081,-0.034669771343881495
-0.0024030770153575538,-0.0127856710928963,-0.018388267630793483,-0.004018115792508838,-0.026012235718863443,-0.034165865619724865,-0.04499041420958429,-0.05109691309924117
-0.002251176587251223,0.016221711111800048,-0.007155539964002956,-0.00262394405028074,-0.011302312868296565,-0.02728728298799092,-0.025301115547961037,-0.01580949772443041
-0.0016145679665563724,0.02052906788415329,-0.003318131239583423,-0.009645296057437155,-0.007960542680802339,-0.018906821131162974,-0.03640170860168986,-0.015492673422001365
-0.001930103489744742,0.021124003259142505,-0.0056065483892217376,-0.010229979851501642,-0.017132096894453032,-0.04420109195754413,-0.04922042752741156,-0.035878352356156155
-0.0026569331656207044,0.016939275065631088,-0.007712918137260138,-0.016671785353265727,-0.02734600320925885,-0.044564044504986466,-0.049992706673887104,-0.041676520167147124
-0.004859200090501375,-0.007769920250923916,-0.022043610285962342,-0.015957077884482928,-0.03037165584353463,-0.05651677038727004,-0.05284168445033896,-0.06483742307962857
-0.009472655925527767,-0.008381301726829174,-0.013706933575116162,-0.014595582522564546,-0.027077794400012845,-0.04322501909068009,-0.03654668375207087,-0.04377539530329789
-0.007902790149401876,0.028853122283921468,-0.004375718027380958,-0.014623156692395447,-0.007534757824921008,-0.03771823105092064,-0.03668946386607714,-0.019657782035909732
-0.003312120052797186,0.02791943224010879,-0.0051802576419845,-0.021045795745348428,-0.018472477221970353,-0.04204797794613427,-0.04783792633236622,-0.027935132528004614
-0.0022945725155705393,0.021626666038305004,-0.011652119403161534,-0.016469540313344078,-0.025995491112194114,-0.05792856539672007,-0.061594464902767314,-0.03480418002108991
-0.007244747335828142,0.007135142693332434,-0.02206837907799059,-0.027987109018713093,-0.029277793299689284,-0.06511758377836828,-0.06225712397037698,-0.05476590828608598
-0.015063530694594153,-0.014961862243998958,-0.023600495778706293,-0.03223321345931678,-0.03277035518973916,-0.06224059760056556,-0.07460077523978889,-0.06751022015451029
-0.0156652078267622,-0.005626213217339395,-0.02478426293849837,-0.02941319706287041,-0.0271579108220918,-0.05373037862747493,-0.060732804871105946,-0.06370858645186048
-0.014963154011141483,0.021735416890018643,-0.014910147894459796,-0.02884020879376177,-0.020975216578120785,-0.056403195604606694,-0.04830256404195063,-0.04036284391170152
-0.014570744825981212,0.024849153596137836,-0.015164635162846338,-0.04066544374653067,-0.02130338164214318,-0.0625171426975399,-0.06940246166978874,-0.04559285070739871
-0.018648775066431523,0.016132280549703955,-0.0194121632821423,-0.03493657163937812,-0.039135409955903276,-0.06829633636455847,-0.07029354655784871,-0.05243476351387981
-0.026761883138925857,-0.005838922689396945,-0.030079288617781686,-0.038637792776825955,-0.03967434655649502,-0.06591953451310989,-0.08141428456233005,-0.06979402129524852
-0.019859323453269857,-0.01733256326232641,-0.03420642476634783,-0.04373174109813877,-0.046819405164870785,-0.07894068951003091,-0.08019963138551699,-0.08390807723800009
-0.022701014286309756,-0.009693462590575913,-0.026967283204413415,-0.03653964116314274,-0.028829095179386553,-0.05881689761601998,-0.0696676474015778,-0.04450430449656682
-0.023765252811966453,0.014270202387479307,-0.022194289893407854,-0.03909880312477301,-0.01903286382329667,-0.06590939356021015,-0.0679777517726146,-0.03899846520160434
-0.021469321632145714,0.012720393699514517,-0.025367125925244063,-0.037115408307562034,-0.03441467542610072,-0.06531104329641842,-0.07359745648472509,-0.039526129378349525
-0.01838569407242663,3.383327308065738E-4,-0.029644619124116648,-0.040760143579013745,-0.03436969295306661,-0.06891457425854434,-0.07599536190783465,-0.058068066283253984
-0.021112284408918627,-0.023638812565882756,-0.039363807581113595,-0.04496042276425516,-0.036522241372927124,-0.06679001485074867,-0.08596664762368644,-0.07818810508763122
-0.03179299426103339,-0.0445265177483645,-0.04679244236077914,-0.049210543207276566,-0.041927947957120106,-0.07362579284598846,-0.0842905190613417,-0.0853651493990273
-0.030629253239205723,-0.03431025313990186,-0.036124672003220226,-0.03733900497059473,-0.022846180866610145,-0.05749542950753302,-0.05690568522317544,-0.05099992829681559
-0.021715057250931293,0.006868796705501875,-0.02709873137158522,-0.04240996880202194,-0.021324137121767364,-0.04792959846994383,-0.04807907037138545,-0.033285515491459264
-0.02467513305317858,-0.004438462018413469,-0.02605171735367255,-0.04483812120141169,-0.024234918783317672,-0.04734448919843934,-0.06105610582040972,-0.051537700987296306
-0.024470414925429947,-0.005598588881868707,-0.030539465264931544,-0.043322773685272695,-0.02089689573441484,-0.06311149644181034,-0.070190478403438,-0.05401040100602041
-0.020406672761419484,-0.025561636922755492,-0.038899892735432894,-0.04681604448221372,-0.025555048537371797,-0.05572771454282311,-0.06659109569358972,-0.06636942412143175
-0.03157547182236183,-0.040469933331137055,-0.04689972869881297,-0.04505795246363713,-0.02814430742108261,-0.05399031918332559,-0.06450415978018788,-0.07215068120573966
-0.028909268088426233,-0.044688766296953154,-0.043656452872880516,-0.04233975935979031,-0.026395534216904458,-0.04942143122374266,-0.054921614241915336,-0.062133580919566014
-0.022467473432702462,-0.008833742133843888,-0.02633339074427086,-0.035076336101691606,-0.013834542094673191,-0.03265517400311862,-0.03575040622181891,-0.025935130613398718
-0.023847753711903955,0.0013891110065977715,-0.026139923415895033,-0.035271552713765,-0.014722792808364096,-0.03668953970168292,-0.040598600595546944,-0.03870703654844965
-0.02128786854041317,-0.008118108749902223,-0.03046969418065606,-0.03409294538454995,-0.01575465737600335,-0.04757173311997693,-0.05379273188147444,-0.03187591179484023
-0.023681328459995404,-0.027598815302933996,-0.03400397061491515,-0.04054555042335672,-0.014291754830499917,-0.045368466359864745,-0.04695692423244602,-0.05770858878822742
-0.0225952138246552,-0.04748843395483372,-0.04708069206107966,-0.04042510174172894,-0.011929329056006379,-0.03851711085126122,-0.04053971044878239,-0.053477372299048566
-0.02475431082035533,-0.05259760195991242,-0.04116942601467562,-0.030317362864888137,-0.019490995806294327,-0.022060039307429,-0.02970794324501177,-0.048964374965903494
-0.02646209451546849,-0.008472778438091601,-0.02667777443745566,-0.02063515404600846,-0.007012495238203523,-0.014799187110299677,-0.01889937174207856,-0.013873745622763743
-0.022796357000261065,-0.00565357237481977,-0.020385682411384633,-0.02669206699870761,-0.013179753386921563,-0.016449741601945997,-0.023552892759714346,-0.02351198017716863
-0.018963803708382437,-0.011601255577437021,-0.0271777323723374,-0.029187997288877592,-0.0066797469615281204,-0.016100198759283695,-0.022966415316477022,-0.036028688795114415
-0.022462661844750847,-0.041152836060727116,-0.030397059729469985,-0.02298810179445307,-0.009586643253377387,-0.03000770069457539,-0.021175560158806866,-0.045037280152967
-0.024546924993865193,-0.05431727449365133,-0.03416925470869782,-0.02506614608892531,-0.005755095552292244,-0.014687160093499015,-0.011813727380151323,-0.05353785044117788
-0.015859286073208804,-0.010312514896082325,-0.01933971238505473,-0.017499408363755107,0.008051204277041276,-0.0011012021250231168,0.0031443856069085343,-0.0034116691240792256
-0.013983930160170743,-0.002265536330226635,-0.011421127612152221,-0.017916467282443782,0.004316936706922938,0.008742551565979305,0.017059188442247235,-0.007789472508727133
-0.013404449312848227,-0.004688840152220018,-0.013053320144950345,-0.012344036894095878,0.0040561533825816225,0.003961739554215922,0.005480150159790104,-0.011687017469038094
-0.017313806198439197,-0.017158423165781738,-0.018609524233351625,-0.010286765023868777,0.0020747319826100157,-0.002893533873854108,0.005457301160882834,-0.03308459102075645
-0.01729650627607941,-0.03036014124170395,-0.025579725474634885,-0.010236511628967352,-1.984432490031634E-4,0.002394688472927112,0.010874564534779392,-0.043479190271307026
-0.01471487305239912,-0.03692771129905125,-0.024452765511484505,-0.003868601990523544,-0.0020985699488321186,0.00765132084590785,0.010770967930075412,-0.039623001132060416
-0.010625347691067079,-0.0013550829642618933,-0.008768768974393975,-0.0026012918774374937,0.012376153998341851,0.01800623339719197,0.026428159770053583,-0.013267623087232509
-0.0011958673021207219,0.007940185789055466,-0.0043659509258779814,7.463332730007871E-4,0.009580235671663698,0.01856347901337372,0.026028009071698464,-0.0046726137761960605
-0.006431450533776793,1.3914712705829496E-4,-0.004041694309379018,-8.730521932600776E-4,0.008952792346698019,0.005126131477871155,0.013389571181304289,-0.01716814322276856
-0.008443104260702246,-0.01855231138943722,-0.013854303739534418,-0.0026302496266978094,-7.076685086781059E-4,-0.0017037768474671678,0.014175405463409755,-0.02957398435595389
-0.008989111229306825,-0.041149205303860646,-0.018843579372368587,-0.004768679704176022,0.0027304466128805676,-3.433736174029248E-5,0.005637387572684823,-0.04103269257188423
-0.012204712161428247,-0.015690013755502982,-0.007874956959570677,0.008804956772830391,0.01568948537075887,0.029982086935024237,0.032971199248792715,-0.009072133126485945
-0.004220582899533972,0.002653181635500107,-0.0010922024463715279,0.002412038188873979,0.012511768524185982,0.01663784941654034,0.02676661509288477,-0.007436450391641412
-0.002229432786948546,0.005649047376676556,-0.004571342371229288,0.0030095156078487756,0.007816689453662687,0.01476857887139613,0.020559527897070006,-0.0088548340163517
5.431269482784373E-4,-0.00881760796180242,-0.005863594589468945,-0.001049889947766093,-2.797517422270165E-4,0.011985399596321925,0.017334029847943928,-0.01711165078954955
-0.007262667009888067,-0.023836275745962834,-0.011024346349380376,-7.597010803843191E-4,-0.00107829457040378,0.005220053754369084,0.0043239561099765525,-0.03863322174077669
-0.002358706402628991,-0.007267241920512296,-0.00953150282843098,0.003931391390751562,0.018540199673215494,0.023121245282904154,0.02695267554702768,-0.016427059973943652
-0.004203286208594605,0.01229947350764776,0.0012820610584253441,0.001828329350931386,0.015944233533733372,0.0162308307905838,0.025730292142568497,-0.0011494034557656696
-0.004644257444337556,0.005683040494709864,7.740772887812377E-4,0.0039028150071601076,0.006127394152987153,0.004418651424718401,0.010328781451511577,-0.01764139336697774
-5.825559201925605E-4,-0.003600518519033525,-0.008401488168817979,0.004625150040520908,0.00638356250099996,-0.002300794460573281,0.01090760717277219,-0.03560449902379658
-0.009868304045141248,-0.01788692520632948,-0.01385114994840344,0.0012179292557279932,-0.0018692821351064652,0.0031303193740448766,0.012515094222785319,-0.038538267986263045
-0.007763992197546841,0.009035285751486155,-0.0031817097095612028,0.0025441891023635092,0.017016010200444052,0.014938773797996959,0.018420596337434647,-0.011569358886656375
-0.0026243333379676525,0.017635569617643697,-0.0015332782340838763,2.3275617351662436E-5,0.0028756530040358027,0.009609840018368745,0.013334228342157068,0.001457875451592992
-0.0028168186741853256,0.02302723412948132,-0.0023113673382239176,7.939840402774387E-4,0.008612454781103732,0.004111056358319429,-0.0013116121082169167,-0.014028058895538648
-0.004435849322570943,0.0031899220808690016,-0.007970937359319998,-0.002607885133336871,-7.638258445669502E-4,0.001760770263246541,7.842082377206996E-5,-0.024342988589584016
-0.0025954400889045,-0.007097605011746192,-0.010024186826655093,-0.006563365195830569,-1.397088081987259E-4,-1.421126723648036E-4,0.006828323789041329,-0.03661082417026184
-0.002621081785408913,0.012602417673037816,-0.0023623209327297504,-0.0015625811011258203,0.0070620867269002635,0.012987649333635496,0.019332147717511204,-0.00276729482038704
-4.3445910356722266E-4,0.026205921592534938,-0.0010616664451150303,-0.0014192182737236068,0.015525861464521399,0.003403502746444511,0.018081563496848214,0.004971740854377454
-0.002453173296436478,0.019917251248032623,-0.006035070243706215,-0.0073229442102629135,0.020068789745130208,-3.2592958107043914E-4,3.505085059275909E-4,-0.013621433265689847
-0.008896820933043177,0.007260866981482578,-0.009593314944390509,-0.01470235465492533,-0.0044838271691308015,-0.004437507682056307,-0.008144926834166748,-0.02259690963351249
-0.010060624455399013,-0.006996213776395443,-0.020716891818952084,-0.019169730646981825,0.006639020094196614,-0.02137862891647443,-0.013997606137108704,-0.028663535092675867
-0.010530857253175985,-0.016934116811153786,-0.02090592781457423,-0.023373554790943274,-0.009643820319665184,-0.022588580550909024,-0.021335697094270977,-0.041783780654004926
-0.01567525734976196,0.01416095401698442,-0.008560209510432638,-0.024444375607140297,9.001380706469206E-4,-0.01837873931083177,-0.019710606826897882,-0.015800583198292258
-0.019943158935286823,0.01580492092404316,-0.01690557557116216,-0.028459858214976447,-0.002770742869404556,-0.028629795931806565,-0.02316955910933225,-0.02147198291241356
-0.016956677609930332,0.010412620740515884,-0.016796232317864392,-0.03103604732982752,-0.006385781565926999,-0.03255968716539824,-0.03548731932867678,-0.023240357219652445
-0.019318112494909064,-0.004123523072813256,-0.021093374879053144,-0.03599628410347406,-0.013634776358934954,-0.03621658088286263,-0.04696734765581294,-0.043343526169281874
-0.028092845648662334,-0.007920337740070551,-0.028595189478064904,-0.0417153488324087,-0.028217668032402617,-0.041724525692824206,-0.04411909654640144,-0.04502890453752895
-0.027028737740707888,0.019266929759752947,-0.01576455980652761,-0.03389481271257831,-0.003861598085069427,-0.02897127563602772,-0.03411863742684927,-0.020285564767430028
-0.025381513209067834,0.023837664223370598,-0.018594059517369504,-0.040440022831983356,-0.007600678678864853,-0.030508605227363768,-0.04156230414025341,-0.01966665647027245
-0.031158521492476998,0.018071887257342267,-0.02093638875780901,-0.04810745693284219,-0.012008485129678054,-0.038782408848470146,-0.038428644980200134,-0.028304729364457038
-0.03308303626262669,0.0027628962307360188,-0.02750297158409938,-0.04656177953440643,-0.019514769397207872,-0.05545930252076639,-0.059281533224740814,-0.042389288775598666
-0.037630853048904137,-0.013608962890879501,-0.036443947303161764,-0.050965380162114424,-0.025390129345539303,-0.05773716413677824,-0.06810769921460691,-0.058646296680510024
-0.03360040269992113,-0.0026889779460798698,-0.02788305181110802,-0.050030653899834944,-0.0170235747073444,-0.045674884258444695,-0.03979200298767571,-0.04055034833931926
-0.030038261590555546,0.020063744271634657,-0.02130552772553125,-0.0486551223644267,-0.023114551208686926,-0.05041894823993059,-0.052955843255374106,-0.03872031317746005
-0.03232071735335611,0.017897131506635622,-0.022217379552966918,-0.05931290299388473,-0.022148579166595378,-0.052368344017789635,-0.07233167262664791,-0.037142162224709355
-0.03138425355090335,9.784406625385552E-4,-0.028813693513291102,-0.059543596530438385,-0.026775389976555087,-0.061736115032331174,-0.07521235132315407,-0.043490833110916303
-0.03519353317064289,-0.019342223058178377,-0.03941567496777222,-0.05921748091949949,-0.0378376523741926,-0.06704905322900624,-0.08635021841546119,-0.058767211019464305
-0.041637744575935214,-0.02917377704131943,-0.04624659910236907,-0.06100336754294934,-0.036069180128203815,-0.07047623411799109,-0.07376463996108784,-0.07009707165166264
-0.042360116830751866,-0.008504785831924242,-0.032626894829628515,-0.06288951025614194,-0.03582008318137865,-0.06060755523896622,-0.063491285368132,-0.040168378046063574
-0.03824166161013128,0.0010919697586338573,-0.030746269440105403,-0.06333787148418853,-0.026912454549952666,-0.05447759264365857,-0.07041833354688741,-0.04010399185928559
-0.03421648781480846,-7.308502574533595E-4,-0.03241902671895885,-0.060637009789677496,-0.03234142161876593,-0.07394184863416668,-0.08652243675113289,-0.0444130085366791
-0.041482378766164354,-0.009674264560214542,-0.045283619973787666,-0.06631139617621394,-0.036059241309651116,-0.07193219648965835,-0.07611529413194103,-0.07082038643265798
-0.042569524474309416,-0.02621837100579212,-0.04809751696964463,-0.06651079116965855,-0.04565171115480034,-0.06809426819638673,-0.0835518219557717,-0.084978958559542
-0.045962848781476794,-0.027971451044392005,-0.04086469752592878,-0.06193492561701576,-0.03535991059061483,-0.06472466947083914,-0.062391978651208366,-0.06203373823459919
-0.03981965863986564,0.003053507488706597,-0.03527384612048821,-0.060810290227655314,-0.03889800286146544,-0.06540037361101296,-0.06601077101375075,-0.044775234812390576
-0.039448955132432344,-1.2055053648127736E-4,-0.03643728687757948,-0.05761898636317564,-0.04160435019637396,-0.067247788002715,-0.06804777279523598,-0.060121865059637875
-0.04227903943192409,-0.017036152248084722,-0.04101216582019296,-0.06627666810760685,-0.030572574222243486,-0.06974306951208449,-0.08066972988110581,-0.06969647183501627
-0.04112544887041266,-0.03674164403937679,-0.04943324839853923,-0.06427096582429559,-0.044638892089965625,-0.07018472870226314,-0.0690719206545575,-0.0791477679028733
-0.04217946430536601,-0.015641359546118068,-0.03707422836263318,-0.05849784476276714,-0.03387810466091739,-0.04903256238600743,-0.0542633836127114,-0.0576351122761644
-0.03788362536592455,0.008237574818757414,-0.029140342687955727,-0.06009108391034241,-0.028369611323362298,-0.05455509718052323,-0.05357571776582421,-0.04175259502156871
-0.03446201253711359,0.004036209103299291,-0.0369747641747038,-0.06373792269768397,-0.03689551301863707,-0.059022872827082,-0.047795022600370295,-0.05799092519129659
-0.03952152138961824,-0.013763713313336154,-0.04521289788974462,-0.06866013006986336,-0.04388552251156037,-0.06019213858497079,-0.06423050763539419,-0.07347748032172789
-0.04227549911683812,-0.03698550440373139,-0.054674111093244784,-0.061964514356776725,-0.048772867151549985,-0.0634439154427124,-0.06525730756942795,-0.0781927279176842
-0.04456889573042466,-0.027209326064561213,-0.04332659121982655,-0.05265467346943692,-0.03380728814981426,-0.04702792084228907,-0.038771229945983456,-0.05604955720865385
-0.03885412200948078,0.002540323875666567,-0.03592400105162256,-0.062117858534824065,-0.03158771415272395,-0.04158049295406384,-0.043774572476533206,-0.04547322973965118
-0.04146836827900686,-0.005103098633232961,-0.04149432447343602,-0.06512194822965044,-0.03428275181006966,-0.04499739556452461,-0.04051064987250389,-0.05597198416219837
-0.04310268498262865,-0.018307537172677156,-0.04656120205003027,-0.06808986823274966,-0.04210246425033421,-0.04714346003701711,-0.04720892425078232,-0.07397340029356132
-0.04039731265590225,-0.04775587740153365,-0.05680982208416461,-0.07059747953151271,-0.044298439683530304,-0.05111302071629733,-0.06067053272997316,-0.08634290326075017
-0.03973390023648635,-0.015451418232681625,-0.04126538662826402,-0.06267003002541702,-0.026844234929248704,-0.0396125672698411,-0.02459976488904629,-0.0561467295033228
-0.0375204413489414,-0.003148500092945749,-0.04056611216827752,-0.06339526595184125,-0.025417083064738416,-0.04896183799471927,-0.03036449040589286,-0.042423849000274544
-0.03682337720504133,-0.010497109104343422,-0.046025297925129695,-0.06397985817114209,-0.03675501205094568,-0.04464862574735125,-0.037604993934216645,-0.061647740527523864
-0.04721366931032609,-0.03805394841347599,-0.051223691003466534,-0.07265464510891935,-0.04309769544642714,-0.04090267324672757,-0.037148477688771255,-0.07016211759912695
-0.041560486836647974,-0.04936696151265086,-0.061337747355576566,-0.0656911047375417,-0.04475010853330662,-0.039488976406338985,-0.035220076557344805,-0.07425906897554663
-0.041214066075755576,-0.01508042268221843,-0.041728296908319994,-0.060145140547318045,-0.02915908541806805,-0.0271190208382194,-0.020163325513762785,-0.03819724941153977
-0.03586520304783349,-0.009488178634289746,-0.04150398566711626,-0.06408891464546265,-0.027187616140557747,-0.035816242485040645,-0.02029165062759525,-0.041175494998852764
-0.03585776601486405,-0.012780539615518546,-0.0434601646174191,-0.05919782547328529,-0.03152503038249228,-0.041230546271577594,-0.026698092788715846,-0.07338561945050749
-0.04615387463890142,-0.04262692056085719,-0.05733541968662928,-0.06628043353228817,-0.04095516639632966,-0.05085497145522702,-0.02952595830325073,-0.09262718340239362
-0.044170984455410345,-0.056185840531712286,-0.06211768280419547,-0.06358469898073958,-0.04194986071012453,-0.03895914162019344,-0.031121619996713215,-0.07778740187345037
-0.04006740509723145,-0.014362694445766825,-0.04207709265146363,-0.06078358831419225,-0.04111811257123122,-0.02588524780353162,-0.02171620324499729,-0.04065670960294873
-0.043225377758749836,-0.02422368346888265,-0.04284454754966774,-0.05133747359937115,-0.03757858568070476,-0.031571109739741865,-0.030907113357683775,-0.05572506750107401
-0.043043983519235246,-0.03401790570499771,-0.04817574370565429,-0.054446609003677676,-0.03491357620744525,-0.038294565059299186,-0.030116387920906474,-0.07369124468211405
-0.04222607157295076,-0.05798918329359169,-0.06603152286336128,-0.06260526789365972,-0.046817167808249564,-0.04413360937482944,-0.03737443147816585,-0.08463235969546085
-0.04090631365877856,-0.051083438074097036,-0.05265296142614912,-0.057502638544789715,-0.034081307845929755,-0.02499611654112375,-0.0209026005084399,-0.0646354204332877
-0.041687875367922594,-0.018191442571918924,-0.043670148150145055,-0.05459966888785485,-0.03540877744473807,-0.022282071027690337,-0.02036650548809642,-0.055203392081570775
-0.03314340859022148,-0.025817944608638812,-0.050203209742511655,-0.052765838652874826,-0.042795591318462896,-0.03788133780888832,-0.026226780063052894,-0.06016350013837225
-0.03841022255987034,-0.04808782814992819,-0.06099142596693018,-0.06104232609930754,-0.0414163243026498,-0.03706335949862422,-0.03139749003528779,-0.08376637661547624
-0.041905194544474555,-0.07169888619475764,-0.06295155126490624,-0.05570681548923572,-0.04460583544165223,-0.027030132995459383,-0.03585311637815892,-0.08553016112519846
-0.02995910705912625,-0.0322369694695638,-0.04236797112946095,-0.048993301632384134,-0.035579015990613076,-0.019086186256757176,-0.007969634309743855,-0.04493883436681611
-0.03323832090348836,-0.01547784085212294,-0.03920813925837643,-0.05006130690854762,-0.03475234569316777,-0.03329016492296767,-0.024753135975336918,-0.04557478163141196
-0.034438080356121184,-0.023829414177511138,-0.04658645855385602,-0.05620374322898873,-0.0425778748185938,-0.03137347072618604,-0.031926127286153884,-0.06283265603090268
-0.04623813771334594,-0.057325196182343,-0.056046751590267924,-0.05875174272860379,-0.0527108383959638,-0.038474769482172856,-0.03776787003909468,-0.0838704359152753
-0.034951100153793484,-0.05024736865108892,-0.051581272482685785,-0.052616219893035394,-0.0481885531717541,-0.038009133611381925,-0.015426117992261932,-0.07236947216042174
-0.030757959856805496,-0.010914475631379006,-0.03692568178644139,-0.052265813298886875,-0.028834997542235757,-0.038825897588723055,-0.02068841502459462,-0.053656643629121065
-0.027488330651512072,-0.010360422371314734,-0.03934272119943326,-0.053775469449987824,-0.03634702674336833,-0.03993712650952317,-0.03506440551999986,-0.05044996813475352
-0.03854051966714834,-0.034530005070134484,-0.0505890682131415,-0.05286129021148633,-0.04626084748612096,-0.04820202266352867,-0.03618312585057282,-0.07100453531783092
-0.03362526199161115,-0.05499513385726527,-0.057744271852733224,-0.056020414608280396,-0.04602994914698327,-0.04876288523670116,-0.048056463451878036,-0.08596596934235888
-0.033407940947943096,-0.017932367349923015,-0.03870563438194141,-0.04723474285726233,-0.037484909286337395,-0.037281418105904324,-0.039567471034982656,-0.04146593390883401
-0.031670848053979635,-0.0010707821451691395,-0.034038252088447074,-0.04559875381364799,-0.0429060595951985,-0.045172228088721164,-0.0486283504650598,-0.05389744826061172
-0.03130838720272719,-0.016431388186263093,-0.04350132595575367,-0.056934649205279075,-0.04013288709977738,-0.05736991844522718,-0.05369833587091996,-0.06638792972416942
-0.03942306354828022,-0.03371286947427423,-0.048936433680889686,-0.0639058147668053,-0.043766144828628936,-0.06355036283510652,-0.0466993595132559,-0.09321190326833105
-0.03284697705417326,-0.013093784362449564,-0.03790906568137394,-0.06290328110350006,-0.035115061829207525,-0.042213312866278024,-0.0371936163936402,-0.07639917474610304
-0.033799430375782674,0.01200960830973814,-0.03371038368993036,-0.05653243693935075,-0.030172117635253817,-0.04441184601464705,-0.039356369207518525,-0.060476976843065154
-0.032627222643562985,0.00859668688129825,-0.03299273443717075,-0.05586441225930708,-0.03672153241695384,-0.05795411849250611,-0.04253368705797143,-0.0799755764853078
-0.029078242731121935,-0.02866303107444109,-0.04917803934919905,-0.06211600720558961,-0.04282290688418254,-0.06185611286937348,-0.060050629350518664,-0.09211003227237433
-0.029836089448750203,-0.028434912633168382,-0.04256791615377635,-0.060529330873198464,-0.045699494904570134,-0.060650111291350145,-0.05082023998697926,-0.07869948576487476
-0.02855725229687273,1.4562338612772517E-4,-0.03602083526848565,-0.056389824607491985,-0.04049277167243372,-0.056045762221573654,-0.052932735922716606,-0.07105591713756168
-0.029031709837893705,-1.9196003012590752E-4,-0.037492831374715624,-0.058878486417461746,-0.046678858834415644,-0.06656077158825326,-0.059861407457325044,-0.08029497563689013
-0.027971036752227143,-0.01777943086395425,-0.04479172799668131,-0.06413843106193327,-0.051372853778207786,-0.07123768367586243,-0.06891559168044868,-0.09281520857208937
-0.0278571243071244,-0.02692950081824647,-0.05260893251127116,-0.06309950101930181,-0.053458441720083766,-0.07128138602886852,-0.06229272605190482,-0.08168073208936226
-0.025602523057259068,-1.9401110435693917E-4,-0.03654535366220083,-0.06580784668584776,-0.038876591073485574,-0.05797469272545603,-0.06808182333980767,-0.06007230156368687
-0.02411344382040948,0.003781758005418493,-0.04137524301535886,-0.06390836292564613,-0.04354717954606952,-0.07128905068932377,-0.06683818030375636,-0.07105674496994897
-0.025150400798559208,-0.006386031980027938,-0.04333860009295018,-0.06341942801983701,-0.041115269825814774,-0.07250196325105215,-0.06651115370391705,-0.07280871200972598
-0.024456442735722905,-0.013421021164154721,-0.049440604612888586,-0.06362640877239302,-0.04472669916458799,-0.06738542282241794,-0.07197990714520075,-0.07980274757868609
-0.02229096715461418,0.019156044798331818,-0.03558538967586079,-0.06221726419325837,-0.04716132059213048,-0.07045637711796231,-0.06904297420680329,-0.054276463440030585
-0.0214688885261175,0.014984537377273035,-0.03943922570221059,-0.06262596094755729,-0.04298299826970079,-0.06967365680836553,-0.08210440774440265,-0.06606173295912819
-0.020778507055595613,0.006378423786837141,-0.03668813732503253,-0.06377777633649484,-0.039707858057912764,-0.08147612324681924,-0.08446607226275213,-0.07894607203301499
-0.020439230310755185,-0.0049101808208124285,-0.04210927715187991,-0.06213214657537714,-0.03611753731048563,-0.07292716573604525,-0.07830757323232972,-0.08026113022171645
-0.011208501136352082,0.025556547320974468,-0.034154541094590096,-0.06823179131546003,-0.035383065091441714,-0.06966430947338288,-0.08949862636573448,-0.04069911965296266
-0.018143948650350447,0.0341857003950399,-0.028900997648139002,-0.062255199382493846,-0.027898597495377056,-0.0826967839103667,-0.0846622050456549,-0.05903303221789463
-0.01829418267770762,0.024853493343194998,-0.027620112418758194,-0.06716343781992712,-0.04063231032839871,-0.08504923523666955,-0.0994624595996079,-0.06859831986956354
-0.021056012526497372,0.009293140640345688,-0.036883946979900724,-0.0646948120682356,-0.042599447194863346,-0.08686391393433725,-0.10292680518146395,-0.06143276099381676
-0.01768534550192015,0.03631201054674945,-0.028976331287758693,-0.06097286630765166,-0.03502096217606049,-0.08435092068734326,-0.09918740986753767,-0.05083822285407776
-0.011676620928656829,0.04125700438582661,-0.03119124456051711,-0.06981000686346181,-0.03464492691056793,-0.08570934641521939,-0.09793854384379633,-0.05222161547949149
-0.017107026133418,0.03322092989202408,-0.034125194576903675,-0.07193741210656275,-0.05161755039420462,-0.09395810915643037,-0.11516708029566751,-0.05846079745661988
-0.021437647468000833,0.016742009020676976,-0.03803248018951881,-0.07701366116895197,-0.0533363733320234,-0.10613074076514473,-0.12161151864132619,-0.07034380829939837
-0.020611660229893223,0.0237752774594069,-0.03784847045551989,-0.07746018475209997,-0.047847617079292935,-0.08891935369235482,-0.11208297459355439,-0.052565443059637146
-0.019280606449587567,0.04528999027957976,-0.03002834395078024,-0.07667821702581029,-0.03246885356595549,-0.09128058644871787,-0.10833009246725424,-0.04167774420611806
-0.024210591729101585,0.044019204550057485,-0.03385479137002961,-0.0814193265559473,-0.03050437546375742,-0.09533045088951787,-0.11502109807979415,-0.05142280780094034
-0.0269112340052588,0.030997745017443845,-0.042384094549830685,-0.08030268183652332,-0.044182979230541784,-0.11169898819963409,-0.12282792246711718,-0.057605685358915984
-0.03915427421099475,0.007659431858143856,-0.05089565027974501,-0.08527412090832558,-0.05440104940504428,-0.11867308683600668,-0.13968510545210538,-0.07773820449028299
-0.039149856219314154,-0.007315108245942609,-0.05655860374350682,-0.0946789563015128,-0.060598791306605296,-0.12182364271818592,-0.14224072438283744,-0.09410926719355081
-0.03207736611489711,0.029879804599073426,-0.04713546196142451,-0.08603128007710242,-0.04815492777026667,-0.10161860953480324,-0.12500683507250798,-0.05937829069170681
-0.03983821093729513,0.02631708272835378,-0.04330029008580291,-0.08801075215647207,-0.04176932351155963,-0.11454747898937113,-0.12557913598714132,-0.0526835219420335
-0.03719787017131168,0.025800542438509093,-0.0480216059183838,-0.09702297609665507,-0.05468188675651265,-0.11955874657544673,-0.13564397847192872,-0.06630409297161421
-0.04781114570607463,0.013067835435442411,-0.051869168141153645,-0.09506620693411083,-0.049662100449551744,-0.11760586225155911,-0.1418290141604307,-0.06181594672576292
-0.05328642776056934,-0.005657314561336897,-0.05557247520005685,-0.09312158523907435,-0.05843955202149848,-0.12234102102551732,-0.14273291734048543,-0.08086845000072942
-0.04427799396883828,0.01596253345267169,-0.04700495670286954,-0.09915804252578192,-0.05075225331381247,-0.1029540140702632,-0.12424748426454026,-0.06732092266379748
-0.04529485489727784,0.02065978807414579,-0.04643075273561037,-0.09721657177945,-0.051620267763749575,-0.11119879190033777,-0.13876933174145495,-0.05066180538781844
-0.04994238503349483,0.0145384904603713,-0.04869572799194581,-0.10582551522947244,-0.053115030011544336,-0.11642005124341737,-0.12811534314334447,-0.0708752909336638
-0.05373034757231222,-0.007042185739127404,-0.0585108842317621,-0.10247531100961828,-0.0637174124283154,-0.12321936020385554,-0.13846261081124173,-0.09402599125155398
-0.056952664374483306,-0.009360649877092338,-0.0654082797471716,-0.10609856895672125,-0.06658684550605402,-0.12056037357705007,-0.1391458407105401,-0.09648170834758625
-0.054119904823201455,0.01502780314075154,-0.047233149434843684,-0.10347371022622877,-0.04834716245402926,-0.11251774234758811,-0.12631567047266495,-0.06001780310067448
-0.051213579479769226,0.02049200678367457,-0.05023156282820157,-0.10882260825049171,-0.04697164906823902,-0.12173484243266319,-0.14103600710153769,-0.06947861580307185
-0.0539049226125404,0.01281373952465542,-0.049424618433213996,-0.11050052586174391,-0.05869387554208418,-0.11624673435217513,-0.1396906331300792,-0.07975285205410201
-0.054967758833564195,-0.010689264985081564,-0.06288758227031306,-0.10931080612272084,-0.05866886090678456,-0.12916316114367218,-0.14499883406468272,-0.08710180172921102
-0.05737999629087807,-0.024157701928401693,-0.06610278756696214,-0.10524261465332149,-0.07080922696245678,-0.12671068833334678,-0.1450727404341403,-0.09847838002656518
-0.05705150216668944,0.006987498044978561,-0.052905416316866544,-0.09906604471978801,-0.06898796571094329,-0.10850306732066493,-0.13449006713001674,-0.06543021127642869
-0.05496875678229189,0.021883213776683293,-0.05418743311058266,-0.10114875475643653,-0.060013222374958396,-0.11523710812262081,-0.1320380078172223,-0.06761055559120804
-0.05253600607226793,0.0083754353076916,-0.052551239296549715,-0.10445925634027435,-0.0604923209612015,-0.12067212391218846,-0.13664275828571368,-0.0735825427997516
-0.05973770963027287,-0.01612605258835338,-0.06816490869718178,-0.11121500266904019,-0.06675692352301098,-0.12710137560924337,-0.14409622426121282,-0.09668301349993516
-0.06294150981478198,-0.03674786992584155,-0.07387728470648179,-0.11614159215025871,-0.06299681536026099,-0.12483365390878376,-0.15437892300061842,-0.1066399575203598
-0.06281048949927,-0.0070049078867915416,-0.05946241881829339,-0.10811412498248274,-0.0632357573927148,-0.10515200857600968,-0.11996878673985355,-0.07037347139155455
-0.058613761873873405,5.272744746541278E-4,-0.0593200033897974,-0.10526025127202691,-0.06694708362310123,-0.10823405518352747,-0.126255529044616,-0.06530236988979893
-0.05635596684965385,-0.0033628523965793244,-0.05527780706592196,-0.10222339391584546,-0.06134084977237419,-0.11312051828744592,-0.1281015037033763,-0.0725048940649829
-0.06202784580627666,-0.0175367836108637,-0.06817344919664704,-0.10772877172602818,-0.0659716679266531,-0.11047055651512562,-0.12681114634851018,-0.0951841646557906
-0.06296313022785012,-0.037617767939876305,-0.07495387419796762,-0.10501297518418436,-0.058261820296725185,-0.10562733492074063,-0.12066978503215134,-0.10085937610084951
-0.05407710669956066,-0.009925105217097272,-0.06040876989590485,-0.10394152369972938,-0.05361372350795234,-0.09761125142129622,-0.09398610978860115,-0.07041185667112985
-0.059715837766358915,-0.007502537676295518,-0.059962242588823156,-0.10510240299774762,-0.055366492128588615,-0.09091088823675487,-0.09971985502525957,-0.06621077494123942
-0.05582541407702759,-0.02203833458010869,-0.06524190165235273,-0.10371329391296433,-0.05844730043146108,-0.09786197450471866,-0.1084275975047335,-0.07930533990535708
-0.05992548113788741,-0.03428617953930242,-0.07642282470069085,-0.10383259557171619,-0.0652199837916295,-0.10626628267041369,-0.1081996181945947,-0.09372288427884845
-0.058098185663662,-0.025619715262289452,-0.06800139289936259,-0.10224565265552693,-0.053366143877010934,-0.08995383843458482,-0.09778431521558421,-0.07044754425803774
-0.05535204240262135,-0.0022085051333445038,-0.0581848669898003,-0.0999230540851563,-0.04065059517206988,-0.07734637731751683,-0.0845516907874123,-0.049686695831074025
-0.04942893535189866,-0.0030501877827698197,-0.059592387775745534,-0.09823944859791711,-0.051569189419855915,-0.09335801190091637,-0.09452403227495638,-0.06789424601082202
-0.05610078595822341,-0.02056297040726695,-0.06581018960800701,-0.10067584800352657,-0.06072019666101924,-0.09306538478348281,-0.10332455078228421,-0.07464085797937516
-0.05644284694382803,-0.03642776653379471,-0.07370530767605514,-0.09941086856890477,-0.05263927780992754,-0.10394513840604995,-0.09604299150155075,-0.08810613467959191
-0.05494385977740462,-0.0076069173695218675,-0.06410893625517668,-0.10010882814688582,-0.04607743171782152,-0.08081334821372976,-0.0873094593589935,-0.05736925537302251
-0.05405042229857058,-1.628859250969432E-5,-0.0588281711336406,-0.10303568291969525,-0.05457953668175713,-0.07845801458646227,-0.09459117858533261,-0.06391648182993977
-0.051775839285503465,-0.003637310618931673,-0.06260558235895435,-0.10346657747200412,-0.05845767190654635,-0.09469476458155446,-0.09687580181752248,-0.06462915969944326
-0.056932950904899096,-0.02123220227228328,-0.07416022642262018,-0.11407413622029516,-0.06105866344408612,-0.10228482463992641,-0.10923514619002063,-0.08022745688346158
-0.06397512119842842,-0.037326000001157066,-0.07860421046616313,-0.11214627573076025,-0.056799030723169164,-0.09318329381010555,-0.11631142868254982,-0.08376058641778208
-0.056391089193630006,-0.002801875214116609,-0.06641274971901656,-0.11149454178685958,-0.05894966001611916,-0.08231433503983698,-0.10637362029369256,-0.05446099868834316
-0.056669243248954455,-0.008325242814848286,-0.06392797747347254,-0.11483820533181519,-0.04682819848249529,-0.09244710450294631,-0.09064935626102918,-0.07490453815700629
-0.061103721021327925,-0.02130526447404577,-0.072404554300409,-0.11720029482099649,-0.04980454710337025,-0.0863215602028962,-0.09711214234166116,-0.07438946883540495
-0.06434386727810529,-0.03758844495807242,-0.07927911778430569,-0.11418363279856744,-0.06425935268524241,-0.10507011183671965,-0.11498970688496618,-0.10010882946029931
-0.064727415978533,-0.02423972423962105,-0.07492247259655586,-0.11684850201715102,-0.04933356131364711,-0.07699173764563443,-0.08986898047801324,-0.06951037147439439
-0.05620109115731704,-0.00846112334082411,-0.06804357158800045,-0.11237771647874226,-0.04643733881530725,-0.08563152206880102,-0.08091908995405826,-0.046441265685825614
-0.05560752876995319,-0.013724975018847315,-0.07309920485074298,-0.11589909271031401,-0.04847751097600972,-0.08809659378285144,-0.09423109861852787,-0.05943017064587241
-0.05838335102297814,-0.02375417180016151,-0.076959598215642,-0.10834423218995701,-0.06411804500711293,-0.09781621876454553,-0.09612174798084974,-0.07237393072101153
-0.06694806374920369,-0.0367557617595441,-0.08336484296103477,-0.1152930141824984,-0.05456855398150712,-0.08391950847210963,-0.09726083040264287,-0.07364681363636616
-0.05963141308140607,-0.004167963459677634,-0.06800826388745648,-0.11661055210934092,-0.04707289812432181,-0.08041731475311745,-0.09080796726490085,-0.050385525848676414
-0.05678833455744941,-0.010234821905977565,-0.0711030307224998,-0.11444724498272552,-0.053358211745903,-0.08594497832762699,-0.09095295139176619,-0.05557766148699545
-0.05971574014602463,-0.015842803989480195,-0.07359498605077243,-0.11577275041144892,-0.05708379129234428,-0.08335551772195333,-0.10966161288769158,-0.07076611463623553
-0.06057290458466104,-0.037191284448731536,-0.08324215522630114,-0.12077653304708845,-0.0622451231413974,-0.10266450716812284,-0.10289275048926042,-0.08173879073024322
-0.06603909739650257,-0.02301532306595259,-0.07610406615821365,-0.11432455587560743,-0.05700923598665451,-0.08752224689994796,-0.09383433424123573,-0.05763191901172861
-0.0630796650327422,-0.00823931045060815,-0.07187473347792783,-0.1231078197641524,-0.04597302616594047,-0.08582127566983884,-0.09717409948492732,-0.062236056805952615
-0.06110020984827533,-0.009976552073704492,-0.07417506721778644,-0.12274314931427578,-0.0588606323918273,-0.10348350143485976,-0.09899523778871776,-0.062149711533203165
-0.06491766872256605,-0.025069023177111134,-0.08693650530636718,-0.1216279119580318,-0.06036680237414988,-0.0938802559865484,-0.11211857939121819,-0.07509259768460728
-0.06504290259406806,-0.03521436296351597,-0.08633643488246268,-0.1273098338905048,-0.05634358561679349,-0.09690097738859854,-0.10379806674167676,-0.09220057854688822
-0.06667190875939047,-0.009895260154607536,-0.07678242387861411,-0.12154295824707123,-0.05433454868299943,-0.0837249198988685,-0.09947861373879854,-0.05391280854519523
-0.06259579657507366,-0.010262073450360213,-0.07723283000039789,-0.126058910594863,-0.05887590301929558,-0.08640149249740944,-0.09588067959746617,-0.05115497582140817
-0.06522731765933566,-0.023779553962748563,-0.08212516948094797,-0.12546088409891068,-0.059356671420433306,-0.09480209207776419,-0.10494171053923354,-0.06639922259886928
-0.06456876325122621,-0.04523607849020253,-0.09968436729968094,-0.1300238900615606,-0.07070883130127936,-0.10731882919039708,-0.1200951069328104,-0.0901841356022712
-0.06707813182650546,-0.03489491175967684,-0.08941818349877426,-0.1202774746474708,-0.050809641200187924,-0.09013063551191314,-0.1067900215571055,-0.055885877756182485
-0.06868388425068525,-0.015695495467036427,-0.07927032978683488,-0.12949711254051,-0.056676238583964186,-0.09810138022653937,-0.1107037451782924,-0.04886795699745623
-0.06134716615492245,-0.016072909442823604,-0.08246983788063451,-0.1287945524238349,-0.05862446608848512,-0.10068624455937138,-0.12069334749569931,-0.06621033873713303
-0.06702925578988579,-0.03189910108656564,-0.09286689189111352,-0.1344155160481235,-0.06596289369388929,-0.11916515911685051,-0.12950309870415053,-0.08019798577254197
-0.06743884476270856,-0.05056531066979376,-0.10137984129328866,-0.12992042979340715,-0.0676353405528169,-0.12002779139613083,-0.1310982788383619,-0.09396885946844431
-0.0684357204579816,-0.02973531952481626,-0.08981474425564784,-0.13360920279623217,-0.06753113409837372,-0.10239682468447918,-0.11505569800302547,-0.05359839959068634
-0.06719129125957488,-0.017563909501319627,-0.08922612718275516,-0.12754599285373042,-0.0659296025988107,-0.10088870263152402,-0.12116243809667053,-0.06422351174553786
-0.06672886456267424,-0.023161539940021656,-0.09119867347549294,-0.13126522301061005,-0.06856927847277143,-0.11552601653838275,-0.14226477516836272,-0.08043152253748018
-0.07449998072011058,-0.04488373800479453,-0.10015585361327765,-0.13825025716373499,-0.07728135505293122,-0.11569801303199333,-0.1408282426450469,-0.09155713695801809
-0.07240309661040456,-0.061495993077158306,-0.10544897683455019,-0.1397819585517104,-0.08584267728994793,-0.12389317644963814,-0.1387359048872629,-0.09458786507043683
-0.07061372434474877,-0.03791372935942879,-0.09236511816818203,-0.14051954924696694,-0.07467291590383325,-0.10448177423216169,-0.11271898784586251,-0.07624705079871952
-0.069541788965694,-0.02306820423594154,-0.0972400967309884,-0.14131937675149991,-0.06830824515334404,-0.11475343916046353,-0.12399100843554096,-0.06384114196301884
-0.06596180326362897,-0.03257192898678929,-0.09735074987780805,-0.14122595089585557,-0.08027366173925643,-0.11390026796875374,-0.13824343860537885,-0.08624988885746178
-0.07261094158697326,-0.05731305725318657,-0.10541790730092186,-0.13671356167843582,-0.07877594794223251,-0.12269691763929705,-0.14079975093475042,-0.09459825840937153
-0.07347967910041067,-0.06263989104995833,-0.11315057401635502,-0.14234299978914516,-0.07486772780418419,-0.12713511530617003,-0.13951017365958698,-0.10336999873887662
-0.06787612180465362,-0.027473100981918613,-0.09408149607253145,-0.13298001523681502,-0.06566218745484498,-0.10210270498627023,-0.13343055352426375,-0.06577777832846661
-0.07064215477416881,-0.023725066997412864,-0.09303203289891503,-0.13006264549557783,-0.06492492186529017,-0.1091928301954723,-0.12487686857714904,-0.06374201193407719
-0.07176725941997349,-0.035413978997895,-0.0938084922468085,-0.13369527667359005,-0.07371560265523486,-0.10825596085176842,-0.1262313443551201,-0.08424946423831392
-0.0717911937876868,-0.05383074949367351,-0.1062414030128395,-0.13857440769683882,-0.08249131573808559,-0.12345234306109641,-0.14308752996038931,-0.10398670878362509
-0.07083471709099566,-0.06586610289231098,-0.11010875026876725,-0.13241010616559912,-0.08512505944018904,-0.11716683581482305,-0.12892928456975306,-0.09892376600293117
-0.0703810843564207,-0.02671644664203298,-0.09265514400549306,-0.12986028305708242,-0.07031729156362976,-0.10138207352776955,-0.12415413208361745,-0.07108537514177578
-0.06449142967899163,-0.0261036195971208,-0.09230801921840724,-0.1367032708825836,-0.07294910691637913,-0.10831877573325491,-0.1377652671612754,-0.08125563300347519
-0.07260126128964792,-0.03834027616886304,-0.10297511209406178,-0.14110102357396712,-0.07680100988293759,-0.12533885971640815,-0.1404941026591586,-0.10069996508285288
-0.07459461772625947,-0.062404745603963474,-0.10878486639073756,-0.14224867148782958,-0.07926110378759235,-0.12166818110412435,-0.13459245022948343,-0.1115920936458972
-0.07747925008276474,-0.07077611218589024,-0.11038545193822541,-0.1375668348744745,-0.083418169974106,-0.11515923528049393,-0.13111349638926248,-0.111468930477218
-0.07061702484012937,-0.031494278136412784,-0.0950172521456451,-0.132990697200607,-0.07645948156012347,-0.10942241953109838,-0.11311198803613882,-0.07828600920263935
-0.07132027456694627,-0.03519793128349286,-0.09347341061029181,-0.13494048796081712,-0.07720394343485798,-0.11276723732647848,-0.12666805047352414,-0.07987643577701775
-0.07197026330040344,-0.04480657996743533,-0.10284611452514777,-0.13657309297043918,-0.0775911348214702,-0.11601371708500595,-0.12429444341213076,-0.10573059377480186
-0.07688227054901312,-0.07099435941833668,-0.1160855272763325,-0.14142707882459463,-0.08136109318838648,-0.12457691362153953,-0.13372101912512205,-0.10514559662428824
-0.07046375458796394,-0.05594452913888978,-0.09975923959422882,-0.13212769087607346,-0.07365821847645704,-0.10561734513951916,-0.12257981589597619,-0.09978622515583224
-0.06444534437740045,-0.029446114223533906,-0.09593061445029787,-0.12800349404570022,-0.07361802489843937,-0.10174724253372905,-0.11718410923149274,-0.08220889958183919
-0.06742362891511322,-0.03388228453115144,-0.09519776808869805,-0.1338457703726423,-0.07369361446436912,-0.11380016873640623,-0.12421567551269984,-0.08799295129269905
-0.06915032192399073,-0.04997153121379392,-0.1045543612130657,-0.13185165632660822,-0.0762502319136271,-0.11338572074619205,-0.13123767489764465,-0.08940385918314857
-0.0758377439699698,-0.07170051870525598,-0.11260369287692353,-0.13367521860190312,-0.08428589413351702,-0.11749284194527597,-0.1296692807954251,-0.12049783780097824
-0.07417153849779896,-0.04927584797459254,-0.10081918225309847,-0.12948362355343032,-0.06792390450533826,-0.1021123559388109,-0.10567062460461599,-0.08665285768871965
-0.06745226541635248,-0.02782930896590255,-0.08928486297144131,-0.12740766589064792,-0.07124298513187531,-0.1057404391915676,-0.11525403141419494,-0.07880444066007071
-0.06918116519270386,-0.0345607873206953,-0.09234383444383969,-0.1265998381075645,-0.06644903898102093,-0.11054103158277155,-0.1225606931537068,-0.08623124389100738
-0.07081298376431305,-0.05034472983767607,-0.10329749559089046,-0.13608599885509742,-0.076872910380696,-0.10851838909065066,-0.12751264704221882,-0.09224756245591348
-0.06938737745379073,-0.06805389384146261,-0.11250541743329451,-0.13030532919590088,-0.08707766036094053,-0.12382684770729843,-0.13267778946531938,-0.10618843465741266
-0.06419623600566256,-0.05571349829319114,-0.10000450474152539,-0.12194408561558756,-0.07086550402688735,-0.1049553934237702,-0.1189569255241874,-0.08556389230719526
-0.06516782145569691,-0.031105960190144704,-0.09854163767185628,-0.1257326495419485,-0.0672781478233639,-0.10239569541167362,-0.11020453330698121,-0.07988536734077045
-0.06996688418298373,-0.03740598672744254,-0.09476923206447063,-0.12801835568939118,-0.07884457036549568,-0.11451875104285386,-0.1194146541686155,-0.08838209899000014
-0.06691848272240326,-0.052494073988292665,-0.10169516960388722,-0.1268475507263025,-0.07856683998589598,-0.118414771798688,-0.1326737883919915,-0.09887962421594478
-0.06967268515965633,-0.07365154906292025,-0.11264216313194758,-0.1278207822663363,-0.0889075453811439,-0.10920575958815365,-0.1319169817741813,-0.09598956660094851
-0.06495562795178551,-0.04861421480833504,-0.09892974927741134,-0.11667323808256445,-0.06971557311914701,-0.08994356468343219,-0.10044337212898488,-0.07065957177330336
-0.057911469715293644,-0.03014643960883132,-0.08841282197901446,-0.12077830682156546,-0.059501550679816134,-0.10578471532432132,-0.10377234764528837,-0.0645225946933127
-0.05894292562500466,-0.029030267164959895,-0.096148596038115,-0.117545963053769,-0.07306148476464387,-0.10211328309502746,-0.09569790150219869,-0.08467414817994565
-0.06277119666485456,-0.049782398907315006,-0.09979658010420286,-0.12532920845042858,-0.06778247211133336,-0.09238737081438698,-0.11706164685431444,-0.08224971319032764
-0.0664614023517658,-0.07718644010429357,-0.10720719771906805,-0.12137414504585706,-0.07887308268788575,-0.10258490857272742,-0.11882294902345909,-0.10026840758627793
-0.06044798860527896,-0.04986763773510427,-0.0901261350608483,-0.10977045140206147,-0.06931003890246533,-0.09254320177818659,-0.0862744699379033,-0.07521870427216606
-0.058892957863985386,-0.02822676768841472,-0.0815027574552361,-0.11139272020708883,-0.05740249541253777,-0.08466644326241622,-0.08148906567083705,-0.0630379089357222
-0.05945751412354567,-0.02676378487932937,-0.08508820282992755,-0.11002868027995212,-0.0629567218896198,-0.09522753592010597,-0.08509055129242495,-0.061126581619564975
-0.06101439085107601,-0.04756431258052776,-0.08895371023507007,-0.11259793106984294,-0.0626847305959079,-0.0895882305451121,-0.10282165919162123,-0.08116995367975166
-0.06590000180471163,-0.06263048948529279,-0.10261189131199923,-0.11666872885300571,-0.0682933741000929,-0.0972167836310675,-0.10002475186846427,-0.08842162247419787
-0.05950264676759634,-0.050214862201959136,-0.09078124761334061,-0.10907291006589681,-0.0645906702871232,-0.08123833013338226,-0.07605819073067928,-0.06921858540923516
-0.058524990033322184,-0.018462166942046818,-0.07581418169798768,-0.10247971543087081,-0.054747026556816604,-0.07666912999825533,-0.09014947802319759,-0.048196788569059436
-0.05331667224907351,-0.024029456139810258,-0.07991737902772673,-0.09982432298709021,-0.061291889030623076,-0.08162780087861679,-0.09436913093242993,-0.054401380823606044
-0.05988286757104006,-0.034332309219219814,-0.08761445961658534,-0.10320621141099111,-0.057137690342144914,-0.08180633083253715,-0.09149299408549384,-0.06484220039482483
-0.05705644157765694,-0.05802674827559685,-0.09626957296234954,-0.1090105178509439,-0.07275834567008609,-0.09071874294676338,-0.10111389488673772,-0.08409701913786649
-0.06167262749819908,-0.06592722907094813,-0.09457135804088468,-0.10350789570965493,-0.05639599007883522,-0.08614598906526877,-0.09020409581751185,-0.08791953902158464
-0.05714264270686574,-0.027650659521508303,-0.07810116732008954,-0.09436001327951876,-0.056457787324175016,-0.07588967740663505,-0.06923114052996064,-0.04644936832272561
-0.05167541997042374,-0.02339114458097993,-0.07896986003588713,-0.0986918688297901,-0.06729691248381123,-0.0771488578686126,-0.07922628125515117,-0.04769890066472911
-0.05048488080827139,-0.0330585570455322,-0.07830504126333068,-0.09491734852866766,-0.061960736588255926,-0.08373766746348514,-0.08923918860397895,-0.06102356543652079
-0.060255618537565774,-0.05211185855600974,-0.08691484134152985,-0.10379785395670861,-0.06330238889009056,-0.08994513476032584,-0.08716669288647261,-0.0695443967025699
-0.05710120172257924,-0.06452773493328055,-0.08981238638331417,-0.09581000554047402,-0.06367537166582825,-0.07472766063279697,-0.08513797885539486,-0.07034407841382379
-0.04677544854139301,-0.021951636145462205,-0.0707014693773491,-0.08904408606227554,-0.04603764962334983,-0.0742559435003083,-0.06969384361829006,-0.046794060167244377
-0.04509565121828468,-0.019061248712833215,-0.0700170338115062,-0.08387256744509325,-0.05994302561297645,-0.07719312012536941,-0.08119677588333525,-0.054484822525079225
-0.04341023462593757,-0.030931143057236342,-0.07178576967831422,-0.08881244756375754,-0.05932912256901564,-0.08214210058186779,-0.07550208108008881,-0.05685665901691267
-0.05615056243723788,-0.05310205332120805,-0.08697321301127182,-0.09756099448445846,-0.06554681541933868,-0.0862664100962494,-0.08974307512466861,-0.06953375726145214
-0.05268678694265545,-0.06285101912937503,-0.08562717449707899,-0.09055179391268624,-0.06822353347833252,-0.08963505468150955,-0.08859176802282541,-0.07632203505622923
-0.04945723009487979,-0.020080343220339174,-0.06840725147966815,-0.07876610792023625,-0.04321497836887678,-0.07220422519265567,-0.07346570914225241,-0.04011698695523501
-0.045628408186804546,-0.011242183428760492,-0.06284202946765462,-0.08156736274548157,-0.048547657996009866,-0.07705877906798124,-0.07854204046607058,-0.04984171028037181
-0.049564815522794396,-0.016034531729832137,-0.06753154920533563,-0.08146611406772822,-0.054210188942373734,-0.07701549200137608,-0.07730271657542866,-0.06370771511232416
-0.05050868179729879,-0.03563707091973753,-0.08150184625131857,-0.08160967433236972,-0.05459432384386224,-0.08084768709106654,-0.093241554075317,-0.07594732885200559
-0.051418472223634215,-0.05017804739794565,-0.08158932281865182,-0.08798820902064025,-0.06670366780592533,-0.09715625208283185,-0.0852205249804163,-0.09604183483444914
-0.04656228217960259,-0.016891626156554665,-0.06261168234561262,-0.07649630313414497,-0.05054748575495505,-0.06910743730017663,-0.07595766640629203,-0.043204040628226394
-0.044454890621324746,-0.007031078115385606,-0.06389822174906284,-0.07400428767839297,-0.04438401587366752,-0.07590734394393901,-0.08383990316913381,-0.044143096082351126
-0.04669004019146521,-0.013989994597222825,-0.05993036226549581,-0.07699865292510573,-0.053531208360133455,-0.07629923129334695,-0.07665287606080284,-0.04510295608897994
-0.05045456837240849,-0.031038196793117857,-0.0690488085385313,-0.07798902161295652,-0.05667636896625808,-0.07790438501799413,-0.08869506688495549,-0.07011360053608832
-0.047398693875129114,-0.04625083928445293,-0.07203972039144155,-0.07231467845587107,-0.05877972102077618,-0.07573952921652077,-0.0671705731911218,-0.08111481568555388
-0.043067230026021815,-0.0077705942765541915,-0.054124011063653735,-0.06594954578202962,-0.045920919377016575,-0.0581589440431921,-0.055725323898072186,-0.036650099836608024
-0.04499373657215858,-0.002555450018507702,-0.05007661372498347,-0.060972379985866014,-0.03588719162704851,-0.05793501578937,-0.05472729909940557,-0.0412538692009253
-0.03827124999471856,-0.007166271712997736,-0.054249567896482206,-0.06937942869489828,-0.046224144312429036,-0.06384221548991371,-0.06295300588733531,-0.048113836592362
-0.045431852498655785,-0.02905026375888025,-0.06011578318659906,-0.06463699269418005,-0.05657728106038633,-0.06072129963384258,-0.052649150185002214,-0.06566907151831748
-0.044589085913739106,-0.0379917798394158,-0.06635296771174008,-0.06550040033128539,-0.04515629074949004,-0.053365598256310154,-0.0633537552605493,-0.0621724645999481
-0.036987490702363804,0.0017750178356624989,-0.05084849732416768,-0.056228206039190834,-0.028148246610091753,-0.03364888673242456,-0.029371007706736618,-0.029212049433932522
-0.0408077411585201,0.011438483174752915,-0.03777819890194611,-0.056211561435936974,-0.024556908660510846,-0.03397260380298135,-0.045212245172202035,-0.02524343927437985
-0.03516851901163432,0.0062586107648957695,-0.04022219657312052,-0.05489496091478196,-0.031115467623248155,-0.0428796448502103,-0.041068728006376454,-0.0362164589478528
-0.04216799121111798,-0.01784616214379957,-0.053022485522006044,-0.06118016960477256,-0.03343936995170207,-0.038549452414089504,-0.03967223662689579,-0.054392605142594246
-0.050460763458097684,-0.036913936420903466,-0.06315861518896233,-0.058218154481444975,-0.04181434773580344,-0.04488392616947548,-0.044982505633313206,-0.07046923480752043
-0.03380796336912752,-0.004715584383276187,-0.04900061535233764,-0.05479157072226813,-0.02655472850788263,-0.03519950559786583,-0.02438441559206315,-0.027475252642168248
-0.04040000957050977,0.017007664114096266,-0.03477285178378122,-0.05396648076653981,-0.02775927360727388,-0.025742344916528482,-0.028345389235763928,-0.019388448454901994
-0.039381371150261385,0.007638836874670393,-0.04186964258295052,-0.053493260552016475,-0.027016833066524432,-0.038192678732930724,-0.026941332577057026,-0.033110527767133496
-0.03546492626687063,-0.006037059309632288,-0.053145336136427974,-0.059102424064226326,-0.03277158650800975,-0.03331586136444371,-0.03586299486747305,-0.03756358336910125
-0.039340103566408206,-0.030554015581117755,-0.058243433273919724,-0.05795792661287242,-0.04514037094630418,-0.042223492937976226,-0.03729867541145194,-0.05497137044378669
-0.03765559609515053,0.0012987025573847073,-0.04291346097291093,-0.05671851995553505,-0.025291606576319865,-0.027837426554424796,-0.02018192325159112,-0.013993012923145438
-0.039764284939692536,0.013512008241102748,-0.03611426120196746,-0.05080916328817424,-0.017499523549600403,-0.0352068114039671,-0.02581932407240589,-0.0160930721606008
-0.03830310558557744,0.010241042396094826,-0.03620276326761909,-0.052443232111108455,-0.030119870522080032,-0.020960471130780405,-0.028794874164190905,-0.02552061801842236
-0.03689046739542095,-0.012129038775343683,-0.05012771421370789,-0.05864719356015455,-0.02269422105362248,-0.03384741762903619,-0.038275075136039664,-0.04443577849747355
-0.042504716783140814,-0.03172290073762381,-0.05522627876859434,-0.059348446439487466,-0.023927404649632115,-0.04229163145773952,-0.03476993045595874,-0.05961871815734196
-0.04229913112734605,-0.001147661556143458,-0.039679898974449936,-0.05483193850079148,-0.012780461305074311,-0.018331608521116302,-0.004503317492401589,-0.020133216309939295
-0.03763215118850305,0.01509851738673052,-0.03682427087323658,-0.0508876933422504,-0.014059278823131294,-0.028902795938252433,-0.007326871270216949,-2.0977339329401645E-4
-0.039114392664593996,0.010755820024836727,-0.039346900461199034,-0.05083375851406076,-0.015051001732684467,-0.0175076913694655,-0.019711528193795985,-0.006374309614609229
-0.041231747266350045,-0.004979333829789094,-0.04357024100934765,-0.058569261828529076,-0.013052719810182701,-0.02866079549904541,-0.0256688193690589,-0.03604436295030242
-0.042532051198796716,-0.024777160396052152,-0.055115444574762314,-0.062127255076193065,-0.032417453333092615,-0.03992539034238779,-0.03393186298437372,-0.04371315842019587
-0.039901777041020825,-0.033332417496188066,-0.05570409898505325,-0.05965874193449374,-0.029923485370907686,-0.038341764023404334,-0.02865303466065467,-0.041189403187078956
-0.04019071569866088,0.011434517571201388,-0.03829642199743557,-0.05387232499113087,-0.006105450047154042,-0.018139096704670548,-0.012535239364147407,0.004063386655099076
-0.040447359363577504,0.009519009439735522,-0.035882336191174535,-0.05909394191431192,-0.01390266787004945,-0.007172582647813469,-0.00996791566640798,-0.01304630041845773
-0.03988190915724243,0.00275344785756852,-0.0406453735386952,-0.0537634044997126,-0.013553547002556317,-0.017176403448696177,-0.018276151096572723,-0.01767992951673647
-0.0420063565394156,-0.019372001021811854,-0.055019980024410324,-0.06402540052149817,-0.030828257112698345,-0.030950366568219215,-0.024536630882316314,-0.029983427040030874
-0.045676099500176176,-0.041354913832537525,-0.059133918544223535,-0.06604819607136395,-0.034721225414595394,-0.023910396824712042,-0.024965617629510165,-0.04564586631906364
-0.051222610482700846,-0.008315899121462016,-0.04767156422836186,-0.05801646439551592,-0.01364414837423456,-0.007071950787145006,0.004502872400986476,-0.02302332770318276
-0.0413383042825261,0.003960842621467564,-0.03873242914233315,-0.052287982725221935,-0.01706175963104611,-0.005356817680190162,-0.0024322917721828264,0.001386323689706289
-0.04679971993739704,-0.002953461300707613,-0.044263063558710576,-0.05449798342811849,-0.02580611381490679,-0.01182485602260167,-2.7716857887305843E-4,-0.016823230190214006
-0.041747546933209555,-0.022550500268831722,-0.05191016926798187,-0.05898071920682912,-0.02176166180613099,-0.01819461815939696,0.003463662890493253,-0.03035139706591693
-0.05268037317261067,-0.04231645769108641,-0.06032794070649317,-0.06590179393175913,-0.03235689516798481,-0.016354887373498963,0.005923912748595723,-0.0371250306515438
-0.04321444924435951,-0.006311991123283149,-0.04209384914816337,-0.049509958925882905,-0.0069088005156268915,0.0029701864820991892,0.012237465722842879,-0.0012425452444077567
-0.03774817953210914,0.011727800012642751,-0.03662395432261131,-0.050286639772966275,0.0035873246245994583,0.014426467405376831,0.023645336470000576,0.005755607262820565
-0.043719412654323074,-0.0033234550865193094,-0.04102981715090109,-0.049339925415707295,-0.0028635851747849995,7.114708714766462E-4,0.014288647683315295,4.409405861552784E-4
-0.04676756655857115,-0.01229335912919324,-0.04741980591156353,-0.05346157484386746,-0.005443076613938442,0.005321691445589106,0.02411888565030407,-0.010088984242994679
-0.04778820199363945,-0.03542930046800993,-0.05193302692489481,-0.055616475598922605,-0.01094833519431863,0.0098402913988975,0.017781096739051584,-0.023907278289855182
-0.04426906753110647,-0.0165668615206337,-0.044986028724019814,-0.044584680884372146,0.0016332964080315706,0.023334299121468876,0.03752261055102741,-0.00600993766521399
-0.037763125494387144,0.020061869597666843,-0.02969000139712213,-0.03442527853880965,0.0026662695489241854,0.028459239232644786,0.04408167042112686,0.02231859891817073
-0.03444211589608295,0.01632851454460617,-0.02460943324207585,-0.04193744253473503,0.0029590058848903617,0.02057741929451189,0.03799124343770908,0.012299782596476976
-0.04258325535681776,-0.001530288199097161,-0.033024104584745834,-0.04547237205225908,-0.011389747250138613,0.02130268794901409,0.022249407394612977,0.0016544600798467043
-0.04370030491485976,-0.026217977464082484,-0.046559363281132776,-0.04378398140387709,-0.00928542385435449,0.003052477358523013,0.026685056163531642,-0.01412364268638636
-0.042340838744668555,-0.037707042823039716,-0.04921208443462815,-0.0446468599098398,-0.013136341035312181,0.014086078760429452,0.026792110845771263,-0.022471090110352945
-0.0367850840167414,0.0077842899066851955,-0.030816981822021493,-0.03954224758497949,0.0022229336213331293,0.028892354483381257,0.04895624541567107,0.021835883034370156
-0.039232365650558786,0.01076886100792697,-0.030583321949553235,-0.03790714673479551,0.004586115896905171,0.01926485164446041,0.039762261500486035,0.013456339192655693
-0.0349838826552721,0.0026528897210579415,-0.035815148654827,-0.037105166831547874,-0.0070238181770407426,0.009513055210456502,0.03119763372931718,-0.0023065424577323836
-0.03726899639308098,-0.013104898623056162,-0.04004133359506705,-0.03987943963716458,-0.0138363663514538,0.001690533759115037,0.019012623915050535,-0.011071040213820051
-0.03954636493854394,-0.02657221975484992,-0.042131656787936816,-0.034793715466447155,-0.02464036694937393,0.0039835140593061594,0.01908212786892546,-0.019601669180863254
-0.032050887445370616,0.008039218001299645,-0.02836615549168836,-0.030641881316442552,-0.006925612034950629,0.020309846649980413,0.03237050002907664,0.0029744200499536404
-0.03388368404126433,0.015569562029030015,-0.022502233095094866,-0.03253785784435567,-0.006223155309479702,0.004432496814101791,0.026368624921751377,-0.003578657990713332
-0.03740018278477677,0.006377397937644005,-0.026216838679236458,-0.0364545877852841,-0.008519920367787166,-0.0037550922513894715,0.01902695563365724,-0.0072798495088888665
-0.03477820973755988,-0.018228200047742282,-0.03771513097423339,-0.0314263241527767,-0.012698739994086317,0.0057076513638993085,0.005743342174576629,-0.031687802923080086
-0.04033058645128486,-0.036026824324555076,-0.04023758377703727,-0.03708813912146384,-0.015632858578707217,0.0026007584167071656,0.013778568641871677,-0.024738275234619304
-0.0319696834524187,0.012948667048700412,-0.02355058629203727,-0.021398347516233533,-0.005009426153092454,0.021905805673273063,0.03826234607205171,0.006784137206512887
-0.03456764438562567,0.018022939917220628,-0.015935498339963005,-0.025850323141735843,-0.011634966099901202,0.005156864607608285,0.014333697202789562,0.012658429137805441
-0.03202109033361987,0.022039041098258348,-0.020632146150387755,-0.02178297982287366,-0.010849268049582918,-0.007025821101751543,0.010637819968656426,-0.0010231664349847657
-0.036756650324461834,2.857727346188931E-4,-0.029440948694038287,-0.029002832054056727,-0.0243813362610584,0.0017062935339015749,0.007451054652751351,-0.015991811743734114
-0.0397902374757713,-0.024461215153948685,-0.03809030163823264,-0.030938856551351097,-0.027811693689459,-0.013325153199292734,-0.005816511156016216,-0.037214767365676964
-0.03849642955157545,-0.009030465585024735,-0.031042113909927015,-0.029207351049735646,-0.024057407190068866,-0.0060921618137156205,0.014582941862612428,-0.021100251907066405
-0.03374517804209676,0.021342255748719334,-0.019214838095450628,-0.025425296632073286,-0.009723066301286243,0.009023947084047712,0.007528330954050029,0.0091707616430729
-0.029399123429268766,0.01864375388670345,-0.023315162965245637,-0.025549839301020817,-0.018424811210905848,-9.826886490080025E-4,-0.002503948917325691,-0.009343524696495301
-0.04054891230396614,0.009875504096085109,-0.030718760172833197,-0.031202062169569084,-0.018952911585166935,-0.013059605029789109,0.0048427637035173485,-0.01703964787801795
-0.04176946605925506,-0.01709982362601055,-0.03651003866615772,-0.041921941804239776,-0.02964276322912924,-0.014700404663044548,-0.013346332197830777,-0.031535856856955286
-0.04652319629339378,-0.03701524718022105,-0.042429917877990324,-0.036653338973285966,-0.037360324026743524,-0.014317072217347931,-0.0041904081082097784,-0.03307914626881302
-0.046293409272598764,-0.007473340147268884,-0.02894912737297475,-0.03150669176736978,-0.020261822149596598,-0.0028085293885481187,0.01315198764118539,8.43728676786582E-5
-0.03958111918366036,0.013394128758706532,-0.02783222598946799,-0.029130476813284838,-0.0230060536680711,-0.010990400464130572,0.0020578630485643856,-0.008770459272797017
-0.03685032954915743,0.0027252937078345563,-0.028217564085216775,-0.023884437095716284,-0.028357833949569384,-0.012497287940851259,0.004338342689002256,-0.013972911086039189
-0.04506564657844015,-0.01491682998183154,-0.03659621527732719,-0.03458812017785943,-0.02453698734489134,-0.009990246064442362,-0.004105151530510528,-0.03418198650712414
-0.044971113940914666,-0.04056064738365322,-0.048078823217227,-0.032307793389828504,-0.03140995800541814,-0.018226784631040605,-0.004729016717105671,-0.051155075388839275
-0.04038061815585156,-0.007829400976291317,-0.033603899590917315,-0.028028196302336283,-0.021371122398678822,-0.0016043281353232874,0.005967187751032595,-0.014511446474391839
-0.037929241367437895,0.013455502264864458,-0.02482759122819209,-0.03093312585240194,-0.01822260414255172,-0.008729804288289381,0.011265302530690656,-0.003968615520760053
-0.03938043573861007,0.01228254287032684,-0.028859707261925438,-0.030253209923929148,-0.02232823542951343,-0.016770827063389285,-0.002400088543142779,-0.011474243160368188
-0.04389300308024164,-0.0027656972820265017,-0.037950686533008544,-0.03394842266280518,-0.024187712547597398,-0.011417364180593996,-0.011025587832046017,-0.019352611054628936
-0.04932412331276846,-0.030955311404761238,-0.044566334795836264,-0.037782898861911336,-0.03045086161826032,-0.023327459944627274,-0.008293220588166093,-0.03442712000579521
-0.045324002216825185,-0.03204539599759803,-0.04342217189568445,-0.03550404515596555,-0.0360083376056545,-0.012930765724478604,-0.006259473024919491,-0.0336212109829896
-0.039563150992381294,0.007165068643096681,-0.026651256361930525,-0.02355187101565732,-0.011557315200756108,0.003931773900299713,0.0075748323867717736,0.00170923131204076
-0.03502191531506264,0.010093759890576415,-0.020860280480840744,-0.022749179698599575,-0.02536245387174804,-0.011068845339507803,0.0069783717498386015,-0.014828818837112123
-0.033284921905854664,0.00947862945393569,-0.030631197874637955,-0.041443893186278946,-0.02522415184537244,-0.017847725468891455,-0.012136496245656148,-0.021918996561847145
-0.04781023779521335,-0.020187027055169022,-0.044685830951334125,-0.04118538840550237,-0.030391660548902313,-0.029099671413861588,-0.017697765050444726,-0.03991436432883379
-0.052686231906366794,-0.03398175124172259,-0.05441555052602917,-0.03997435574840189,-0.05668095163760981,-0.03897662554693722,-0.03723709803876836,-0.05769099313586097
-0.04861004336019508,-0.01895069871026231,-0.03920062924989563,-0.03376755714613447,-0.03883550756336177,-0.024513904650959213,-0.017843288196646667,-0.007586181380742257
-0.04920892174416454,0.013922773614791672,-0.025783783961568666,-0.03756777727799843,-0.035252943007420844,-0.02453107892034969,-0.010206174024286582,-0.0027216650626424926
-0.043895485053175275,0.0038273145025756964,-0.031257484533162426,-0.03562034041807754,-0.03984044923396802,-0.027901534133459298,-0.014643778081494141,-0.004888888134426337
-0.04736213757074616,0.003724925353363077,-0.035956787139933714,-0.03749618975479235,-0.03976939748947104,-0.025956847508093912,-0.02234805886320953,-0.021884603478786447
-0.0514962598373945,-0.018722733548073304,-0.04271170924753904,-0.044811391857277935,-0.050863131138436324,-0.03656026401647776,-0.04043806041301108,-0.05420224669734277
-0.044071331681421654,-0.023309116854254405,-0.04051375065361279,-0.0448953001573502,-0.029578472758410822,-0.019460802303247468,-0.022134641212162697,-0.028275552163059117
-0.04063436012684112,0.014224933565589973,-0.02709649817134084,-0.036242322679410514,-0.03223596782912328,-0.01602240082174976,-0.0017587183799028304,-0.007146606380929444
-0.04100444390645145,0.008943706543393439,-0.028919195794966802,-0.04265057764038879,-0.031072256608243747,-0.02906239222575814,-0.013618713163672516,-0.021940376985343932
-0.040190809451311815,0.00303894741242826,-0.037701653898035384,-0.04376106063644191,-0.042288799418065036,-0.025208487351309834,-0.030773967552028304,-0.033107954359314316
-0.04771625731314043,-0.022225857325336502,-0.04657747766220127,-0.04808888165445474,-0.03508539146070759,-0.04848787995056385,-0.03330251959830698,-0.054477850091658744
-0.04642050622745621,-0.03504961654119172,-0.05823630949642522,-0.05082690523089905,-0.04429271278189504,-0.047112252172176385,-0.04500400967725799,-0.06699494635523068
-0.03803748311464723,0.003206841484808504,-0.036593414311333464,-0.03811722901462103,-0.02146771237991429,-0.026750533471250712,-0.007802330342428627,-0.023753087308951308
-0.0405768855295896,0.013142593205742924,-0.0314010245630103,-0.04222967475335217,-0.02571733999016863,-0.03948317315545251,-0.02446553426428582,-0.023969677278819827
-0.04350535377301882,0.014688635069259059,-0.03391328257443992,-0.050462675434335594,-0.034559000587103234,-0.043033620632937225,-0.02813181085616038,-0.03011367751814003
-0.048277620496935895,-0.009353655701715922,-0.04612205736775861,-0.05716804342432463,-0.049543107981473586,-0.047445644678343966,-0.047487385526051036,-0.0518786901052749
-0.04661369674834582,-0.03215734987215108,-0.0581095023623139,-0.05470256170130309,-0.04780258172809189,-0.059137446904094525,-0.05014913226118796,-0.05617059515906063
-0.044933729628233346,-0.0220350624503989,-0.04840144951903984,-0.04474037343080214,-0.0398488189847835,-0.047371206122041695,-0.03857293977531481,-0.050340499368871236
-0.03923643338058374,0.010104707013461736,-0.036755932123556816,-0.04531136340588114,-0.03188936564865753,-0.042390489361682715,-0.02595354285082757,-0.02684677407977092
-0.04152184171137165,0.0070171220969229885,-0.03725979721417095,-0.05279354014027363,-0.03343149764524828,-0.05112728114241339,-0.050387707053298335,-0.03693275603669123
-0.04439262300712263,-0.0016396720904187064,-0.04817915089509522,-0.05346328833613464,-0.04816743899470246,-0.05835973511126815,-0.05280909191460692,-0.055604547240740584
-0.04677811098784027,-0.024547856191788522,-0.0571509167258043,-0.05834719569486513,-0.042735424517461894,-0.06465400929021564,-0.06282473214032427,-0.06813801404203074
-0.04741878152188974,-0.028516815754017738,-0.05629747609386033,-0.05832492798947156,-0.040482186825812845,-0.05684074955171976,-0.052894794694314504,-0.06691220543020981
-0.04510995397381789,0.005769370010110896,-0.040489277424560155,-0.04809117548816852,-0.03843916852160108,-0.05453467310064129,-0.036946336807728374,-0.03696399351188328
-0.04036037140091183,0.005944156654110798,-0.04171987465437305,-0.055187816420532256,-0.03544496052615616,-0.05807355328417263,-0.051799441815473496,-0.045474986034677485
-0.0451451682813965,-0.005608631796635753,-0.04669160988540447,-0.05309242387368393,-0.046602531688057884,-0.06504408299440072,-0.06329464463111022,-0.062287527387812895
-0.042213876205674634,-0.026073385736463586,-0.0553082673757268,-0.06295240612839191,-0.046833218160977935,-0.06861429615313146,-0.06456212310626921,-0.06668445679264251
-0.04738120243889281,-0.03891881739874061,-0.060700051356986466,-0.061263500395592224,-0.045594213646508217,-0.0695501585665642,-0.07345946289401734,-0.0801995471598532
-0.04242879522336687,-0.0030651549212806196,-0.049802651969299734,-0.060155911204322,-0.03278145646566841,-0.05329893911086904,-0.04939655273222107,-0.0309521998184532
-0.044291797128560684,0.015661141323240906,-0.038894648347430866,-0.06357382285822714,-0.02820740847240097,-0.06148734818039611,-0.05876362906340951,-0.028081168859328775
-0.03735742938627526,0.00586833469864212,-0.043392991173520024,-0.056499690010533045,-0.044675052400583955,-0.06415887608608192,-0.06282118968311946,-0.029849403761681187
-0.04066725050076873,-0.01283477887579392,-0.05426025176053237,-0.06087224451006184,-0.03777486232164451,-0.07002381767020051,-0.07248705829055647,-0.052215429555716196
-0.03945058577523439,-0.030561986778223436,-0.0629376246486044,-0.06372662132982175,-0.05731745290783382,-0.08000591292413392,-0.07821862159093775,-0.07468769355438719
-0.046250500314676965,-0.030765359122805442,-0.059788297199457704,-0.05872141475304958,-0.04417968195048239,-0.06681851196779082,-0.06101208557959285,-0.06370905537648383
-0.04618668148234538,0.009743106714647688,-0.04332812750568526,-0.06341760276742876,-0.02751737691924527,-0.05341171377974517,-0.05350209671163464,-0.03700854755406064
-0.04235269174812503,0.015817843594904516,-0.0512922771918605,-0.06854050556399562,-0.046184551571538134,-0.06778213215054175,-0.06720568497837794,-0.03752690035373427
-0.042539173335875174,0.0028983994135455687,-0.05287081858094356,-0.0671674440693881,-0.046915143204433574,-0.07021989557937157,-0.07740932044426976,-0.047346276284379
-0.050351639519008576,-0.02047036503173905,-0.058394471507407834,-0.07280990250290958,-0.048247688984516875,-0.0814536924882199,-0.0827224368097854,-0.06916180325508067
-0.04907868470572421,-0.035473176317529026,-0.0670500905562375,-0.07213615921231437,-0.057183307691259094,-0.08481837011041063,-0.0787805031905344,-0.07387071933543711
-0.044307871348603214,0.003090274545892034,-0.0519623325860201,-0.0654683936335708,-0.04459103162754628,-0.05998660890159007,-0.06508804836559445,-0.04200610645086342
-0.044435218032952674,0.00899094142380369,-0.05138891275256189,-0.07269509227014276,-0.04535588062697895,-0.07278944377872008,-0.0785276172616615,-0.03675866950965864
-0.04667635606919506,0.0013400853631676624,-0.05231387355478538,-0.06892992441924112,-0.04608297241981737,-0.07905185490920426,-0.09113290819149827,-0.041614739402713444
-0.05105147301862689,-0.008511124699204868,-0.05802928956758291,-0.06938282351958491,-0.05111464857018424,-0.09018322092017254,-0.08988381845119989,-0.059282182941737045
-0.048147800980985776,-0.028191107435688336,-0.06928706381942241,-0.07744661901571227,-0.06006732606682183,-0.08029985156207205,-0.08724018321514285,-0.06558857233427036
-0.04107141561048481,3.4659167755813887E-4,-0.05913813446926067,-0.07491357931245514,-0.04007078532148295,-0.06772784732299358,-0.06471069031930617,-0.034734575853901876
-0.04252922159176304,0.01547076428879773,-0.0540273341513592,-0.07013999250228527,-0.03975347540545405,-0.07635658406245974,-0.07452526729723788,-0.032642172625619026
-0.046489985834240556,0.004158189291338151,-0.05252019373235625,-0.07309416211561426,-0.039651635976175895,-0.07656957250057733,-0.08462714223891023,-0.038447556927716196
-0.04561973086566777,-0.0029681962035782573,-0.061548723150959765,-0.07736061305534521,-0.04866096779439464,-0.09036153761436504,-0.08862431919293218,-0.048134029063432136
-0.045270109913867415,-0.0261387750902434,-0.0700824063867485,-0.07889457611664455,-0.05644316462685622,-0.08512873659527108,-0.09669804753427162,-0.08103563668922444
-0.04525668660045152,-0.015966739969011927,-0.06327586794547908,-0.07693599342597708,-0.05406516238799835,-0.0790206368071847,-0.09575380392714693,-0.056533951495761965
-0.042478924782695306,0.008928507413586462,-0.05351559714495394,-0.07406641054145471,-0.0404046298521053,-0.07794760360701432,-0.07833543641251865,-0.02931198477841834
-0.04532383875573946,0.011127619921985113,-0.05002664387985162,-0.08176739715489022,-0.04549245738229565,-0.08449779224365371,-0.09290941650767091,-0.050919270650494584
-0.04046952235589313,0.005569881717583876,-0.05702306196230018,-0.07736871044743004,-0.05654297494902207,-0.08511566396126521,-0.10727032528899798,-0.06031567780104106
-0.047770289956443314,-0.016930920579389344,-0.06660847499867058,-0.08361320829311228,-0.05910841609310525,-0.09930965480469525,-0.1105308546096086,-0.07618969245681635
-0.05346523446736817,-0.024815088034317517,-0.07595155854595328,-0.0812957373832811,-0.072238027345999,-0.10062231644530334,-0.11536364690164018,-0.0869218872563876
-0.04518315558516336,-0.007957947542870478,-0.06869806055494045,-0.0770820167720899,-0.05217006468692561,-0.08498042822886144,-0.09065897493904089,-0.0365379769085741
-0.04084984584666406,0.011911515346342778,-0.060681771222184745,-0.07390904932114163,-0.05206398122578427,-0.09165752430076893,-0.09597313869373532,-0.04083456929319361
-0.046342406668957746,0.014949592011676107,-0.056297768539518823,-0.08009031375105218,-0.055716777199464274,-0.08778993471121549,-0.09120831531261343,-0.043687145454319655
-0.04524900688685117,2.7507688178012046E-4,-0.06103814774757975,-0.07857254788904089,-0.05442316715555619,-0.09372180775370238,-0.10558197744206604,-0.05349022957383912
-0.04916491553490351,-0.015248954752770487,-0.07092433162243021,-0.0853309715578108,-0.054409731579910504,-0.09858998114300074,-0.11139143040755561,-0.0751300533001228
-0.047526049484577025,-0.01824565516818071,-0.0740058214034104,-0.08780183393724642,-0.04964170845657307,-0.08822225617123078,-0.09598976637078174,-0.06962279394980807
-0.0415945017004672,0.011431720827712362,-0.06141943451547144,-0.08521279523083908,-0.043093731363952364,-0.08509214435793645,-0.08776428176054109,-0.05430952310504795
-0.03971646932662033,0.01035514133992111,-0.06042112370681621,-0.08363017674956073,-0.054067624136251956,-0.090808463976728,-0.09606009497489039,-0.053798616528188924
-0.036332189155387766,0.009224128738604197,-0.059922787934528515,-0.07907846683123644,-0.04601180134082606,-0.08627992864787913,-0.10414647477351174,-0.0628688053032026
-0.04914054219988436,-0.014779658190431718,-0.07072559582561713,-0.07792308129547969,-0.054280673526368284,-0.09120827708188199,-0.10800886857565999,-0.09349715400238354
-0.0497657931456124,-0.0334434361528381,-0.07199155465369093,-0.089845648554387,-0.0644285560121969,-0.09847668628882902,-0.1038135444328244,-0.09631943460558265
-0.04393376976378146,7.066332555321558E-4,-0.06004266739038096,-0.07906336738413085,-0.05357758809062195,-0.08211563816686672,-0.08799147399576675,-0.04978339228429923
-0.049566653752984705,0.015127259325373498,-0.05627528684027982,-0.08279417258027891,-0.056635270485120376,-0.08889875905766416,-0.09644783526657356,-0.057860164085659575
-0.045866592369932395,0.006383506851874672,-0.060498690571549704,-0.08219804630860009,-0.05229557712392649,-0.08731143744984592,-0.09759848044733915,-0.07078105281615757
-0.05314911961952689,-0.012387922935586245,-0.0673783471188757,-0.08575856977193698,-0.05949486030371732,-0.09527127632456196,-0.10559952827773939,-0.08095686389253717
-0.05356930174478131,-0.029714045498067342,-0.0739276728435707,-0.08453944185941882,-0.06278911571328726,-0.09633645393299838,-0.11095790760774098,-0.09186527353269569
-0.05324252694321339,-0.03268640048844698,-0.07513766306885483,-0.08455931758571782,-0.05900739705954339,-0.08960661372743783,-0.0961687255748951,-0.09281132887361508
-0.04975499632023532,0.00873473549600688,-0.06003944231490288,-0.07631542371251963,-0.04666780861581659,-0.08573781657061545,-0.09094332786972222,-0.058713313002397745
-0.048416458387165476,0.007482678465259076,-0.05942793263021125,-0.08111384192038575,-0.05562959392374862,-0.08713294531920134,-0.08904316911798223,-0.07365336251300154
-0.052286941440709785,-0.0012757327847554903,-0.060517777745005295,-0.08138894310776859,-0.05527354872329904,-0.09294843590916238,-0.10188706341147392,-0.07780487429908346
-0.05722174522293782,-0.018401108150561896,-0.07233921410574437,-0.08329148847046096,-0.058486018222550284,-0.10486524209780147,-0.09042474371614732,-0.09926850808106555
-0.05462088720940853,-0.031324675179016784,-0.07597597131083923,-0.08984990778067393,-0.06968565168705802,-0.09448252044957706,-0.10730032465581982,-0.10874659813580077
-0.05355559665458788,-0.004317490231578131,-0.061545151294154596,-0.0831022867063634,-0.04742300547719566,-0.07408994208302716,-0.09748643370887963,-0.06931994311055707
-0.05381133872362334,0.001932469467963994,-0.05403209790741572,-0.07877440785608081,-0.04314154914819412,-0.08486501658131108,-0.08578560797315507,-0.06378185304677604
-0.055687999142382955,-0.0061025863781968975,-0.060785362792407094,-0.08133889893918103,-0.0620528295337303,-0.09244112152713932,-0.08025658305866833,-0.07310701012148198
-0.05790237542238457,-0.02591641456064026,-0.07315589806228832,-0.08489185965202266,-0.05816816943787613,-0.09468509874317454,-0.08949910013275135,-0.09569781384967237
-0.06142744504747052,-0.04046616694247232,-0.08183714469967349,-0.09220681643811224,-0.06945412512070655,-0.10813951162665146,-0.11249010034700942,-0.11684911280396466
-0.05963138991195542,-0.02382768612958566,-0.06744033630757462,-0.07943512936527491,-0.06405498187915412,-0.08409294489649043,-0.08805066696741953,-0.08700569990606889
-0.05082270676221191,0.010130851048055974,-0.06043942635785396,-0.07935344950527139,-0.051155756144108694,-0.08130059160462272,-0.0781633408860677,-0.06196254776322246
-0.056761564900722365,-0.00281191276670427,-0.06236333137451435,-0.08119644265704111,-0.05979830374058092,-0.0793732505005561,-0.08665828553147999,-0.06253465031025034
-0.050236561785020846,-0.012199303611860828,-0.06795472102802275,-0.08541170058590362,-0.059475375827285584,-0.09798802399059806,-0.11260942478789374,-0.06724663304798416
-0.05885401699183998,-0.03537691804086744,-0.07308372793994218,-0.0827528423410946,-0.060065816336202796,-0.10398817637020687,-0.10533567690878096,-0.09832193175933909
-0.06327381478367977,-0.05232819442416997,-0.08388202766110667,-0.08406868849536524,-0.07287195746474798,-0.1012082203781366,-0.10952640752646599,-0.09565761446336006
-0.058728520567114265,-0.017179492368277285,-0.06178000810300082,-0.0813882618166985,-0.05863854019933815,-0.08492718283526546,-0.08054761901814457,-0.0690513213180438
-0.05494879501823808,0.004028399557399197,-0.0624598779184589,-0.0819982857367288,-0.052996170741239204,-0.09749896790089362,-0.10347132288590764,-0.07440311392470522
-0.05471406669753046,-0.007840965319415154,-0.06673669534722002,-0.07438280858449968,-0.07033229710031458,-0.09697487024163264,-0.0984861380295814,-0.0879728860748132
-0.055536507726126685,-0.02418758934970406,-0.07569278061443971,-0.08320115948960154,-0.06713763425237218,-0.10126588517843238,-0.1101862482320544,-0.08080744069085001
-0.055388383126817056,-0.03889831736284006,-0.08368910677929882,-0.08070990781115223,-0.07243020521457764,-0.11237279780695582,-0.11654607243655511,-0.1073119944779745
-0.05800660777268099,-0.036162154722128616,-0.07564785617175684,-0.08000287327482768,-0.06188569403133091,-0.09231638728536945,-0.1055812580250632,-0.07991488777690979
-0.05386505792542887,-0.010688556413963426,-0.06415445748569554,-0.07393388852400112,-0.061441130139360096,-0.0829806136888884,-0.09488355877788564,-0.06787703160219714
-0.05736563540409562,-0.014457497090861858,-0.06523127865202775,-0.0774146356003081,-0.05938503502811359,-0.09101790050936226,-0.0981043797675228,-0.07951732062866164
-0.05484374543312243,-0.02145816505851892,-0.07018307076031395,-0.07349284599922756,-0.06311221919938577,-0.09823641200853848,-0.1141317831164911,-0.08585272666196721
-0.05550746048908484,-0.041603787252661555,-0.07858123924073841,-0.07970550953177874,-0.06835228638407886,-0.10593552052605887,-0.10428477809152106,-0.10049760051902183
-0.05363460220186858,-0.02382091632653621,-0.06744838898081607,-0.0749313642460841,-0.06911002997085526,-0.09056193193525007,-0.09403727021647532,-0.06302949188706776
-0.052478605050993894,0.0019082720731487574,-0.06152765514245808,-0.0772973935711921,-0.05177900897394824,-0.09002301062962992,-0.09849254049616206,-0.055317202268020324
-0.047275687645207905,-0.005507558401474838,-0.06173687487243317,-0.0721608192754774,-0.053421002635932205,-0.09509294936401336,-0.09983884546132836,-0.06005061360003179
-0.050743860983387394,-0.01890586724582425,-0.06629054476148559,-0.07594460990699246,-0.07730988915979402,-0.10345044420655491,-0.1107229652391168,-0.06577492594061936
-0.05066809213231837,-0.03157414185396773,-0.0746259792675879,-0.07824205073082123,-0.0682872618589849,-0.11119128346136438,-0.10399828572559064,-0.08593854513878461
-0.05141802325313793,-0.026472181671619424,-0.0672119967767862,-0.06907129308421829,-0.06664665971918579,-0.0978454734466071,-0.09095812513515462,-0.06636905964681444
-0.03926968902386972,0.004186823660684501,-0.060713832108829746,-0.06907238613053619,-0.05861542479827925,-0.09970525367140912,-0.10922826618907415,-0.05527159976441193
-0.041008715791797094,0.010192172077943519,-0.06107693012569747,-0.06991324831806581,-0.06390645399677955,-0.10748458576347503,-0.11581461723679508,-0.05994138448935054
-0.0396549059481274,-7.530272819538363E-4,-0.06187154341265208,-0.07068569119777997,-0.06113117356677439,-0.10296426864600326,-0.12243486169449815,-0.08040474234450316
-0.04637216024407581,-0.022793236673091015,-0.06678580809949418,-0.075392952611616,-0.07017244423943261,-0.11873059771392709,-0.1259958393605572,-0.09251502658143958
-0.04777847652752724,-0.026688805436711843,-0.07151481211458384,-0.07606342708108106,-0.08207325976566689,-0.10635580002084401,-0.11192130979651779,-0.09130279343396266
-0.03959605619093592,0.020407126156889062,-0.04302361402927645,-0.06924161292647049,-0.06981285486098049,-0.09402235681039568,-0.10082241766182935,-0.07302647635205244
-0.032931513520705086,0.024001594534986154,-0.043362574086142205,-0.06492733676028986,-0.05540295197259641,-0.09639053937326603,-0.1123809524485396,-0.07833132795131495
-0.0400823818439466,0.008255913112136611,-0.05472639298662894,-0.06829592894259669,-0.06314153162249549,-0.09420943302411264,-0.10399664154592905,-0.09066082770543897
-0.04151544375937434,-0.0034733673254198896,-0.06264300816600167,-0.07678417168051613,-0.049606108572399284,-0.08182305622700907,-0.09060136835897656,-0.06805911951493962
-0.04709456898889722,-0.020726359378432337,-0.0681919660379083,-0.07287227759570414,-0.04002879061990295,-0.08218582702176885,-0.08329911387148375,-0.05970477432156848
-0.04549013160398995,0.007730300544146241,-0.05575226807518395,-0.0755716081995941,-0.033065900330263326,-0.0777947980619668,-0.07730325892933673,-0.04246531981491782
-0.04051583800186709,0.012224455653736888,-0.0548605610391511,-0.07409146016440014,-0.030046623867491656,-0.07905807847454757,-0.09176644403675854,-0.047800982263080286
-0.04277417942433919,0.0031366061105134596,-0.06281663753399586,-0.07626312862655205,-0.03744760070171641,-0.08790830853420493,-0.09584243633289716,-0.05211327050434711
-0.05125736795407938,-0.005558640771892148,-0.06685812824957597,-0.07758968879147199,-0.04238424797323819,-0.09065525544351759,-0.10333720245739929,-0.06010160470724863
-0.04781021792431649,-0.009826044127990792,-0.06678420164335319,-0.07547908221155175,-0.011351184183560634,-0.06694544126645902,-0.0644261132619754,-0.023021617704139557
-0.041268669974544904,0.018987768777980668,-0.056138811383524,-0.0791529684349958,-0.005107234848611752,-0.050016512991013985,-0.06025333549694246,0.011314828569971411
-0.04174037692357779,0.008295392413240435,-0.05930465418487553,-0.07916862571202699,-0.0077680827173567,-0.04997944057373543,-0.051842967529139965,0.015307203822510043
-0.04855859891746717,0.009685317493013674,-0.05884088236037776,-0.07449819948020082,-0.008085435719668722,-0.054620350382482696,-0.07518735745523229,0.007576934868364089
-0.048304105236595236,-0.01079105667529229,-0.06677316135964115,-0.07613492008053134,-0.025365787063919155,-0.07679934416591516,-0.09062099084812207,-0.030040583220165097
-0.04898233838136548,0.0012691648538476516,-0.06627765724178697,-0.0810777674568244,-0.0333013925076843,-0.0780552227913093,-0.09278342527329382,-0.030889138737537646
-0.04755384212132981,0.02191578763250733,-0.061388711982995954,-0.0851881068910127,-0.039850666038281655,-0.08727941862579724,-0.10420641805155785,-0.04129632847467676
-0.04958777213288723,0.01508455190072081,-0.06548761703458213,-0.08495374597361441,-0.032255047578301624,-0.09763126192544441,-0.10024146206757924,-0.04812168731986502
-0.053459946779589575,0.0014443740406977531,-0.06947128567431114,-0.08909452708401994,-0.041369684227507614,-0.10185798777889164,-0.11227848053022105,-0.06992099034766172
-0.06049952528238889,-0.014911222964550209,-0.07499476012140513,-0.09210090750444024,-0.05428040192713378,-0.10170855451058218,-0.10829341917477449,-0.0909787523599329
-0.053392525449810005,0.0058299187021545375,-0.06601596209262606,-0.08726665520150143,-0.05550749321706964,-0.09028771876507811,-0.0900790674032366,-0.06394811383150116
-0.054170326760617726,0.008603238173406273,-0.06648090305231731,-0.09373349648092084,-0.055161871869612994,-0.09674924816562366,-0.10068467638724785,-0.055238297911523224
-0.05896500398625917,0.014498697497896455,-0.06626992017793419,-0.09076951128147259,-0.051741893408961084,-0.09480153588919983,-0.10133903724979547,-0.06665860411145852
-0.06228703778439478,7.998466189205468E-4,-0.07241666523895475,-0.09360210855890394,-0.0561028028496105,-0.09709696563770252,-0.10299859337672691,-0.0828991271566499
-0.05877391805918948,-0.025371558910575104,-0.07486726047528082,-0.09374867946114751,-0.06242808845812745,-0.1018847240883856,-0.1012216530282763,-0.09586857020980585
-0.07065015536764377,-0.02663557824611603,-0.08153306158228857,-0.09223223398450615,-0.05415840505750106,-0.08723342980618834,-0.08894695143263999,-0.08979555983511742
-0.06746340166382439,7.904581368642588E-4,-0.0641751892965375,-0.08457285575076899,-0.039467651476523403,-0.07524420576936303,-0.07845947096572248,-0.06308177830997955
-0.06396664055352211,-0.003769190824878481,-0.06353656603751237,-0.09130776108280719,-0.05021350986400599,-0.07466672028772073,-0.08113280943490907,-0.05139623426998895
-0.06941302879100447,-0.007058768345045097,-0.06878299390258873,-0.08362664777541769,-0.045322866409048375,-0.07689427014114869,-0.07201499108265262,-0.0779483539030602
-0.07009463989138767,-0.02865014457213837,-0.07715033369923141,-0.08974560415689677,-0.055153233935364865,-0.07434847690230915,-0.07941649316334937,-0.06863484813578852
-0.07115366409155353,-0.048380750028943514,-0.08614373280525082,-0.09835933792831027,-0.056978404958917574,-0.07238562376694968,-0.07311200810257079,-0.09211963904871946
-0.07370514423747095,-0.0293246034651596,-0.07437217683748423,-0.08392606171079298,-0.041286604912303994,-0.05098100259586526,-0.04596728595157594,-0.05602112444247058
-0.06326290721697063,-0.003858749953562869,-0.061464355045798516,-0.08216149607404939,-0.03386710682788492,-0.04480251425776939,-0.043705996818732704,-0.04732751435991367
-0.06923907768419456,-0.005337021449498164,-0.06388424620129514,-0.08814006492009818,-0.041752764763067864,-0.04885045462150785,-0.0508513835925525,-0.04125017094686527
-0.06622891118593008,-0.02088556136472622,-0.06710292699442474,-0.07974016688588433,-0.04706687351747998,-0.05441028174635119,-0.044999698321126325,-0.0603199052695853
-0.07267858496741689,-0.0360924449994493,-0.07533911874280146,-0.08497192511016387,-0.05628723994424913,-0.055621435272433434,-0.06161498797189147,-0.07782077167432853
-0.07659670039524329,-0.055662928202726544,-0.08777005603647067,-0.09777223192746128,-0.057421780611822716,-0.05747010020277434,-0.052282341928535765,-0.07847021714643584
-0.07510788295254592,-0.04940427138385297,-0.086277028203103,-0.09028626008650516,-0.04895383741477774,-0.04778246836334796,-0.04233415663924913,-0.07153249298991535
-0.0635337646612028,-0.014917887890553467,-0.0673098267586252,-0.0731256171615752,-0.03501483608162309,-0.03625458545820986,-0.02220097456363642,-0.04050490904268601
-0.06921572100483869,-0.01093374826410742,-0.06743619686663761,-0.0762706894852784,-0.04223946069264179,-0.042826655966566596,-0.030473254755308495,-0.044966023574825084
-0.07283223134199167,-0.022527583198525793,-0.06813241940228931,-0.08067133398722134,-0.04362285303128548,-0.049600230185157544,-0.048970543642826776,-0.05287035270470914
-0.07323083056494505,-0.0472637287785528,-0.07894991310478636,-0.08728045905385176,-0.05772333046660355,-0.05320590968103406,-0.04383919119010708,-0.0652401350716798
-0.0698120408435162,-0.054749138500559485,-0.08175486953701457,-0.07984926517531654,-0.04878635980388403,-0.04853382809216586,-0.05026057071302668,-0.07967289026789202
-0.07055234739227038,-0.01600356404377183,-0.06560975485896424,-0.07766743150010147,-0.04220228099033378,-0.04155670616467708,-0.03142212202678922,-0.031828912132280576
-0.06362830291379458,-0.015641165947302603,-0.0640240481537744,-0.08092162054463074,-0.04427283903356403,-0.03158375563879908,-0.029245036461265198,-0.03894158751647207
-0.06488574878045653,-0.02641630199220285,-0.06609938639876158,-0.08054462034774239,-0.0537562236798119,-0.04882895737312424,-0.0381375278375755,-0.043467107486292816
-0.06602844615682874,-0.03867115134163171,-0.07678380088312828,-0.08504798423841803,-0.03838348727025473,-0.053635462841721285,-0.0448663751197341,-0.06613909100277005
-0.07333554179097186,-0.06712520863527653,-0.09010599837976396,-0.08654938075308327,-0.05678923425036518,-0.059168524975161126,-0.04619698216970474,-0.07972392185967692
-0.06882589561562774,-0.037588203331637836,-0.07209394919643496,-0.07661283305897201,-0.04101846000312451,-0.024059172430961867,-0.018475563468407778,-0.03957999124271554
-0.06490201764949008,-0.018118782487426995,-0.0672269697991933,-0.07625468934293073,-0.03420302826663419,-0.026296183096576043,-0.022104534517033175,-0.0334276747257085
-0.05832168437494856,-0.013060234793935465,-0.06627059987585485,-0.08149711060798029,-0.02805599321421456,-0.03780697342588258,-0.02604963816913131,-0.040981699415859024
-0.06002169493757114,-0.030656126748507904,-0.07437879695337037,-0.0799824946669774,-0.046180462633722566,-0.04227030812282676,-0.037851891798384656,-0.06111154372842045
-0.06295422630283537,-0.0591300822876072,-0.08356338893868173,-0.08823955119414416,-0.05076586364360074,-0.05295635152615563,-0.04098345548277249,-0.06968781043266169
-0.0647506612819209,-0.04111750153256863,-0.07659006238942069,-0.07902712929508783,-0.05413213063995708,-0.02378994991270596,-0.026844524729392024,-0.05022587661653522
-0.059206359815251415,-0.005209674451855385,-0.06523210587265145,-0.07262363347318991,-0.02894742164024519,-0.030900027643615623,-0.015003316381755245,-0.0266282762773766
-0.05820734238709547,-0.007818576705817024,-0.06461941436942739,-0.07583038280620326,-0.03784099023870228,-0.042160488302291674,-0.021751139456982645,-0.04093861841150338
-0.05383458992446363,-0.020508444192985368,-0.07017917203537023,-0.08156071969250023,-0.045844799882166526,-0.03522468949781003,-0.03084545357960654,-0.04314045005564205
-0.06154769853893866,-0.04063756788261722,-0.0834953205135941,-0.0883010483233736,-0.041464153672327635,-0.05273159387151659,-0.05044505197599845,-0.05848130189918687
-0.05721699954850829,-0.054900810800967606,-0.08694228598360788,-0.08334003709557382,-0.05172850806151083,-0.03973912460368306,-0.03316499347083498,-0.05863650717597633
-0.056246614517947026,-0.009747791490912655,-0.0658170214428433,-0.07839840355256474,-0.027629517273065847,-0.024768409422120146,-0.01174901919924447,-0.026851480314719983
-0.05499943819837303,-0.008109933342982413,-0.06456251104448682,-0.07491055360323728,-0.04149164869296879,-0.022680205421351768,-0.022764082911741642,-0.027446447586823297
-0.05635701283360101,-0.01511440523782191,-0.06680993395178271,-0.08175967066842858,-0.035774936920158006,-0.037829942073301356,-0.027163541386586065,-0.03561214512082959
-0.06375737422401567,-0.03966600127711732,-0.08025202302521388,-0.08424393774301286,-0.04949105883415467,-0.03868508287042199,-0.04153450831540115,-0.05604478973270757
-0.0630150727899705,-0.04977000640991089,-0.08190812597682161,-0.08167015833551372,-0.04283749057827149,-0.03987413855766877,-0.03614357698917639,-0.05584117928072115
-0.04852144998461832,-0.006028545498862212,-0.06155156194670816,-0.07575328855654503,-0.03369595103844732,-0.02218034766764715,-0.025707765492786396,-0.02005747022741878
-0.03993084081744011,0.02120714089646317,-0.04736938639161342,-0.07081904935530882,-0.036585439615671664,-0.030031375312736558,-0.009715438366024096,-0.03166313639008146
-0.04437680201077724,0.014411185175510604,-0.04605270706846291,-0.06695465401360524,-0.03796267465553809,-0.037194746663688195,-0.014923995124435784,-0.047644880357856675
-0.05064237708332071,-0.026864661978501132,-0.06752465843758845,-0.07551457818217808,-0.05081677229407885,-0.041641203187660604,-0.043557663016774266,-0.052411080047777094
-0.05062298136300519,-0.024480250775376744,-0.07137225781796039,-0.07099545274518432,-0.04400377576248772,-0.029210374371644064,-0.024541997999535225,-0.03692852187760074
-0.04221712323611541,0.0025058863754403604,-0.05573891569591836,-0.06825000847102121,-0.030563178660316652,-0.030655638099504598,-0.021067479409842722,-0.013462593904775735
-0.045445555737189766,-0.004267365845933578,-0.062396897223132096,-0.07167200798866526,-0.032481455959155525,-0.046271063021769955,-0.04021862920500814,-0.013411250484452552
-0.0404513782849583,-0.013112780484079238,-0.06636186788376144,-0.07417198995199485,-0.05008979330740792,-0.0499416098006705,-0.0533319528094363,-0.028391495456301315
-0.04901548554419111,-0.036323095470455126,-0.07993410509513078,-0.07495779321180596,-0.05818933651880451,-0.05536680669761567,-0.065555410505252,-0.03951643436776969
-0.04688406488985511,-0.030320521071556993,-0.07711116505317951,-0.07286084829040883,-0.044503110750822535,-0.051734493538610524,-0.05354777615257732,-0.020090832247087163
-0.04475127639869182,-0.009295788391382969,-0.06824296244147542,-0.07599838296547529,-0.04032863226385184,-0.058534996357034005,-0.04104947919656305,-0.008333091564948717
-0.04846845837421711,-0.008761116602227939,-0.07056073333823362,-0.08114027903145775,-0.046110717020370805,-0.051760666352378255,-0.056500058637125976,-0.01597002044971263
-0.04761881828479039,-0.007464903150838037,-0.07289991491083388,-0.08974188959059602,-0.04490251445738296,-0.06589957418065788,-0.058926886295114486,-0.036135899299430355
-0.050804524213648866,-0.02079890615955058,-0.08509639927282193,-0.09426399014500872,-0.05563662398963842,-0.0756689104191148,-0.06650705609924255,-0.05456735493962621
-0.05648375175150762,-0.018503037908229197,-0.08311529602967282,-0.09411364606669619,-0.05463688509371513,-0.07118619680854586,-0.0743580253237941,-0.04039200931333854
-0.05619424393787041,0.0037442754210246687,-0.07230323196424754,-0.09552263107854347,-0.04077302087038472,-0.06384883946349407,-0.06127706171565174,-0.031572380482455635
-0.056662635423738075,0.005740310157922581,-0.07200514479633476,-0.09829671821845026,-0.048856153390982385,-0.06926598660842145,-0.07734876830630358,-0.03737683579977927
-0.06150297747522838,-6.279834984149566E-4,-0.07754239565940102,-0.10869244579232783,-0.06257494345622072,-0.07722142802268532,-0.07770958077222158,-0.04390794001141555
-0.0638294972717776,-0.016326548919371835,-0.09056792056760746,-0.10683583913764978,-0.06441082034747017,-0.07166971431540503,-0.08594343313659591,-0.065121603711188
-0.06431005084753394,-0.020139269769468646,-0.08711415770950713,-0.1090705634405269,-0.05117152439957652,-0.07285626607946125,-0.08397277856951664,-0.05145493507534404
-0.0634066639169616,0.005798707925783013,-0.07659469477139523,-0.11014041832059115,-0.04492660564097193,-0.07481961761482381,-0.07662948937294625,-0.038788243382374236
-0.05865521502792075,-3.7405019763758404E-4,-0.0823359171220801,-0.10619914209074147,-0.06142626665929218,-0.07488662858492091,-0.08399724077502856,-0.03382334424062822
-0.0639448524234803,-0.00822606963237041,-0.08735273576616745,-0.11245438653290846,-0.06608387279039507,-0.08939141915291361,-0.09113322151539238,-0.052188809103334156
-0.06715622268388448,-0.028861017250112458,-0.09602169568300113,-0.1189919856332637,-0.06725816637924818,-0.08930216811383997,-0.09147207390837189,-0.07063993984662555
-0.06334525900981601,-0.005502844546969866,-0.08564963960845921,-0.11026008589030141,-0.04757762001913313,-0.07185012650957305,-0.07240863019831568,-0.03590733755660158
-0.06781572799969768,0.004053829493736325,-0.085005226352874,-0.11071796149960916,-0.04504368324905673,-0.08461339308186734,-0.08830856847520596,-0.030118534036053104
-0.0664956886867729,0.010617229017650496,-0.08602806203597657,-0.1193997396163343,-0.05413148919898952,-0.09194614124357767,-0.09483613065485717,-0.048916440627439155
-0.06789615251834531,-0.014793592562283844,-0.09302829058032976,-0.12461384987793907,-0.06883582999775513,-0.09900079658709565,-0.10551640035053526,-0.057591224785939185
-0.06859563397663578,-0.026552610027761006,-0.10194900720317882,-0.12548380903852818,-0.07542178085315661,-0.09680146584667011,-0.10888869502869732,-0.056978027772703596
-0.06721761777970879,0.0020199650383989735,-0.09312806642180536,-0.12408665784833849,-0.05763356835848247,-0.0896054248753765,-0.08789508439039818,-0.022824851067853046
-0.06714867192468857,0.014257032253476569,-0.08261495131678472,-0.13155190589586307,-0.061768392384438,-0.09524861004832083,-0.10175921087357423,-0.030818043119683555
-0.06901444419145576,0.009042509415846887,-0.09140638820044589,-0.1275688165225517,-0.0603290101512174,-0.09941004882457369,-0.10621373832399421,-0.03260008302270591
-0.06622114152526418,-0.0024218727708719785,-0.09862453895376588,-0.13270082305414746,-0.06746557241293337,-0.11202011817901024,-0.1257316074955329,-0.06594979460258737
-0.0672670726241588,-0.022906043308409747,-0.10406188538979706,-0.13516587423008905,-0.08011334569802878,-0.10988265866070063,-0.12456062919054497,-0.07452283108142298
-0.07129545118378425,-7.996341184592767E-4,-0.09641968578476322,-0.1427283283847922,-0.05871157291183432,-0.10284670667915458,-0.10600627991398905,-0.03327455164599565
-0.07070228683457871,0.008736306004841609,-0.09893473230574432,-0.13983244565127104,-0.0580581827889138,-0.11095454081300292,-0.11232205025987077,-0.031262172920033665
-0.07178189609004974,1.7469538353628703E-4,-0.09963274741996493,-0.14352985003692836,-0.06660005047352596,-0.1107822087849145,-0.12224918221604351,-0.05881832473969244
-0.07700822479734497,-0.014956433089880674,-0.1081683176098636,-0.15249077022018495,-0.07561548064443224,-0.11884627581592284,-0.13127619585488476,-0.05967780217195787
-0.08202457312065659,-0.03990118214229537,-0.1196468899450741,-0.15610277136444678,-0.08926129188036087,-0.12639590419467392,-0.14156228645737298,-0.08687095797773091
-0.08240519639075236,-0.05170402130605164,-0.1297223536334071,-0.15827976897677154,-0.07704002822957193,-0.11492559661940815,-0.13477057265835984,-0.08106791889863293
-0.07853731032303403,-0.012417367272309764,-0.1130494712490914,-0.15829867556517144,-0.05778678210829871,-0.11781684280473478,-0.13615064735300134,-0.043124116831414615
-0.07988535145210805,-0.010935247171621223,-0.11172073710995856,-0.15640275040068555,-0.06628000396584549,-0.12142779057202971,-0.13486826030145277,-0.05758399115012286
-0.08037479554610823,-0.018700080596298976,-0.11754609966079986,-0.1655678092287315,-0.0738781959310059,-0.12373033664774755,-0.13918035871296358,-0.0657926913334565
-0.08332401741678941,-0.037719291515921655,-0.1279941923827959,-0.16251459660715195,-0.08481603972982131,-0.12281037632230173,-0.1433353382114035,-0.08470576914837193
-0.08635485933609953,-0.05200039381348698,-0.13404225026348657,-0.16152883789625042,-0.08763136635144231,-0.12687422973035897,-0.15045565181424037,-0.09254747454169816
-0.09509889489812075,-0.05210582380625257,-0.12925851482932263,-0.16260000995261908,-0.08262011506729557,-0.12393507503491454,-0.13055096561059942,-0.07809285635756834
-0.08781930302387361,-0.024570751759469375,-0.12035061121801707,-0.16053173976254978,-0.07246237727237792,-0.11643389865190526,-0.1241995280516031,-0.057118651191455094
-0.09210422467653338,-0.0235395536535466,-0.11731084262029229,-0.1574873714137473,-0.06519619268887869,-0.12165415894780383,-0.12945670613218666,-0.05722811230158673
-0.09015997526170169,-0.0331027935422004,-0.12396780781716969,-0.15826732094685356,-0.07510936357149753,-0.11940248800908351,-0.14045111173621846,-0.07550656041182295
-0.09665792049000739,-0.05569977503470178,-0.13307371521692604,-0.15988964679044498,-0.08544947585915068,-0.12671085212635033,-0.13916237954184205,-0.0835026215019105
-0.08854971160365452,-0.05616393136863805,-0.12917812883286825,-0.16208357059039769,-0.07816971379276137,-0.10597210654058561,-0.13322828979892723,-0.06633055538317043
-0.0852947077019112,-0.017631321115003127,-0.11481886753308751,-0.14891395936918803,-0.07329659741495877,-0.11464840417572206,-0.11146824005633195,-0.0489008346850756
-0.08495207033478094,-0.020935110314342607,-0.11024636473941249,-0.1432157701407519,-0.07223509802019876,-0.11100142575921876,-0.11923038358943532,-0.06388163854255861
-0.08336569611561911,-0.02672890906922896,-0.1146781795757056,-0.14810495266214874,-0.0764495270074385,-0.12155158185949345,-0.13522368621282277,-0.06818653593299712
-0.09170898826801355,-0.05331751475099314,-0.12321356825857532,-0.14974236968184473,-0.08821062743143109,-0.12822511709351794,-0.14165439184842926,-0.08012488610233358
-0.08743099002935889,-0.04660219279094891,-0.11939685419290372,-0.13904788403642218,-0.08081226218986905,-0.11836409169909687,-0.12230574338839066,-0.07716426423000175
-0.07713598117210088,-0.006878400500264014,-0.10151980639637359,-0.14009935869541468,-0.06529580529151466,-0.1030442462396776,-0.1146500020146568,-0.039669342443921375
-0.08018063217627762,-0.012812784161275164,-0.10012834693618815,-0.14142651987569244,-0.06658683918660395,-0.1137522762086263,-0.1330215484349421,-0.051906104852661616
-0.08021019691642452,-0.018518405536112652,-0.10195849638338521,-0.14415974699056752,-0.0784570823875852,-0.11890260446160986,-0.1388653046395289,-0.060534052472929235
-0.08566750461604958,-0.032267608101518144,-0.117195086803951,-0.14084112607868315,-0.0929745496968269,-0.13002908184857095,-0.15376582565826394,-0.08674990689124082
-0.08840199981573478,-0.04951141637027378,-0.11754822169145131,-0.14773435636138868,-0.08663256180385026,-0.12663516745733788,-0.13558677363095845,-0.07971611171423011
-0.0782192908448259,-0.015473768589318532,-0.10001808782487018,-0.13404929160847703,-0.06253203018442027,-0.10557272308222014,-0.12654639588931343,-0.035801188501514175
-0.08099897823153891,-0.004622219749100623,-0.10119343847829743,-0.13672036450942568,-0.07468245769772194,-0.11621051622994907,-0.14135045309685496,-0.050395547059656626
-0.08261598177596045,-0.015017077409961126,-0.1063821347479738,-0.13939278652141882,-0.07971472328015293,-0.12515500166158575,-0.14888802414160487,-0.06045181997579013
-0.08498084147152134,-0.03355926997625917,-0.11278809412849145,-0.13855878400819807,-0.07781303448589817,-0.13675120952553352,-0.1579317653332863,-0.08600344236730542
-0.08691037549911301,-0.053108198889467634,-0.12294963854060492,-0.13615390001416072,-0.09044366369774201,-0.13885990822517538,-0.15449284667580482,-0.09041573411171173
-0.08530504916603042,-0.019392180978763048,-0.11024763370817851,-0.13023094551392017,-0.06590112324271963,-0.11681351859425088,-0.13554309782305712,-0.05069134752649152
-0.08125249217095402,-0.020488399433497343,-0.10604141253943133,-0.14009700639591433,-0.07559192245252197,-0.12246441796327102,-0.14017940806664766,-0.052236386969354336
-0.08241697861770671,-0.0243081136716893,-0.11110977862288388,-0.134074133761834,-0.08646665715914478,-0.1336497816602026,-0.15993572281940147,-0.0574968620468814
-0.0822947947569751,-0.047277538958605904,-0.11692747863703641,-0.14472053477211322,-0.08567892854659856,-0.13941266590923623,-0.16389064762522726,-0.08502234696442292
-0.08849951181322223,-0.059373447749960624,-0.12923067897985205,-0.13998703233646212,-0.10218093665835459,-0.13493835931933465,-0.1577851052035495,-0.09650017568643476
-0.08038832387971125,-0.03738275026515937,-0.12138681315475532,-0.1360184117618999,-0.0861827147358105,-0.12035159120726409,-0.1491494646596026,-0.06868645360013337
-0.0817304205312084,-0.02509875946631209,-0.10572899341984499,-0.13797347842486846,-0.06882882444959366,-0.12820447927581785,-0.14404536490163444,-0.058280492371251325
-0.08271493447565398,-0.02668984322640301,-0.10849627233336005,-0.13815265107599276,-0.07787541636975888,-0.12301619136067897,-0.14337302049713485,-0.06348215004146447
-0.08345853290676515,-0.037601198242460054,-0.11734986201057745,-0.1382110680143952,-0.08853088049341028,-0.13484775792929155,-0.15022002682353652,-0.07727886249076807
-0.08985670817312061,-0.062090210789614776,-0.12575412539176783,-0.1408788093699213,-0.08554868970926904,-0.12691703253281528,-0.15209771620306764,-0.08520419073036713
-0.07809027532138135,-0.0301296869750089,-0.10881904415960812,-0.13055812522704832,-0.07558765338178128,-0.11524739580641176,-0.13405895564638054,-0.0466526305151259
-0.0780818929266652,-0.02465953584493526,-0.10469150229216326,-0.12934122828638087,-0.07194486932921358,-0.12240645411565426,-0.13218537488352636,-0.04855661030138323
-0.08042451927096535,-0.03339351584950166,-0.10556785296600764,-0.1319253862188406,-0.08941729647241886,-0.12569829242238045,-0.13221247755129323,-0.0527813523516352
-0.08387547906989706,-0.04672718707911866,-0.12128483168405282,-0.13425535953706777,-0.07818884076703418,-0.12412994370847925,-0.15053382997543246,-0.07823537357637439
-0.07996692613055228,-0.041015746469144194,-0.1124744413311965,-0.1294433769350066,-0.07894833546409419,-0.11294827123810329,-0.13058972011708625,-0.05646878193316667
-0.078412167683487,-0.014190749733326414,-0.0999583980708785,-0.12829991735176668,-0.07155626652852522,-0.11375988343734987,-0.1304608814671361,-0.03881088906336862
-0.07506941955305853,-0.010299789656462523,-0.09976215603301215,-0.12564702759637433,-0.07535267120344791,-0.11636947584671951,-0.127258803531067,-0.04813317628417976
-0.07974678558123958,-0.027490212490239408,-0.10629874833402227,-0.13044185213517975,-0.08061610325336789,-0.12076241680220058,-0.1380416816151273,-0.06409863094257186
-0.08407404104128591,-0.040508487963829595,-0.11673679418061622,-0.13160161578532156,-0.08144780390362949,-0.11610359601174601,-0.14218652424785355,-0.07576040139819235
-0.07753639161512171,-0.013090772834835292,-0.10224090799628395,-0.13277862532981738,-0.06982182486685898,-0.11676636325998514,-0.13087881526591594,-0.04255205612579148
-0.07162848862882171,-0.006737231062604983,-0.09934056916366306,-0.1363143341274493,-0.07780365039621909,-0.11868573983782371,-0.1409387852329502,-0.045122531992558265
-0.07609279911243802,-0.007693933457701202,-0.10292469913772828,-0.13814234203242856,-0.08507561308283815,-0.12605517784301187,-0.14641104024143314,-0.061433987299361996
-0.07639114132780692,-0.024746914595529624,-0.10808639690900051,-0.13723868660995397,-0.08136396489726612,-0.12637407287252883,-0.15140693055568438,-0.07397051255803597
-0.07773162773605784,-0.031409809898376634,-0.11135252419896809,-0.13696741702325022,-0.08095614700782165,-0.12616302582388242,-0.14550805868185215,-0.06635441002079318
-0.07194725606429346,-0.00578359132496701,-0.09883775861464647,-0.13700811737117516,-0.07007966843344603,-0.1097291213216213,-0.13077451577265983,-0.03840846658262788
-0.07493627031696447,-0.004392097502580865,-0.10740356536506865,-0.1414608508476097,-0.0786475653115614,-0.1242486019563457,-0.13576148840428495,-0.052058857375416365
-0.0772666558984506,-0.0057554026737831054,-0.10420494847117236,-0.1445837973791934,-0.0737528082140548,-0.13597131622093328,-0.1537126443132695,-0.0660330575875584
-0.08050721510599017,-0.02935040093848609,-0.11289429519511425,-0.142964893163982,-0.08616363795878391,-0.13557013668641588,-0.1593468079750986,-0.07119669269274954
-0.08832724203676838,-0.035918137521635404,-0.11808687845039556,-0.1514021160433572,-0.0794397236469259,-0.13142542421049638,-0.134690364354772,-0.07144455699630825
-0.08430858539490244,-0.004811284061887015,-0.10266576929562299,-0.14740666361913307,-0.0718229682750014,-0.11036256356450008,-0.12338757568741057,-0.036835581107589326
-0.08144769331975867,0.0016033521557438934,-0.10272177978195021,-0.15647757451625882,-0.07021443638584615,-0.11981471377145883,-0.12753941088219087,-0.0560675509811318
-0.08798084664448337,5.11655099500682E-4,-0.10537500828439543,-0.15697804312150043,-0.07113603852429556,-0.12138353900508245,-0.12023217114390304,-0.07154309451028973
-0.09613393982862121,-0.01679606531589273,-0.11410248946676502,-0.16111657280294267,-0.07604487033427086,-0.12356199913544931,-0.1344508337877661,-0.08728602488740543
