0.06660511367315958,0.2024259028619054,0.08993286235693707,0.06815155715998142,0.06034080514845555,0.07848445330982473,0.06749970611100607,0.2268538742420582
0.16489316856474268,0.18429047048280345,0.2177336274482973,0.24280565628335232,0.22792667315599655,0.24178263899047955,0.23954032206456302,0.30618646393916743
0.15965399262803673,0.19370360661842395,0.23482876464159771,0.23779352193849776,0.2545821009003285,0.20355158779710558,0.22267737071909166,0.23036004720936176
0.16068544389785458,0.18073005341292728,0.20868979124282708,0.22387621375374395,0.19452227673394168,0.19092241158329495,0.18972106462889007,0.24560341818922432
0.12184345472279914,0.16570892606097404,0.13441393300276694,0.1507569139643491,0.12362799964686938,0.09543780649592633,0.09971822851928441,0.218235150420736
0.08210258657458024,0.1818439595403816,0.10092618056915748,0.07315232597427303,0.04105226276177805,0.004097454333190026,0.0280153574653239,0.17813436861556575
0.11037802318752925,0.17200090640282445,0.15230077344883133,0.15647046295321101,0.14068954800441844,0.1538501597285034,0.14517992163088764,0.19316722279830434
0.1907356178052877,0.16699075294316876,0.24893900427543603,0.29273631705010644,0.24931824423586166,0.2683548011014975,0.2547194093982185,0.24178565599190022
0.18706467756629855,0.16791220891806713,0.24433460183072964,0.2786238673718146,0.22022644690451312,0.24729015655304443,0.24802526948163794,0.25184572446397163
0.1674114798608711,0.19395664884598296,0.20751005119286028,0.22558488097906396,0.17997390958318443,0.18548544888408094,0.18929062513248662,0.2552610894593989
0.10323735662490023,0.16332384358657473,0.13961694936206032,0.1434900957118034,0.10173286424121698,0.08349543473076527,0.08506420463149635,0.2222217168045538
0.05094396050738904,0.15883412188825685,0.05187662306937175,0.05733432635935076,0.02577185005574459,0.011787657257925218,0.020680662271041733,0.17573357268755121
0.0516403368328873,0.15164025400462527,0.07414215215896734,0.06517862103422782,0.06234395518364733,0.04299744311980688,0.048015210855741945,0.171032595797396
0.16112063555517733,0.16253558090652304,0.21395048117823348,0.23969984310792763,0.224237019785454,0.2735063931400483,0.25588748375267073,0.27249738544716867
0.17571265599814498,0.16775679633822974,0.22965095145933279,0.2417013453704212,0.22374100932072802,0.24195035486309113,0.24379942600765447,0.26107253440214845
0.15382898129810102,0.17716408042103873,0.20466783356244442,0.21598457564487425,0.1770467346957493,0.1993911001785395,0.19725858157289802,0.28527807103523295
0.10211446358957942,0.16049734231064208,0.1208178826949631,0.1401222673900605,0.10545415643117416,0.10316471077034614,0.08903466304813862,0.19498308210162035
0.050074652709838643,0.17435205561193257,0.05747668135170053,0.051360572452788765,0.006465633131562208,-4.0130414908142733E-4,0.018014184839629285,0.18646127750154048
0.010899734371166085,0.15573781032361636,0.026104270000821744,-1.3202894105361973E-4,-0.015489698424567303,-0.017041080044444164,-0.012862598311918418,0.13992076458926028
0.12839872723645138,0.13767660031921666,0.17078901350195955,0.1923542380723917,0.17779059609276668,0.18635072550414644,0.18947540836172885,0.24529694767920085
0.1523975957641063,0.18937024574179911,0.18670773193046197,0.1996448178756599,0.17649448594809405,0.19320388802195393,0.19325596152188038,0.19857340140380705
0.13885816110827576,0.167498457026182,0.17992040771185783,0.17593482973349134,0.17691015299955343,0.16518592238819768,0.1544393924961115,0.19175625623323267
0.08452120999693832,0.17152732941746843,0.11976053417606765,0.11416578511770425,0.08430688455523493,0.0797066975672026,0.0747709152961905,0.2149396331179826
0.04690366036365893,0.15790026317292044,0.053888423228681336,0.050520050268450925,0.045741352067893905,0.002557507023385422,0.01398291161434121,0.1300397925193212
0.14687218061384813,0.15829503301772982,0.1867561311092905,0.21411723831816565,0.2075832361042309,0.21750797038588726,0.23640673759229927,0.2828489931636061
0.15140247670983387,0.18478087725330092,0.2089003973010553,0.23366706683080776,0.21866380716798509,0.24942611565766928,0.21416878921837448,0.2670754923271434
0.16301000715154967,0.1906401189154662,0.19318263792871954,0.21909179115855057,0.226191529209832,0.19933201364297104,0.19961309653470502,0.23103019483863632
0.11918497995214597,0.1793343745797699,0.14462901265707323,0.1539185412496253,0.1312002680419405,0.11639170226576125,0.13839305578527597,0.23191036299710582
0.06696381402735126,0.161319583443639,0.07748698320591757,0.06658376924740528,0.054959013243304995,0.05630884332823689,0.03241522160938295,0.23486118195745312
0.1133367560022016,0.176441463880918,0.14256109612893617,0.14607341497078397,0.19365290760332424,0.1939168709719473,0.19177839433369784,0.21827425550268417
0.19658739888755442,0.17675317122663417,0.2412248237395068,0.2759168184224783,0.2773302067996433,0.3199333897650985,0.3155795138650349,0.2978287205062561
0.18612859125451553,0.19687475565017226,0.25170091260573,0.26133684324487166,0.27929181107538437,0.28362639725006766,0.2750996056537011,0.31971880501404315
0.15744067227588412,0.18686594816531368,0.2095918046356204,0.22044462056487524,0.21472935047068487,0.20836928690429382,0.20261899411475126,0.2966973081616385
0.10684757501306243,0.18755018721400027,0.1411079209521674,0.13408375606496756,0.13160175034561686,0.12274138953235736,0.14246616268944126,0.26129568261084946
0.0862610103622086,0.18008314214282392,0.10225812211900644,0.10353351221402465,0.1084000918832798,0.10953706077830062,0.09874280454901704,0.23166570542862694
0.18832847206680603,0.19510253003101796,0.2469877890546481,0.2665498951177435,0.3141480961024874,0.3193390822730227,0.34012103541458993,0.32557020315348845
0.21380875410772635,0.2029193905882057,0.27303684557794083,0.29663777938346536,0.2812577190324334,0.3313969698171857,0.32267232082992797,0.33232897675425865
0.19736892754652657,0.1873434077261468,0.25889885483864356,0.2820846831771334,0.248037344833667,0.28737877768004066,0.28542060959066395,0.31340348310997346
0.15780092405642768,0.17695518517412026,0.2051536030702383,0.21849483457364738,0.19623541368335096,0.202002501905213,0.19376921767624083,0.2519395533538318
0.11372147193847297,0.19541523524063806,0.142852131727539,0.14167810049842922,0.1355595817384218,0.13149830752717334,0.1392565674988121,0.23242937776556832
0.1850087737101342,0.17539317067933555,0.2365164932327727,0.2589882880531661,0.2806192085501836,0.32733927185595557,0.34009208855381395,0.32191562835415155
0.2068874271578827,0.20391211598630724,0.2748097355350989,0.3160744213923431,0.3240633310576286,0.3384387459132659,0.35233736799311843,0.33620331703632816
0.2196813886803554,0.18397982266842855,0.27283205742461825,0.29331302928355735,0.30311885301279556,0.3511402897050583,0.3460853506874642,0.36269692860155234
0.16981289093285418,0.15628876941672748,0.2233693371286316,0.2639424603290084,0.26286618626599556,0.25860264848475795,0.27294097523206484,0.31709496070762294
0.12496312078194038,0.1613167306337474,0.1592411933303607,0.18148665731398472,0.18169015923093532,0.204927034951659,0.1977319304771054,0.2878358300852371
0.12122972074994298,0.16983327332101272,0.14835589294279525,0.18220539126963517,0.2259380461040089,0.23073416562851742,0.2445255768990406,0.28630277744179783
0.22606335993689905,0.15063496402234205,0.29254013708499277,0.34804220170529304,0.36094314971990127,0.4524102142523539,0.43684309102444663,0.3747723490045655
0.22872765855869404,0.1907142009156974,0.3029774147071065,0.36717670324369994,0.3736307794251428,0.41372857065620033,0.41180660661848395,0.3943890822646949
0.2215136539999522,0.19217121173562385,0.28799507072457076,0.3312471704855933,0.3425293191662042,0.38164286293893496,0.38623132509282065,0.35530679498745815
0.18240030083481704,0.16487524972611498,0.23013425414226119,0.28165497772151343,0.2754117486262065,0.3134185122518878,0.2946177510728911,0.33345405671527234
0.13539026133184193,0.18008613701608997,0.15733418362606122,0.18813855576397218,0.18608761969654145,0.2175768657237062,0.24701080619907312,0.323243792227154
0.12849201111783587,0.12440816846373126,0.15810683899525715,0.1888692798597684,0.2357589378634382,0.2558780836196303,0.2806445656764304,0.3679160028665872
0.2136689709511275,0.1241180104411979,0.2786518084828177,0.34265555544477755,0.39793538487398933,0.4718624760661253,0.4260300567147296,0.46211217027247237
0.20987648329085093,0.12234845475562553,0.28681523376219314,0.34695903863387273,0.38444726369405435,0.4448546584914466,0.45044811222558784,0.46094017678205196
0.20381428937086674,0.1231534449185493,0.2656429243293379,0.2979549707101575,0.36542000813323217,0.38696299772438564,0.39015466435068974,0.41076702262409076
0.1733868937018835,0.1431190830355593,0.20469705045115405,0.2373242207650485,0.25574082338322895,0.2857339114705421,0.30517130192425,0.33644040245860213
0.1060550423386517,0.12646201762722475,0.1362806180029391,0.18799194384726842,0.21070599321448968,0.21164421099298591,0.225100253150125,0.297243409102467
0.12432513425802769,0.12085112967560505,0.17523558720308285,0.21373317007895942,0.24104400438698456,0.2773691249471772,0.32029242058142215,0.30085219604253666
0.1849514026546415,0.11493489478351561,0.27243686548095025,0.3173690407926636,0.328836116098972,0.4137552448629783,0.40067607474364775,0.35882943980771426
0.17725163232080943,0.11710943463557914,0.258977057121497,0.3010145388453493,0.33250411361716214,0.3818717309243235,0.38585448062856337,0.3350118329763984
0.15321223808898943,0.12827761504222454,0.2158607975712845,0.2622693470734014,0.2720454765841446,0.3238565770420059,0.33145726380523105,0.3557460494580105
0.0985389460291848,0.14019515200059032,0.1442313013401931,0.18688444889022413,0.1686434450401824,0.22074607106757144,0.25695046320253323,0.328077923265422
0.06187176754016863,0.14511798058235378,0.088158439621921,0.10000999417413746,0.1234923921862828,0.1362880244444139,0.170568539904941,0.29800048888705954
0.07561337766465386,0.13926847902367687,0.11629544548017486,0.13876115000378458,0.19999683852561723,0.22710507631245577,0.23410800838369897,0.2865578589318324
0.15741357680698043,0.11377494594674367,0.2541456230518736,0.2931811333703625,0.3322400556949608,0.38474441661275477,0.3834034301738197,0.36065276654180917
0.16926269945381936,0.13895409489551147,0.2340091138035751,0.2786178073376628,0.3174926252912403,0.34121987215853883,0.3644016828273041,0.3953374406294076
0.14801135807841095,0.14053351774699396,0.20777445146649992,0.25098410233832247,0.25905407473231035,0.3085409021725305,0.30303219625328065,0.36018169717191173
0.07851812100496727,0.12377189126274123,0.1294118962539703,0.17297900784417913,0.17659244503545887,0.19697145554204384,0.21935636526373337,0.28750799701314383
0.044152828935537874,0.13023619141300877,0.06896523939500447,0.0909102284735248,0.10831326006493977,0.11136510727103587,0.12209561428586287,0.2512827627200424
0.029564196773195047,0.12104315709674728,0.0633356624017969,0.06829585020201565,0.1015539551092739,0.11696036477546001,0.1486405458412341,0.25442654174446533
0.13087703579691842,0.12802722845665004,0.2007843636420704,0.23830367681613543,0.2874135446811947,0.3334496348101309,0.33105072467458635,0.3112774862267296
0.1324028160390872,0.11625552043975229,0.20946735400686,0.2300908892438415,0.25562944208142707,0.2928597001057544,0.300875862211151,0.33693300646512747
0.12723631273995878,0.12992905432034726,0.17387156267527498,0.20862694766566892,0.21426276117464874,0.2616420410151656,0.27414624757604883,0.27107293908195046
0.06485343234777644,0.12775023113333303,0.09257962382184631,0.1372992382721306,0.12735166584913632,0.14476845370225527,0.14706201518648407,0.2683745128040705
0.019954614892631624,0.1319917480692167,0.05084872420709123,0.052702948935284336,0.041812206580260455,0.05624405783697018,0.06059084844342921,0.16817721950234044
0.007017160223537027,0.12285723701211697,0.014237570107007942,0.004447530987709834,0.042603885493012944,0.01759916489070402,0.05656212641144628,0.1711608396883145
0.10539788819161117,0.10557498119908951,0.16464721576929597,0.17675301627951126,0.21025287321846575,0.2282159002609545,0.24995933968564063,0.2778775163468185
0.10363703750411726,0.10775025023398987,0.14418531064457205,0.16775757753146775,0.19703156734191132,0.19316659387031732,0.21326446583823871,0.2561420218629741
0.09462884512114002,0.10286148773328219,0.1350487670474258,0.13384140071362757,0.1407753331957151,0.1574585843390495,0.16738590285221028,0.2651670204906005
0.0386413803425376,0.12307864386363039,0.04165167911723316,0.03909634562269875,0.0669985905562602,0.06266671256470936,0.061996648751296866,0.21576890028679455
-0.01041660057499775,0.11381357326167788,-0.0163085278656667,-0.024008744343136913,-0.01385523479149229,-0.03408655470470335,-0.02591643566615298,0.18359549912712997
0.06858433655231798,0.09835938970170363,0.10333149787298986,0.11306674582142026,0.1581661082420636,0.1900978875086672,0.18799360386672026,0.2385867518873575
0.11995017747399864,0.12389445380718027,0.17591893928497204,0.17963810805571281,0.21290973942160524,0.2125590898566137,0.21606858616506053,0.28968266839335993
0.11251797712010438,0.14500477420288857,0.14870834904906952,0.15603065923214401,0.17782478499721496,0.17288077775699215,0.1709775826317104,0.2825859690996655
0.08357590592975041,0.14278652772232672,0.10145249537503517,0.08475776550307365,0.12521965628951826,0.11294485866346067,0.0791537064363273,0.2628096961246224
0.03168628549645552,0.11316826745554093,0.03555033239418442,0.010828447419759605,0.040635270651658784,-0.02731002500383323,-0.020872183672428303,0.2186824478060869
0.006245989956307195,0.13712585157151477,0.011456268603103031,-0.03197481366806984,0.052238830393011464,-0.0026377173826246255,0.0026004439039272477,0.23049330979428384
0.1182093970780905,0.14397526869423977,0.17093922903967884,0.15087821352804529,0.23649529570149408,0.22409803986896773,0.21075079376823866,0.3893979931209406
0.11042176213913213,0.13437251231802239,0.16599522059240968,0.16279839911949084,0.19606819886230673,0.18876329928671143,0.164690557467639,0.31931871101669035
0.11668406170527361,0.14414504049092722,0.1388620897383303,0.13913489734390178,0.1653058482741648,0.14077476531160524,0.13904796526106417,0.29675921236934466
0.06880420794639552,0.14290066634084994,0.07715074063944005,0.06308981929913356,0.1068429923104686,0.05704494196947305,0.02508478155236246,0.24658952773099488
0.021769167145878135,0.16921164070925587,0.0016668983236453846,-0.03514639893988914,0.008394701980745904,-0.03728273284367464,-0.030040967246318013,0.18843207524143443
0.07953935509404399,0.14431422294244226,0.0863842146145128,0.06413136841542351,0.1455454768117344,0.08740222693106536,0.10973116565422085,0.26344576096786154
0.12608253941916983,0.15860007830476938,0.1664867829069258,0.16136283711603788,0.2120432646284701,0.17582217995909138,0.17226932592532074,0.3144601799630738
0.12463330141663527,0.14265787652876444,0.1644759088727431,0.15336681669283656,0.20028097277315046,0.16854188211289312,0.14118077254664282,0.2767327179569073
0.09571320144975431,0.1478448483942675,0.1148333822253779,0.11305582642982089,0.13386596755912644,0.08010789805598761,0.07676339337255236,0.24609398485726167
0.06229929099855222,0.1644758197624443,0.05556029355769658,0.03894296585024887,0.06953598976338811,0.008836702033043493,0.00807196116532176,0.22223616017608191
0.09550873154537709,0.14750112073530955,0.11988370066750151,0.12034818458325539,0.1606269279881709,0.14117492779036922,0.14718377541651642,0.31940301644980307
0.14073537164457467,0.1549736986973856,0.17745697558338447,0.18941673774589288,0.22815577708774737,0.20161664688598027,0.19059949618370314,0.2961234708870291
0.13935058580570645,0.14800179970720476,0.16420544414364463,0.16289140416469483,0.21147173351982732,0.19309702067259427,0.1615796255409088,0.356031364056778
0.10635127099779076,0.16583944413990967,0.13022990277038227,0.10904499949647876,0.15206049432521582,0.12402433391127293,0.10602835951075114,0.33227418231552447
0.08230795993716877,0.1485547521619502,0.06433318295920042,0.04861994643307991,0.09495357297950974,0.03895213643728555,0.039860762970108446,0.28328197913887143
0.16833134910439695,0.1468796859259528,0.17729835446266293,0.19580624873258268,0.26368513626130596,0.24947413993796128,0.2554661754654004,0.41449924599152976
0.18085458166015814,0.16764455705191078,0.24795718913969214,0.24630467619667692,0.33024367466201576,0.2982799423029624,0.29082830124751996,0.3739628868321775
0.18768420383712425,0.14917336013479768,0.2336150627565472,0.2358281629844349,0.2902755154039084,0.2773225726082784,0.28274402312810853,0.4004531184615972
0.16537549077037866,0.16421149309876282,0.20144240808488054,0.19677467769746443,0.2502031770789901,0.21191318039421136,0.2100406908040175,0.396778624997959
0.11743058962839768,0.15956569298745799,0.13485076809501978,0.13586269596982503,0.19838810205307533,0.1411617597483342,0.1759840796815764,0.37515825624393995
0.18952624229914364,0.1656640759261956,0.22889109362427118,0.25748313860279093,0.34925094939192247,0.3305390457638531,0.3411216957096677,0.45988555448498614
0.22109891277451607,0.17010395259648056,0.28723350251895274,0.2949075995135019,0.3799917321164634,0.3986411992543722,0.34969139474911204,0.4566424614975981
0.2175981665074879,0.1709663311720142,0.2879547807361934,0.3012672195216998,0.351089774638367,0.34694600569724604,0.3584288946472574,0.47350986438039444
0.1847754763467607,0.1853627576210109,0.22450519076269945,0.2502325273313051,0.3263346131653325,0.2817499535081998,0.27715141946895383,0.4200678574057458
0.1417441640320729,0.14455158503377497,0.17768374057278125,0.1863691115003165,0.23755514549898982,0.2305194333141824,0.23270576806449328,0.36813052641394195
0.10408832532499658,0.15604604980809317,0.1269160910227385,0.1571254782751936,0.20860349027023284,0.18401876374197804,0.17574391422718894,0.3229442325712278
0.19032723324475684,0.1243116957617403,0.25591586522871784,0.3104090138485959,0.3358010059308209,0.37033265159989576,0.36300880317413814,0.42013314669340107
0.2020452619211807,0.13204447960841212,0.2764990183916757,0.30395769695827135,0.3348434771264198,0.3565844995192982,0.3402761044668448,0.39543122913769563
0.18743290291225126,0.12501014156629908,0.24319520384654397,0.28315941330714617,0.2950143542219446,0.30516939484640243,0.29542303611197723,0.3448123038032827
0.1491100796809074,0.11273465804997398,0.19481696676013918,0.22531364846800592,0.21844238433406196,0.22746311165174934,0.233535979783458,0.34924384481388815
0.11745550556374261,0.09275179121041015,0.14723946582430417,0.19030492840382962,0.20809086457633652,0.1806968191785928,0.18464719808931984,0.2954478144269252
0.18480671060993611,0.08083036180632608,0.2561374155223838,0.30399940678588794,0.31898066346261417,0.37596614111589766,0.37992920525026896,0.38706788884700283
0.20226500281109566,0.07954236316793026,0.2779745430790964,0.3424424369861984,0.33585217194017114,0.36971535215069207,0.39555794403617306,0.38067938176267585
0.19860028689101888,0.07417118249144432,0.2671293624494604,0.32682675561291913,0.3069445798687727,0.3539722310152824,0.3287568171751368,0.34896277952972804
0.1575830623592929,0.07893230681641777,0.21101157917628713,0.2509165216423693,0.2440870721171034,0.29032069172371555,0.26489857264486444,0.3166393099750482
0.11314120353394914,0.071686362912376,0.15762075835184566,0.19290677005886062,0.16362480661154916,0.18390155628879973,0.19891853541287882,0.29093536156116256
0.1423872313606949,0.0826612861976535,0.1998978825930167,0.2592481789845878,0.2734252689590508,0.31003927595188124,0.33495716552937493,0.37666662421635894
0.19223108413915832,0.08164409647647271,0.28302565026206156,0.3372412403080685,0.3767680143350349,0.4379928473985669,0.4139743462269945,0.44252166214633626
0.17452704293318633,0.05732215052093324,0.25824481988076353,0.339309673555591,0.3305898002055881,0.38544399286095127,0.3876729221892226,0.37049904805124156
0.15531959829163827,0.08618624863698286,0.23231074468160004,0.3117028328380346,0.25843464106060887,0.3144190494516758,0.3103618158945685,0.3004980619226942
0.11384455417212544,0.09178650599671352,0.17930770842279734,0.22576297608705093,0.216604334675417,0.22098732612093805,0.24475811561508,0.2685766761898141
0.0708419484128821,0.06534658781262585,0.10834692537147227,0.14116611500541879,0.12876770510240873,0.1493963274657343,0.13245454275619808,0.21741257907168787
0.1315871010172599,0.05902845766233721,0.19523465443241578,0.27724642352846435,0.2717563498616755,0.32863312080565776,0.30936993541842517,0.32861185079017496
0.15910172006345122,0.06847490560625381,0.24941680634741162,0.32036662528137705,0.2950263279822419,0.36094732022563575,0.36974788415836557,0.2986763895278165
0.14874642196816584,0.07165895726621964,0.24738239485679414,0.2897501528173265,0.2645761570249514,0.3169919452052764,0.31834655762155645,0.2785032474640732
0.10555633839411,0.0333100254017517,0.1836695253233337,0.23129026573796413,0.2112222607844707,0.2271090340070284,0.23273452819770604,0.3164783773816319
0.06401636708653986,0.03417815165603116,0.11778637889606587,0.16551918336779817,0.12975521538992338,0.1486728904462729,0.15980225764303194,0.26806317152058207
0.08632599139590055,0.05840889108652272,0.14450048451039185,0.17947059370629384,0.15353880258838173,0.22097969284556532,0.21302497539405407,0.258500552879343
0.13630183183855013,0.03757593292832631,0.23180914641992226,0.2807324472899793,0.28401611951732686,0.3115295159093391,0.30606874482752733,0.29711648404983804
0.12805917934226174,0.010033947890732978,0.2020698450263934,0.2374390702354594,0.24053358868890082,0.26922114308547257,0.2661339269427945,0.3023959594562533
0.10088361299321626,0.04116585453614999,0.15319971279164238,0.21237437519133967,0.16230456413621924,0.20525715144586917,0.2012917854812132,0.2638426103658016
0.055638157373111216,0.048998272385834374,0.08929833654006777,0.12783294658513958,0.10000365535912557,0.10716674652097047,0.10316483179936205,0.21511776121836296
0.08378377276918489,0.02892596303538045,0.14357236578670454,0.18648387429112923,0.2016191585953358,0.2139714017767491,0.22364739913181883,0.2803077281955127
0.13066348641094522,0.011344031983634614,0.22739240940821162,0.29238314407613436,0.25443781277376565,0.328248563654529,0.31477309994022323,0.3070896988903572
0.1165667879087866,0.00954769954799403,0.20467575714014982,0.25812345894386046,0.23983794880097006,0.2699787372140194,0.23404767016943528,0.31053503288077977
0.09411021116510428,0.014571674054666832,0.1527884684869821,0.2062652817477117,0.18213291812073867,0.15446428216973884,0.15103529723426382,0.26479831370938156
0.03245165746590421,0.025583297137031127,0.0834365156923681,0.09552345868933622,0.08232770820263516,0.05669103962982186,0.04460104624579417,0.1485670737781132
0.06267417123144448,0.00666933419000041,0.1054655808492732,0.13126520992511073,0.11320885138170264,0.14432887777362371,0.12300928622482933,0.21896185282845035
0.12962267165766544,-0.004068075904791963,0.2053467601463068,0.2582813459232827,0.23642615521455854,0.253355709452862,0.24964527911152581,0.3033077955637089
0.11889206930751782,0.011737210113812376,0.19468175882705907,0.2247219771127924,0.18702340897369932,0.197530510727488,0.1682843623103278,0.26046327968474203
0.08615773126498438,0.0020211519010257415,0.12487787138531058,0.16144370350251303,0.13919098878973726,0.09295477767494968,0.10442488109026064,0.22766466715156014
0.01555548064108017,0.03665171238910463,0.04619283976230593,0.0706887638970251,0.05139849399099435,0.017284676229974167,0.0035758356384949855,0.21524087510750717
0.08500187320458673,0.02937789177510437,0.1501408070297338,0.19420091847719773,0.17822148666069482,0.22367330042124098,0.19723472544481832,0.3085792563825934
0.13533266393686882,0.02122706487398019,0.2110862836219704,0.2556609730197264,0.18944313819965192,0.2410089221414829,0.19676913296497514,0.2528043464425873
0.11197456551490001,0.03651051043016454,0.17970366710400895,0.20900518733122653,0.16679540565867065,0.18520057979816143,0.1579989892535785,0.2507773428112932
0.07191870020835385,0.05265747066852284,0.09627749181296434,0.13750117962934416,0.09039275551378062,0.05142792391392861,0.04657818644856142,0.19948812214545075
0.013338672159856482,0.03514339865479773,0.02430407522626395,0.035958884200194434,0.018321019121128917,-0.050380344527346306,-0.03399539039236793,0.1414603136150376
0.10693559608299266,0.051414959956570465,0.17208828662432377,0.2101122833222287,0.20553568724072427,0.20568205957357108,0.17980707721416492,0.2551436160239843
0.1223683846351213,0.04484877299155534,0.19438497516173434,0.24201008671092453,0.18189158394243923,0.21845006095409425,0.17143684482449278,0.23667726083632104
0.09566828023335203,0.01626372156567207,0.14627505270332056,0.1802313534008338,0.13814179282558925,0.1361264903054707,0.09308764395768893,0.26481829474314234
0.039447449782457414,0.025920052604004977,0.06309700861728444,0.08081234753790559,0.026531241938232725,0.014437679081037231,-0.03906839319760067,0.23032720177730168
-0.03230510518105496,0.0022452596120554865,-0.01874689076432046,-0.0086089362178563,-0.020842254484141922,-0.060176798013398876,-0.06719577815802265,0.14092147819402145
0.08602294514170936,0.004850629157622805,0.13330332512814377,0.18449310258206045,0.17203695087895998,0.15251594493966575,0.15525322536525543,0.19806750951114882
0.0933065787463465,0.03333046828492425,0.1297608037959287,0.14672344358344705,0.09499187929311173,0.08570055362872617,0.09710705276479802,0.17958719393236094
0.05246680934809773,0.022461097619913474,0.07498059883682903,0.09362317834340483,0.05146997682169112,0.040889668104054304,0.01164182927175689,0.16749112723432785
-0.0240058130472924,0.023433510001919733,0.01008747985164755,-4.1145501245760024E-4,-0.04438987424093681,-0.06921301747918332,-0.0778219707922846,0.103454511325491
-0.015590487575813475,0.006798800739666224,0.00336570140623703,0.020914511567298604,-0.004697492193434171,-0.01479763980913779,-0.01853362719619142,0.1541155837397832
0.07444411242270531,2.538281466924371E-4,0.11687404822536596,0.15267029189861536,0.12230461961781716,0.11455483595952809,0.12541153400038255,0.20188811737830173
0.03528135051981929,-0.013164286631045977,0.08816619037742932,0.08902080291321694,0.07892788018552953,0.04661288090010812,0.015795271577959322,0.13103867565948865
-0.018483152093380036,0.0159220213275225,0.02287329919920271,0.019714065417316906,-0.01947849055391612,-0.05619133159317935,-0.06278612872111101,0.12372554494868535
-0.07881537614767757,0.017055088565317587,-0.06968798812242324,-0.08513543018709233,-0.10177846079719013,-0.1460055227924629,-0.13354336927650293,0.06826429822765603
0.03288528390240079,0.016656938194800606,0.07454969075369137,0.09504156658407806,0.11793403882602639,0.10860104508041725,0.1062689797545629,0.21744939929666038
0.06498493270124521,0.0024106392123618646,0.11100776097073536,0.13993770214521242,0.11590142585858244,0.1211448262071809,0.11227556264911188,0.18767869678481167
0.04021858753138801,-0.008689874256071348,0.06718014946699179,0.09181550751919246,0.06406757322291004,0.018982857983465256,0.015724423569145884,0.10775539941816488
-0.02075145223318704,0.01186571995168213,-0.019054009276234903,-0.00855098642745249,-0.018998154779390392,-0.08580206316333988,-0.07853950691000888,0.09356336890508632
-0.035446409691486276,0.005914703032606282,-0.021648804680796534,-0.003923370100555108,0.011989671053537225,-0.01924478322948232,-0.0492127887586955,0.13693875309423253
0.07378853083488691,0.0110844166561422,0.12251929342136014,0.1609900137180713,0.1230369517138893,0.1729041153183207,0.13385063010964174,0.23032974259507355
0.05068923447583289,-0.025887925235896045,0.08872752921198068,0.12159187677780493,0.0805504233483078,0.09261251852038396,0.07566485399093466,0.15327480470675536
0.031976401163765975,0.011336747668450333,0.06103968128316421,0.05958118972023024,0.037356434505597114,0.03468299512236377,0.015692546447836315,0.1411412952303436
-0.039565137433599455,-0.00756238902365859,-0.022855356897686033,-0.03351960828949336,-0.05381945733581685,-0.07053617047631433,-0.06359453979044054,0.10897796858505308
0.05215594665762173,0.008444055495276883,0.09864405105550868,0.13010118154791006,0.12756006332718892,0.13416231922806907,0.14799499663182583,0.1304734513102727
0.0692434453039039,-0.020883283108780463,0.1071325296658461,0.14678301324590562,0.14159632066203526,0.14600020019759918,0.1505306653759482,0.17240659140407325
0.04822010839035387,-0.03551465313948317,0.09014739797680446,0.12021257518047604,0.08756514931442647,0.10893639870381774,0.09068623899402978,0.18107973116106024
-0.01640749478862177,-0.06763015262049656,-0.006975895253073,0.038400357654710775,0.002562636659673202,0.020228201427515153,-0.0011422239650588362,0.19817105522178385
0.0072946461314820224,-0.09389308825862805,0.028958587261485952,0.08690103646646556,0.09924642252074989,0.09111724994274568,0.11815616143127936,0.2663337407961776
0.07803379891144123,-0.09416535125572517,0.13079630041448093,0.18561272621687971,0.1802805359995252,0.19668410202112105,0.18874875893278803,0.2654427242238238
0.06401008837224509,-0.08710451584155646,0.09731031272760467,0.14572434793814923,0.12272290275891355,0.15599610052613988,0.1356428366404783,0.3022684433078476
0.012601176051806377,-0.033603065360082805,0.048635144298010136,0.07280318112004719,0.04766609582616567,0.06188065995133847,0.06953387018626418,0.21306797234803365
-0.003826430327227418,-0.04794351539981923,0.010321398426888981,0.053701786304334524,0.04384288119224597,0.05894005873469226,0.05959448200421141,0.20234030038230363
0.08264308031086522,-0.02968543855305092,0.13680797881106826,0.19418898671804044,0.1846854587073923,0.21558221708127107,0.20619147624213666,0.26651402224501647
0.06646013574231523,-0.04232799955915834,0.11229075515696647,0.1611498450897386,0.11814205138289585,0.14205930444277987,0.1435381125351705,0.2248928778190179
0.037608411739419624,-0.02555294613703281,0.06728473745397553,0.10269023617990189,0.05766726275070881,0.0795822192206604,0.08676004348764602,0.1920654641868419
8.673899103269489E-4,-0.042600702865690745,0.04359578498524799,0.07302590578066763,0.04981281245099192,0.058935323331495065,0.06556813999868687,0.18131028819654366
0.09468146181045507,-0.01977608247799264,0.1529413604150744,0.2279288758265458,0.19020388165899413,0.23325674042584016,0.25218697470505985,0.22328624077842255
0.08039908587620961,-0.0328714266903748,0.14163528035842254,0.20485604899997334,0.16082984544270829,0.1947816878818029,0.18748411465046902,0.22606336053101014
0.06019149726026871,-0.036545171461583245,0.09484096956090779,0.14431384879479275,0.09575669255520915,0.1350230852243453,0.13028281938022623,0.16936625433751068
0.028309843698920208,-0.0333122181010409,0.08035474362438587,0.12093775125309955,0.09530143310466134,0.12661764414944465,0.14074654406741494,0.23340534619201345
0.12410153093043856,-0.049160954838307055,0.19733479099242363,0.2716309820564443,0.2694503815171159,0.3331379260740502,0.3299727392046677,0.2891034697742352
0.12415671380413541,-0.03512800273253586,0.2038222926947836,0.2645628760174994,0.22741534315121878,0.2768930025728306,0.30022926209000317,0.2845350206525807
0.10461559467114871,-0.026945579427660914,0.15331138026708285,0.23365996202874922,0.1605206680373909,0.22825038349687357,0.25689775380733565,0.26673281226784784
0.074732527117683,-0.02924583209789215,0.13461798343230766,0.19982431748924873,0.1589977248490326,0.21690593400912353,0.24350490227681165,0.2943950408151749
0.1578260435120889,-0.0188256362083944,0.265788284543836,0.36059566614104593,0.3029053406550852,0.3848166830168459,0.43625132275266393,0.3064693638001495
0.1782259836005514,-0.021126562615376696,0.2628442424843046,0.3520074124258003,0.2738733243900406,0.38990819708461244,0.38281034099213573,0.32819139624385485
0.16603288376175665,-0.00799530128267931,0.22509707253761904,0.3264894459516611,0.24822462315112379,0.3257084015934706,0.35454205011319906,0.3138384378808653
0.134717173856188,0.006196652649331278,0.19642055721677115,0.2755063560250636,0.22674276921485167,0.3075636022608457,0.32784029960328126,0.2588788752749584
0.2186175446223719,0.009742180691339999,0.32420148039187285,0.41464497374940884,0.3718582994190358,0.4902482318413682,0.491868160051998,0.39298986653764617
0.21981762366989271,0.028066223019642362,0.3381338091062904,0.43708302804033566,0.3540501571651205,0.45979592241027784,0.47239687707097333,0.38400982638090564
0.22319146492460276,0.027554795908866864,0.31435025392762056,0.4122377873508268,0.3631398090653055,0.43083629566971027,0.45642146586317833,0.354775500438004
0.1803297723263283,0.025200414265461824,0.24891170126378637,0.3416467869343013,0.273045071087468,0.3519866900039397,0.36452451523555457,0.2800452424703952
0.19574064630761215,0.013840167142297083,0.27719949395933896,0.38783688059619026,0.32578997635383217,0.4118295061114867,0.4561762594392385,0.3338288690995992
0.26423000488386883,0.01799098884452413,0.3637282149637786,0.49482719870151065,0.4164848504468064,0.5515270761305295,0.5671945533058163,0.41052451219081826
0.25892443611451077,0.02355457909891038,0.3681872882509763,0.48556890281630755,0.3886289319474685,0.5144722926018926,0.5324776985198226,0.3832501559173228
0.23517777194430747,0.004745608991573822,0.34067023248373807,0.4393768468298635,0.3315332525396632,0.45639528367115995,0.4571979045119104,0.3255717492927405
0.1906204341326275,0.011403551974371994,0.25499638712697026,0.34265334853433643,0.2824583041428929,0.34830614714169383,0.3804496381901046,0.2873576087022404
0.13804262652828708,0.004591091664253899,0.18444685816278,0.27027943316280545,0.20505559187375355,0.29116987614610185,0.30863300686982514,0.28505370713904393
0.19450606844028992,-0.018570691452391746,0.3177233584030366,0.4086533162316329,0.37344251149025187,0.4730078935410706,0.48715534903336893,0.35954989514205177
0.2305407119518087,-0.011056499998881975,0.3401533787889825,0.43829522062251663,0.35302916148187247,0.4980241491446893,0.5043693591324324,0.31922949392801403
0.2161781175296262,-0.01591943745650426,0.32714281301758646,0.43666783091731876,0.34959163370872676,0.46576593073009454,0.4935497548770044,0.33570742908911055
0.18367145784608363,-0.022996323149423258,0.25676207508533055,0.3639706642031343,0.2531892480705036,0.3664675226868458,0.4016372371796147,0.2085953287794957
0.1486275042240259,-0.021132872597708983,0.20617563614409942,0.2888276387109881,0.22552832310898668,0.32163990420429817,0.35401175102339477,0.25328714715431755
0.18919971673438432,-0.012386203228522597,0.29949755400010697,0.42144098617209846,0.36863103526326774,0.4784587547536789,0.49841476807610663,0.35123215522321727
0.20618765329710206,-0.026412701874050894,0.3236846632800034,0.4352960992197849,0.3521461925477659,0.4769191561629973,0.5258681358604609,0.29802609319027723
0.20028229882306506,-0.026292949782058282,0.30135167625611475,0.4182705873972586,0.33307084507074153,0.46035940504513023,0.44696931548826513,0.3180206698209235
0.15844694144549962,-0.011367620567590773,0.2412049924768168,0.33323072893162736,0.2900089326115293,0.3806833247474285,0.38468796857443144,0.32033614011481876
0.11423868698721369,-0.04981620613535297,0.19396796127217344,0.27584458121866434,0.21797662241548504,0.30623692164298555,0.33180949317685077,0.2938894408280542
0.18051917321817104,-0.05541811660606946,0.285201031569716,0.4136811760387003,0.3734119379564144,0.49005512335262646,0.4945272370265463,0.3486149661960043
0.18962818160727335,-0.05931835425674788,0.3130584639914003,0.4367865494544177,0.34479410666966126,0.5272783547433219,0.5192976602769411,0.35871059592597343
0.17461850988456024,-0.041081095430628184,0.28363544519153844,0.40668558657861154,0.32356590879908725,0.42882131762256215,0.4413957339639389,0.3147054234501476
0.14674148353973257,-0.013775320572124345,0.24518452595130266,0.3322434075462261,0.23147357069875565,0.34181763176806207,0.35555970800575026,0.23520294044221934
0.10291881213695726,-0.025643628575998768,0.19082490794509682,0.25001479851353947,0.1895035062207263,0.2697834443152906,0.28303728782065884,0.21577227843825422
0.16624256983078828,-0.035104917911352694,0.2894613797336297,0.37483461731165046,0.36267123917676536,0.44954498632646467,0.4603229664053627,0.31886551590938234
0.17535907044924817,-0.06339691794120848,0.3142804777920188,0.40233989522866376,0.3546130681394573,0.4650523897301497,0.4547399060007615,0.3130112634553555
0.15831158661247044,-0.038940546494008445,0.2729049701242651,0.37022907248776277,0.28108401170361225,0.4011304889651208,0.41104970655471057,0.27521578734150337
0.12776625374510966,-0.020606113771852373,0.22850053986942293,0.303477632931678,0.2134166653042695,0.29672022834754674,0.3176974344119397,0.2452568914820111
0.07062672625323221,-0.02538272964454623,0.14940754212146293,0.21899425850475038,0.11182183830014886,0.18652378160464242,0.21928035285784223,0.18778522839504166
0.1274576865708695,-0.06877361356131466,0.2396205733352087,0.31557729363892295,0.2480318736243559,0.3313723754881265,0.34575770511345827,0.24107929405768105
0.1563335438461848,-0.05009832363811561,0.2721350149865076,0.3509082360076387,0.27936078308967344,0.36208091035917583,0.36184643929760657,0.22790817489321208
0.14191995503540375,-0.048882021909564866,0.24397409205601864,0.3164084785363689,0.22141101659538712,0.31873269671030113,0.3241170494263567,0.23006646022241517
0.11206508863271229,-0.04104231671099357,0.20021283075973448,0.26994385725621933,0.15234100527119307,0.2300132472672572,0.24232963207919492,0.22887058950622516
0.07260203752894158,-0.036748095831012,0.1461323463765249,0.19189565026852523,0.08642686357606151,0.14974700665796675,0.159885829066421,0.17782316941980608
0.1263028382053469,-0.04179963280356062,0.2450531064057879,0.31193583875254166,0.23932374318577562,0.34309862298405325,0.3009521332025062,0.26790263165704614
0.14179182152210648,-0.03635488342133963,0.2533623287671735,0.32916908481051105,0.2395428599047007,0.29844939451254193,0.2762018058446881,0.21963912221232093
0.1183606849187382,-0.015492848626605767,0.22200610528395298,0.28231262657693135,0.19873012530403494,0.23897369803132762,0.24097424150867883,0.22250058119162858
0.07904892267195,-0.02110675552068861,0.16711091790773586,0.20236536849383233,0.11863854272061432,0.1647116443768255,0.1570611746243936,0.18046718149907984
0.07431348247524033,-0.03921013610676258,0.15915612928006256,0.20750248376351313,0.13541238362817082,0.20089146786353224,0.2094381928302708,0.19405101675278855
0.1578713824995185,-0.025069681894385718,0.2761034319673763,0.3468043637212443,0.246289055191357,0.35387242496030885,0.35695453653010095,0.25456378375493405
0.15046009019539916,-0.0061526122132246515,0.2695631841449541,0.32837024498491724,0.23851376874461014,0.3290399019404609,0.30717583133084503,0.2610875860019376
0.14234712085447185,-0.008819277221197358,0.2434550221518366,0.29381804822433066,0.21002439584258503,0.2463062266699263,0.2499757231320431,0.20020337188895657
0.09473813434097735,-0.0032423864345227484,0.17416348740800924,0.21277594623380677,0.11150527709654168,0.18623725019422055,0.1766953830279926,0.18354610060202142
0.13843231702242187,-0.033321915328492005,0.25337023692289923,0.31539107643522435,0.2675280050852377,0.33821406687350514,0.33496373987328276,0.2665069797228856
0.176377152120133,-0.024017769788352617,0.2772709302626399,0.36454480843858506,0.29694693420739116,0.34234090549093354,0.36214926213372695,0.303028757600254
0.13820978796180022,-0.039186085328402356,0.2531473671057373,0.32674768369260304,0.24330605933932134,0.33474149381983775,0.3024977074266761,0.25059190248469804
0.11797002126323937,-0.0317036520460225,0.2037671805291606,0.27144053794349066,0.17759472614453425,0.2467264406091451,0.2231804343229341,0.19947752141211197
0.07400076600415069,-0.04337398276379975,0.14051451429056605,0.196619231310417,0.0998810391611401,0.1552819294040361,0.1969778083885081,0.16361060596479332
0.13780073765164688,-0.06910783415588835,0.24935965310812136,0.32798350914019736,0.2726298587137878,0.3406884962698192,0.3421083165425022,0.20740156555954908
0.1356053936928205,-0.06553952247838178,0.2354107936632703,0.32596593431947246,0.21973791256711692,0.3362852304826052,0.31112890168203894,0.28349495639751227
0.12771107412481641,-0.03913176432652841,0.22902133393562077,0.3032434451747666,0.21163888640578268,0.26934059236383684,0.283668987484786,0.26108893493217145
0.07797141804028776,-0.057250588226199495,0.14417560369657012,0.20875240477308973,0.1344899033528864,0.2046521393230548,0.1940978190883816,0.2485802783547963
0.1179278675847075,-0.05496561305049881,0.20110105304284354,0.28236467001714305,0.22862171801240475,0.2883121896602533,0.2994918050311225,0.2834132487942155
0.15038312694128803,-0.03507644391633947,0.2684263357561162,0.3490096679860303,0.28793181222570496,0.3829825436881619,0.35130435182857217,0.24564531551509927
0.14221529695528265,-0.01945241431510261,0.2458471048765698,0.32605419908453886,0.24007517842990003,0.32279005396770466,0.3119113243175742,0.25438837353506477
0.11115782276065203,-0.02786735854213998,0.19382591395545076,0.253378519506948,0.18676801077502375,0.2398746507646107,0.2294250025453337,0.180865027791462
0.09995634665793053,-0.02384331734045488,0.1686271279281972,0.22645718214526536,0.1397503163730548,0.19902759963464697,0.1969759415144322,0.1779482235900571
0.16428890266521687,-0.03364625477431357,0.27387416097078066,0.37256040320653977,0.29929507653515736,0.42738546742562583,0.4067888593843827,0.2733216138572021
0.15709890753441624,-0.0217712119967638,0.27961239050692754,0.36025446897879493,0.28543007915218077,0.3641460584458801,0.35710904239958224,0.24937405480042504
0.1415861100321916,-0.0440242030341361,0.24674332529791426,0.3133516628638365,0.24461961390675058,0.29727558046823915,0.32490811837993683,0.2500500031282541
0.09125100000299571,-0.043968111186516036,0.17118306614886272,0.2344783645295534,0.15073146717511385,0.2152495042098237,0.1777902842752792,0.15730855970475524
0.10523220317061407,-0.057316194449334765,0.19800977310310053,0.2755451065911663,0.23106607693522624,0.3068701189655416,0.3015411320977181,0.22498141039437877
0.1450878305912846,-0.05209644580682299,0.2690343611452352,0.37392561980073713,0.2790686990057606,0.3768856806036267,0.3810455661554322,0.28421871939975096
0.14629257426059533,-0.05199467070645741,0.2452268034891685,0.3379357019957555,0.27081619486445707,0.37314837633988446,0.33142731325160757,0.26555729856332155
0.10816303082024714,-0.05569900341441037,0.21107613772024658,0.27135077056035684,0.20380437358540743,0.2763736570764545,0.2762242932442325,0.20903149316842876
0.0794875605487251,-0.060245754949317394,0.16259198129296665,0.2410213751384499,0.1794957345942702,0.24240475509066708,0.23510415384701044,0.26014184236246135
0.15933853078614782,-0.05731955438034507,0.28190019495823065,0.3751570263725038,0.3213315543505403,0.42802052257868184,0.43697044592218753,0.2972082730063593
0.1566318943164569,-0.0494720616530368,0.28263625716724244,0.3763343626696098,0.31766332332069835,0.3942784277674151,0.3748241033899832,0.2556620332137736
0.13619418034873088,-0.01679487694675684,0.2500897658002334,0.33915703300302474,0.2607821165219956,0.3336140491820476,0.3231314517471358,0.22332854453448184
0.08927579135869625,-0.009091531073159409,0.20921095525902667,0.2572284201572821,0.16815431823315408,0.2468347347369594,0.23565222933852392,0.18144728484818726
0.11032055220892828,-0.006590053790112801,0.2307482854446463,0.2948082144880411,0.22956084727156312,0.3220999212814481,0.3350229001461309,0.16650370516333066
0.1864736787347083,0.0028235832901480316,0.3059155998916521,0.3979221057503702,0.33874005180518496,0.4478330315546077,0.4345027814596472,0.24736750532149593
0.16467571477963316,-0.003642193033723506,0.2871863070129479,0.3825279335771053,0.29174869552167954,0.39390382241971217,0.38287977152210523,0.25124983337470197
0.1429576634600884,-0.009413154144020039,0.2443883206987246,0.3176464808092728,0.24098384511788326,0.3305525710684843,0.31138904879811397,0.22654826064662922
0.08696251919411783,-0.017634891358752847,0.16336494599672716,0.22013219466360784,0.14147900595669402,0.2225719176000936,0.20158717015122535,0.14590599245445446
0.12948767181041157,-0.029659197743702924,0.2343957991194505,0.3290903431093054,0.28150199746465954,0.3698594545516594,0.38010767477460333,0.19478893644400025
0.15921229969421533,-0.015999746877862226,0.3083643606991916,0.3774303559075822,0.3229708483090492,0.4403450922735898,0.4252688984421301,0.2401028511193061
0.15586962903447307,-0.016878734986329465,0.2808806148935879,0.35568917941228734,0.28670799941209496,0.3720213038967187,0.3910571754298832,0.23042027870471488
0.11832425497076104,-0.02020016212186678,0.21747903702650825,0.29734279849433853,0.2258415512154197,0.2707402756862676,0.3072160732732105,0.1859694589602917
0.06765296942839023,-0.002830812508296474,0.15181517468968442,0.20862872632624221,0.13374290200325176,0.20143189734610215,0.20944494103017616,0.11622423795769668
0.12730063493518032,-0.0169794921803707,0.23577455252013044,0.3307199119196226,0.2985641471812957,0.3841803683447164,0.37186972631728954,0.2713903740833982
0.1530582143240557,-0.04119425986747119,0.2820347896815673,0.3707062353183925,0.28740862241516746,0.39120565232756477,0.39625748423143675,0.20126984839164913
0.14073043353171796,-0.008263961075700769,0.26031545276058726,0.3386581797194477,0.25927922192199604,0.3339189707751058,0.34908353682730925,0.2114290419641625
0.09869107186401051,0.012562726781172852,0.1896245455391178,0.24189992692188417,0.16217768903298382,0.23308851028693417,0.23555629697295777,0.13093775110798403
0.0506713044146435,-0.02371784919674833,0.1469006677862306,0.2037732163690488,0.10506452059092312,0.20436805611934497,0.20009597037631574,0.11488679188199738
0.1388703277800881,-0.015207969499854779,0.2832157282419158,0.3502462323470962,0.2800699938602602,0.3949880061769939,0.42149288219722814,0.2028433726117102
0.1632557276950609,-0.020512286810391703,0.2807461773363218,0.34977209396713077,0.24644841274472948,0.3590115633742315,0.3591272162403154,0.14016542333394444
0.14919452993099652,-0.008709416405266991,0.25363345717891533,0.3302578400986346,0.23268494088722247,0.3150717294134407,0.31427743685799386,0.18666355582030217
0.08033392801844437,-0.009033648045940904,0.18055097154332095,0.23749135154789391,0.13904601263166202,0.23099708214794687,0.25606189750820924,0.169640800790275
0.038458041823735176,-0.032811236306755226,0.13038723194366142,0.16487994344396645,0.12661291287801274,0.1792039676100886,0.19518578339545203,0.11704839497219606
0.13647243595162883,-0.04840155097806415,0.250650732728939,0.3345763000835443,0.295125429000285,0.3890651413049633,0.40223274273105714,0.2321665649167061
0.12409772814683209,-0.05904785480898098,0.24974212549042296,0.330338895557297,0.23525613618038416,0.32466105528582034,0.3523707098754241,0.16844279229530362
0.11174160357211886,-0.05182228508677898,0.22407259282975853,0.2887016181923383,0.2052175847729726,0.3021843803962072,0.3016158310225911,0.1928776417379787
0.053962040017704556,-0.06573848105574667,0.12873005483896544,0.19666390157604133,0.12442802162250846,0.17517065967420115,0.17073849298161167,0.16896277100978624
0.024195999578992287,-0.05337741811676737,0.09503476455935211,0.1426666794108155,0.10343539739697524,0.1589534039767876,0.19513284453075191,0.15679102028358502
0.1220837665814089,-0.052385762794868146,0.22398694141799638,0.3042481546135823,0.28594363897577174,0.3688397882054946,0.3750051294850261,0.23458545642229878
0.1099577181573289,-0.05034123943657262,0.20164980931368984,0.29535780759437136,0.23757575708098408,0.292998363420274,0.3308172316877519,0.17031901320948017
0.09098688192904346,-0.05111021636023535,0.17570075155017983,0.2393600034886628,0.16440236728823124,0.24255297138812357,0.2555412672274047,0.19199022080848527
0.032139523942080625,-0.03907699271885218,0.11038493342832147,0.15067910001027304,0.07386649326972393,0.14743983239706407,0.17028964210684827,0.09799920775972078
0.060478674036264626,-0.04865275648419967,0.10766220891524239,0.18185334199200867,0.1600658127588245,0.23668691428691496,0.25276140140231823,0.2043752734268322
0.12206317230842709,-0.05406544562446681,0.2443923811893289,0.3149873168847233,0.27804124896950283,0.3612254335339537,0.39541098628629917,0.24767041034423495
0.11902242301097143,-0.05330498577253357,0.22276727020979709,0.29664702895011463,0.2039131029890392,0.3173446273645742,0.34309301181934293,0.22390004370549055
0.08345581185772778,-0.042444948700260485,0.1746567646200059,0.23331947594174754,0.1685491293079525,0.23687300873401598,0.2622571172765994,0.1408294840069422
0.03658940350113312,-0.028476101133199695,0.0935012958113168,0.13056093035073715,0.09020697818488742,0.12113694065850479,0.13055996487466132,0.12088256392565318
0.07934599846791282,-0.044632516993254746,0.14930435069476053,0.20880855499405362,0.1826109170345598,0.26477750017340446,0.26394772544537215,0.18595057294913614
0.12726592432101017,-0.03704961383474876,0.23475424980255005,0.3246109495592159,0.2809065506770599,0.3661461486655753,0.37714476208326125,0.2535368680292829
0.11840718981405762,-0.023431406907585554,0.21226341287661715,0.2862228061450948,0.212651654334728,0.33036948586775505,0.29872332417447656,0.18774196130245585
0.08002239476320648,-0.032266093603505804,0.16291235552825264,0.23134907458239093,0.15306395791155852,0.21299327992588712,0.23246874685319902,0.13061045230104554
0.023744147466842825,-0.05234319027684177,0.08284865659750457,0.11744717293457978,0.08347598739912428,0.12979652271810949,0.12392395826201683,0.07768405962581797
0.0435598325515257,-0.04380203329320237,0.1227353757882546,0.17265094967975297,0.13998390583261966,0.2211510960194248,0.2401867331402092,0.1533496246261938
0.12218488411949373,-0.05666214690241501,0.22960454465447572,0.2902616514499578,0.2344809345050941,0.3275794221123122,0.33592869621649146,0.1994930915722635
0.11210538229639902,-0.045810514979386964,0.19605895160355313,0.2747148268668735,0.2098580408161884,0.2789618600675302,0.27599789884259024,0.15769797474092104
0.07164010873490405,-0.023126269368471546,0.1517594466489851,0.20703932709254178,0.1445595091549449,0.2232731676954125,0.2321864515377656,0.143474572883683
0.025540660838467535,-0.022992071083108884,0.08452601348321444,0.12384635298270541,0.08244355323415882,0.09709610792091207,0.12152786778134614,0.0452505320363932
0.07102476504236492,-0.04884843280976256,0.15660308532964384,0.20855483525754476,0.16769412902881892,0.23558064555814198,0.26332918743297506,0.1280099118466696
0.11485657607999865,-0.020579741989532156,0.2170140895099996,0.28164658041034546,0.21700182860979372,0.3319366376573341,0.31032418819623314,0.13534580244556882
0.09628330773537658,-0.04709426671755889,0.20945555911671576,0.25273121246355046,0.20586663292316404,0.26263398555591966,0.23897593185979127,0.18257960638344445
0.05685143930010358,-0.045296737909927644,0.12671514772886508,0.19105888053960987,0.10022996182900558,0.1525179070957754,0.18840964981546512,0.1014491070537119
0.010885987501169446,-0.02360299755006684,0.06068625350907891,0.09667807698877363,0.03350192787705219,0.08023228616972947,0.09456361275537915,0.0809255285370888
0.0643660741331884,-0.026442980228293902,0.13299685666864267,0.1865143225300775,0.18911749149439694,0.2620514926473675,0.2472881128738258,0.18061538817870038
0.13098603444468115,-0.020643613708417437,0.2223937807362419,0.29743322220002094,0.2448466527589558,0.3331192800147113,0.30631348968788963,0.1777777076256142
0.11884386873452017,-0.03190947698233809,0.20738055312976694,0.2829699482925518,0.21041593181525287,0.2990384742703272,0.2563400220665303,0.1393255756709307
0.08801335998281008,-0.01205613038771565,0.14685603643960693,0.20598598374753305,0.13097182557348672,0.18875567384260644,0.2040099416739492,0.13182858095510508
0.03685931225561966,-0.028175714352927882,0.07878225025789803,0.12331109088712724,0.05843584172943263,0.09163737688770238,0.07648360279388072,0.0733674981339041
0.04425193787669016,-0.03571429130294648,0.1179220455540745,0.15328138929441554,0.12751066092757776,0.17835612134381856,0.17298267734387593,0.12335578300992113
0.14163184355973127,-0.030956726071456955,0.22142732128112408,0.2966409742282174,0.24005780642278363,0.3415669684660847,0.3471918643607593,0.1590484812071195
0.12636700956480873,-0.00910707282710249,0.22160816359469798,0.2675309091360225,0.21614092740576937,0.3015107281706464,0.30969010984361384,0.14310086055668908
0.10079373860867145,-0.02357192383684149,0.1803075826108443,0.2174464302611987,0.16305973404156016,0.1969576355017657,0.21375234850623615,0.09174696990997085
0.04559978067248198,-0.020388470974397232,0.09577195805512906,0.12923401247641947,0.09325524209192941,0.11395800856734128,0.13143369811914993,0.06410767106542818
0.02132585832998983,-0.010495925705099295,0.04899374559890754,0.08194019581650207,0.022378406492522238,0.0865299252812755,0.08062905787201213,0.08067656232121366
0.127300371608955,-0.01715095726407318,0.19913912535969144,0.260310827530877,0.2569008720229211,0.32346170962648296,0.3132406696484189,0.1705364727961908
0.12003533627241678,-0.007777964961378624,0.21773167481408476,0.2621950420021724,0.249259369615269,0.29386014931977467,0.27749483416080367,0.13893462057577882
0.11157471692558668,-0.004393060663710342,0.18413159769553356,0.23186752149714016,0.18862742760695844,0.24628443077399842,0.2529262917519716,0.1383512020221499
0.06990721867953605,0.008574577314506577,0.11213420886143766,0.15674143699279489,0.08948243205273766,0.147120584796868,0.13440573046872792,0.07954438197181724
0.026086033371001124,0.014033905380170976,0.06802879162403522,0.09421150602966907,0.04691409994784768,0.07729230568724371,0.11526405101382535,0.0365400583136752
0.11529738715912878,-0.027417126099348033,0.21211852735087702,0.2630605392075511,0.24035023755841142,0.33656241310164886,0.3155471598313638,0.1790141973653226
0.12000035662965826,-0.004791536463104767,0.20140191463014143,0.24739708294975393,0.2351668947064846,0.3003930171771269,0.2956722808699812,0.18190500727206999
0.11203995497160411,0.005885355052630898,0.18306151426569606,0.22481397614410037,0.18700924108088715,0.24418967354011417,0.2353150957632211,0.13138624811934552
0.07187711847234111,0.025858972921462872,0.12380298486272882,0.14712258590169744,0.11800677569748039,0.1473537314764931,0.1630059973800056,0.057186247634461736
0.025333399267865844,0.017732254958926094,0.05285075911305721,0.07259224706971179,0.059208151194702935,0.08667968856473925,0.09049336457896204,0.07840926885675147
0.12836107921732856,0.008012856845312057,0.2053223711101495,0.24311359932655294,0.24237243904699113,0.34383467254286326,0.34272909204134716,0.19486972484657558
0.14098719249778038,-0.008352896089813207,0.22405387671916036,0.2616187651378081,0.2619255145910415,0.34941429101039506,0.32952195729019773,0.217488092178727
0.1375203187414033,-0.009700830333762265,0.202404554702433,0.23960566321815563,0.24569674286528595,0.2729354527317217,0.2725488011645558,0.1981894738784738
0.08045556868578513,-0.010198320691766974,0.14862056849959743,0.14237714818388286,0.12590049220231672,0.1698913094898018,0.18953625650119416,0.13600681812535828
0.02798297355118499,-0.017483375510570297,0.04798874135111176,0.07203271939462584,0.05260313943084203,0.10296088298972206,0.07982726034616393,0.12084697664218176
0.11269788538623945,-0.013105843598717004,0.16436805988184897,0.20454101016965323,0.24147082985118704,0.29423804277056004,0.3009355706202116,0.18737727912884103
0.13145652965262064,-0.017227834237762578,0.21752857974941858,0.2457720995404532,0.22880894567182364,0.3002464619604205,0.3106567180496354,0.15769889730829306
0.12796193001954,0.004375733483839063,0.17955823366448856,0.2254432746033925,0.21409312642664857,0.26947723625360276,0.2527097224145291,0.13246382572199486
0.0934087281754571,0.001980461197807244,0.12608921331549724,0.14243682107477706,0.13391254731573685,0.1725329937216368,0.16559606989283632,0.1423618179591352
0.03592661504837867,-0.004583377145616686,0.06188046606168064,0.0705088629729829,0.09722701890662942,0.11901655273521292,0.08740366329632947,0.1166659732647837
0.1304924031137165,9.409863340639651E-4,0.20247055422290725,0.22945197654973687,0.29345184049396855,0.3194377681637587,0.3238642186160596,0.20586783820227794
0.15658297717438072,0.006483630667285738,0.21277037574929264,0.23942752101279174,0.25358433874425895,0.31852119040578303,0.2929815079669187,0.23950132948176442
0.1292064867344727,-5.042040185742433E-4,0.20101412621775502,0.2296672729642028,0.2588061388514225,0.2730268309690917,0.2615872715455001,0.23947119365407402
0.08623827556552884,-0.005512895585336473,0.11156883487760726,0.12860284380259107,0.17768196566272657,0.16867195373012764,0.12509205425515701,0.1686988347348895
0.04172424684544395,-0.013358607868491357,0.04866360564599273,0.04373025323058584,0.06151430482383343,0.0686681931770466,0.09624304259919411,0.12934202749459175
0.1376050716399926,-0.030119287950835832,0.21214185661067084,0.22269568913825816,0.26925898126993864,0.3238523506293406,0.3061469672901054,0.27632649538076437
0.17950447832170474,-0.006829553596064447,0.23416523448499774,0.2671659782104137,0.29736387254225805,0.34196352937407876,0.3433238037999849,0.2924569701945883
0.15084679769580586,-0.014206806549536289,0.20568499155946748,0.2320331546482229,0.2687755499340241,0.2905374799249607,0.29269047224438416,0.2816832056968488
0.1219145737860998,0.009438992166129976,0.14970744948267564,0.16578230857337797,0.17605768363339966,0.16576745839940726,0.15654897594787995,0.22969115764764092
0.06862970922766669,0.007047369920255693,0.07852318474198368,0.0648862943014887,0.08600638313132558,0.06821404683188784,0.05306073919137747,0.1671608734650195
0.09885125688517883,-0.01625929565897471,0.16060273201936506,0.1745874406775399,0.23720345111814337,0.2590116156848619,0.23415536045087698,0.223971654819962
0.16268225566206795,-0.02676047123021453,0.21016128577690274,0.26101221905359573,0.3046304502985791,0.3172749434124525,0.2975261203220792,0.279968093270223
0.15697985513415638,-0.010263343079412053,0.21013665575530752,0.23379856493072998,0.2709340726062409,0.2776990273379274,0.24281536165421677,0.2567726840195833
0.1237974130344416,-0.0032169582615262458,0.1880082792946954,0.18423307588176657,0.21522014592065072,0.18565847518511636,0.18260396042491195,0.21383730300331263
0.07698762259012898,0.00914368752212455,0.09882263703338622,0.09811840672467521,0.1490317234806085,0.11167345231079182,0.09141886179362158,0.19851770034750024
0.1460918324577705,-0.008011427801097235,0.19565842890780985,0.2245751857083792,0.2958474774367543,0.29627028404509476,0.2751889870021895,0.25683513408724346
0.18494528273594074,0.001621112609581404,0.23165500124898242,0.27084178999748026,0.2984147174039927,0.32738326592656025,0.29669651087832577,0.2773539292888784
0.17046786023723723,-0.008241551808611143,0.2091847458302137,0.2484663370516251,0.3007835836950928,0.25742094649293273,0.2620515196029915,0.25954337667051813
0.12362115835538663,0.006444133206452969,0.16284083325000062,0.18152833997356224,0.18950685867529507,0.1844494107315917,0.16974059630412455,0.22117771187496665
0.0700508957889145,0.010815807171745259,0.07412517797418924,0.0874930389779381,0.08823565700752824,0.08666496989660982,0.062136971227081214,0.17606694874173281
0.12986717714188095,-0.005486985993492737,0.15379256658418608,0.18629993302337575,0.23115545705694004,0.242422636923802,0.216610917316049,0.2699778283580769
0.19184813237840542,0.006206485961213932,0.2664601450205947,0.29875926761171007,0.34278819293892215,0.367249497808922,0.32667788585734503,0.28588895648041707
0.19416624995976797,0.016145605611308032,0.24879147916226357,0.27675469342156234,0.29618948020275593,0.31112110611000954,0.27807283086907425,0.2447324564142864
0.16842751135224182,0.027877879628663473,0.19807426613766027,0.23068658098296851,0.22952356076803926,0.23332921089413555,0.19396002670385445,0.2761624231271705
0.09837039207493217,0.017597795223356142,0.12302027893306816,0.13857144523121515,0.15781776334970185,0.1358668969530037,0.11948396263047376,0.19969029622512288
0.0709931627070532,0.018012037747600972,0.08195718669689395,0.08140656767197292,0.1103665778881752,0.09903669896726637,0.06998119144063863,0.17536303936989137
0.18961135627041453,0.010603381968235386,0.24718433785936722,0.28427524751999245,0.2940416934053837,0.34594931197078505,0.31892049031938113,0.26099506476538414
0.1960644829198037,0.02542353173163274,0.2398770237543952,0.28850697452268625,0.28866842244123425,0.2753557367957693,0.2519088187860179,0.283998241105723
0.17584740193885948,0.006823395609422593,0.2210328572152554,0.24306138129737007,0.2600686510674723,0.22064250713408645,0.19891881644055093,0.24504679978462773
0.11727336121115563,0.02309341883733278,0.15248802686067006,0.18210499884034345,0.18576030991471804,0.13953052065135985,0.12008313438384713,0.19990368792705804
0.061202214932399905,0.021436900012343964,0.07452207832099976,0.09929183089915183,0.1049920145917874,0.03435193226576104,0.02109211405412482,0.143503422619569
0.1363792098972305,-0.010289017023570953,0.14386146920219725,0.1818199273971273,0.21033132405404215,0.17271782924594284,0.16330430231353016,0.25348309773911376
0.16519201319950585,0.01159131955625409,0.21919993942523575,0.24977417301473356,0.28239556345744654,0.24834840799803834,0.216323395027747,0.2286755584703958
0.16069426210480284,0.012028705540284531,0.2055396375509711,0.2162424099088201,0.2634996136763073,0.2156869905461025,0.17458763223968315,0.2460391759868988
0.11932449397526038,0.0193171493832277,0.14542223526417397,0.1596999330612498,0.16628533352348285,0.1446850703086271,0.08241541153247704,0.1985798952144396
0.06929729946890528,0.010308620595851841,0.06478805416050344,0.07545717793901742,0.09617473973133411,0.024123605594909128,-0.03884009446654683,0.12754809295132785
0.11915161671290461,-0.014648637903679545,0.12720532779307372,0.1598829842395313,0.20236589236578287,0.19538656758449346,0.15585759741351812,0.22771780157599053
0.17077725922242978,0.003974029586785446,0.23021325731506181,0.2591962437909199,0.2927869043001409,0.26325014604919295,0.2111979382550857,0.28347478817579097
0.17780945007267382,0.02503934036380632,0.2178122195956682,0.23127711314616808,0.2411851931488617,0.21750975340546366,0.188224340282806,0.2476730109506064
0.132119912396447,0.006938282500972021,0.15855327343000508,0.17330695424333517,0.17533182670213832,0.12306370568689004,0.06986494299067435,0.1929849423748378
0.08033098055904475,0.007541411952190673,0.07269745724426299,0.08243712329480928,0.09528533971767081,0.02219722026687294,-0.010882664786844468,0.16275151830677126
0.08500570201641594,0.00661851137333523,0.09726163329215665,0.1012272603075727,0.1485071143432435,0.09589774716425722,0.05210538463669681,0.20031187278351148
0.1784650273393281,-0.007581094440700107,0.23462397299205162,0.2557784747843449,0.3263360622366475,0.2736071780671662,0.2344614052829944,0.277943143217086
0.18248877270417954,-0.006431568455224362,0.20256726850138407,0.2440395838381773,0.2754493755585399,0.24404810759747325,0.17201845093739915,0.23649768910603672
0.15667738616234825,0.02357467488498777,0.17339893295837994,0.19440064389931935,0.2525718362674064,0.18015311572648118,0.14990069658741106,0.2275406689891697
0.09958614427771371,0.028239389814774234,0.10807997300839668,0.10410995819612295,0.11442496965868955,0.06229602394155408,0.007814498483995317,0.14768721640048837
0.0665841743135008,0.02567996513108508,0.051316448578903655,0.047935623923914705,0.08730989213649334,0.010890156196343814,-0.036113307727185885,0.1628680272829476
0.1668631947942636,0.013553861872424237,0.21512766611315354,0.23863469654346461,0.28035174438519617,0.2624110727831383,0.1983025378002371,0.27630702021941667
0.17505559749099178,0.038960417398341975,0.21991281494453427,0.23684473481086893,0.2611414356940505,0.27204522855944174,0.20056504359687863,0.27447235423963673
0.17092958412635723,0.03344253990584645,0.1999395712707389,0.21979027180908509,0.2622472026434037,0.22339842346120062,0.1300226997513463,0.2566242372353609
0.1222377932227766,0.030159903560665117,0.13424416487664753,0.12741942305377824,0.1715310798402346,0.11924421003663795,0.06325929783758523,0.17018481201006186
0.08049344912723694,0.03806748027098435,0.07141715629623495,0.06153956415865416,0.13952390658848354,0.05108560393257699,0.022901618818626804,0.19094746232977866
0.17434294163905767,0.03353646988182888,0.22807500333002767,0.22766640664405857,0.3176403721520892,0.2770272940132874,0.23708399014782577,0.31837213882935
0.18419632976180553,0.008628123338549494,0.2194703935469615,0.24310944957800623,0.30383154164365744,0.2653125167176901,0.2105568523224149,0.31653244284432996
0.17162928983051046,0.034225725438711496,0.198703523502445,0.20936404840379405,0.26650152339461436,0.2346256371052782,0.16165240734491318,0.27243254364728986
0.11386695344126437,0.05781279318680488,0.13039764633058196,0.12288928087437125,0.17731532064295671,0.11818157445474113,0.08770818175018573,0.22589485656196395
0.06411020690655442,0.04226826457368489,0.05631550333357175,0.03695466648153378,0.09692914101158119,0.030677223506152537,-0.007140354780089893,0.1403715950175004
0.16292643251697264,0.008473130685288327,0.19695528088559236,0.1973244131277338,0.31218616060131926,0.26718158580466217,0.2161360365401007,0.2822742924347315
0.19729318608783813,0.03120567349985325,0.2353177398765066,0.2644937615800561,0.3196791582493131,0.31053811104354956,0.2708890961605004,0.24448666665256272
0.19510690012544143,0.02510316674440983,0.22893085843135483,0.23430696004786636,0.29326599980658635,0.2895396497892653,0.2085521493170334,0.26723692509835295
0.1524436157128521,0.02847190231527155,0.16588909990127518,0.17141694162965587,0.2233636855260586,0.15359855009157608,0.11029171167381382,0.20273769222309232
0.11462752643866435,0.04895282924478559,0.10169514580417297,0.08293745243066654,0.13746289804937792,0.06861215987965007,0.0493391557740453,0.17745539510889527
0.1166751915505111,0.012375431504921217,0.11671621327741293,0.1103531197027093,0.20586847454561918,0.1550305151460395,0.1026054426725567,0.24255237568545085
0.20270378371467646,0.025765450178178738,0.24984155463785274,0.269215326770571,0.34864147770723847,0.32315053337789085,0.3093097595917374,0.2851266749903008
0.20154162568129283,0.028689407886655742,0.2351228010993018,0.2456192246951827,0.31937627066847174,0.29905556908129083,0.2512572326827222,0.2825466455251695
0.1788309646163582,0.008208736076519377,0.20201861450454223,0.20582367173530855,0.25642762133424596,0.23298854797323287,0.16510786124190943,0.28589607149642216
0.1218379068841322,0.03696025749738311,0.11270964998102924,0.13802514215320608,0.1555832497362158,0.10563434951086982,0.08241479701549216,0.16148036014428643
0.07549244138912246,0.04311955865520324,0.052768025996965735,0.044938028545820775,0.10675949227171094,0.014038619911948397,-0.005230659484437834,0.113006231197874
0.15504181976844744,0.026460114891246733,0.15912360627178027,0.1659216141329359,0.246262975399573,0.22654068390256207,0.2053785629424532,0.2247674896729715
0.18851114794127716,0.017530775400031343,0.20818577781822528,0.22403195116752808,0.2852256659691889,0.27981787886220544,0.24212102176452424,0.25864479314086286
0.16518211352362797,0.042282215269289415,0.19718274992128962,0.1845811899270644,0.28445632784125,0.25112811155090276,0.2264725115716005,0.2631712270860068
0.1275551733355253,0.02973912836570759,0.13396786873274544,0.12660167039915254,0.21325858461843153,0.16862146564386923,0.13691532640015733,0.2643198938606619
0.0767988541638045,0.030119111448815766,0.05748532891087036,0.03804200544843403,0.1365483049918481,0.07744547125190772,0.04186811890432716,0.1925086832273716
0.13186167516333677,0.008750428820444883,0.13356670177418092,0.12999555082336417,0.24690766386492474,0.22349763609824658,0.2189632591234672,0.2606522289238309
0.1892761634734602,0.012126462676999348,0.2247495677509725,0.23682569623112715,0.3018176092867187,0.34182700164204416,0.2797722026966434,0.288385546622984
0.17618001657230617,0.004075967520945923,0.19848244554784641,0.2101668993608367,0.2874412380518529,0.2730575960964973,0.22462907595185358,0.23441371025239574
0.14584091092973264,0.01505672268563569,0.16934833074631514,0.15709906188803785,0.22643840615730434,0.19570279524226322,0.1662739271897539,0.18308557104213372
0.09177235310934251,0.03800981671513949,0.08294016044478149,0.06857022157120063,0.11562524538207095,0.10314316540514287,0.05758620889187524,0.12739667035654326
0.05920163764919073,0.011680147820246062,0.04932756956896735,0.028223601369903293,0.10005060451180028,0.05280242119206207,0.03252842924741728,0.13569342463258494
0.17727519710501788,-0.004848370694602955,0.22041243311466566,0.22510210455350038,0.30391000183280414,0.3356313677915227,0.287827999103706,0.27545362160916037
0.18916737192144084,0.026534615640557365,0.2136817640736252,0.22248070546276172,0.3203093603007918,0.31660890659424473,0.2848112455027785,0.30680813517667205
0.16292856293350805,-0.008132190707686109,0.19561016786728314,0.21832782135105117,0.2787057315297377,0.25917242977844823,0.22450483342528788,0.26500705712190054
0.12291808651495159,0.02985091373525138,0.1266611741960142,0.12054654754306178,0.17551021644475792,0.15448401154340993,0.1159761232218727,0.20280718440453108
0.07300352745952692,0.00166749340746252,0.062323847130707107,0.03694901939041703,0.09140515968889626,0.04708714811246949,0.020341662041484188,0.1063194654205363
0.09656509001673473,0.009374992293273501,0.0971133514536721,0.09876150883613963,0.1351399276795587,0.14377210841480065,0.11195234636104556,0.04851122336727297
0.18567665567455993,-0.013739702620632408,0.21389216079846535,0.2451475009198742,0.25360701423872967,0.2851207237622708,0.2359655501435122,0.14346061848999392
0.16959641033352565,0.006033901473162147,0.20546530730231205,0.22071294567447117,0.23776842153448266,0.24456741175299218,0.20486496828683046,0.08208103008698932
0.15187734759404786,-0.0014613229473018604,0.17813734569670647,0.18552830115258506,0.19221811939516525,0.18556704880097585,0.16585138890383616,0.10958555323827189
0.10199934996816658,0.0085190799553754,0.10110272506656229,0.11161590235188562,0.15644039614049243,0.11375087229406299,0.09533114569782444,0.16512461969545073
0.08610385684781738,0.007432716278805272,0.09074002305265098,0.10889246866187668,0.13306585576933969,0.13835080792851068,0.1340592094922219,0.14023592707902768
0.18545663065941473,0.015483654672800934,0.22864679042215388,0.25557451321412117,0.3248631184847293,0.3436666908402825,0.31438546359093106,0.2651453319089388
0.18125087209244686,0.014241248891324734,0.21459869218088826,0.2466489007298423,0.3229508094164869,0.31801652785874174,0.2692146362285895,0.2756753607370157
0.15972037725549076,0.015109909982701633,0.19369406584129079,0.2049873911598838,0.2834047258056928,0.2497434190175511,0.23624488840593716,0.23565348832612185
0.11264215822509673,0.009806874201002081,0.10410770275336173,0.12709219322565624,0.1742561587845803,0.1798826800073352,0.14897478661595884,0.21123061624651263
0.06056918302276653,-0.001989191659874112,0.06027539233720813,0.03666400866948985,0.09981862141338611,0.08291437239737101,0.08942160788267664,0.17629577562021737
0.1499418000678868,-0.007721045818528897,0.18126333692408916,0.20860286818003784,0.3081498764158278,0.35482210955044646,0.3157294926215354,0.3140790189054675
0.19723346703046193,-2.764450830188307E-4,0.2411330774055072,0.27501830419546625,0.34216865881413827,0.3974958671302507,0.3467294496494442,0.32796725816413885
0.20335217230249583,-0.014569580866949473,0.21789922368934592,0.2644961166669336,0.3219910392621894,0.36051301227658583,0.3121991366532639,0.3035670900157499
0.15438968920230126,0.02883041398181584,0.17596358087287994,0.19480713270636213,0.26443969876701584,0.25469603731287316,0.2513679993571754,0.2792406054940542
0.08988688691825711,0.01977625712934378,0.10941523924897555,0.09862273564749773,0.18080339817966837,0.16499661609451946,0.12904386185138692,0.1838431074780868
0.09988139951512644,0.009390834417932818,0.09163562408489911,0.10620559578203377,0.2180139233879244,0.2128549776056042,0.20061577998320057,0.23740887215406514
0.19475733968741116,0.008258446702814545,0.24936794472448656,0.2794731630867572,0.3607641228975264,0.41148933749462246,0.363635245793883,0.32839495776586636
0.18975119591197376,0.016465411651523498,0.2331287047529215,0.2682133053161515,0.31825303903374264,0.3598936020575563,0.352192327931293,0.30119287986296017
0.18096842194358265,0.029990433330118242,0.21622402269064414,0.23289692156360506,0.30648720991287864,0.31892377349299944,0.28851583007708836,0.3114668001848388
0.12310915840796015,0.025049010124275926,0.1439314228406444,0.1560731361409196,0.19987256175105345,0.2285358384813951,0.2156029019575546,0.25454732987433165
0.07850270003165395,0.007489962428663633,0.09673769005900071,0.1089345341501469,0.18548345172282116,0.19510697035919497,0.16759021464927915,0.24476468345660368
0.19214481153063304,0.004111084832840622,0.23635041406995405,0.2696132726836865,0.3956171427618003,0.4250316627832772,0.4157023188593647,0.39364778612440815
0.1851277633749459,0.020403686453831664,0.23524997066738706,0.2743673234925084,0.36843372150601433,0.40022319312329646,0.39269185051375305,0.3636244274163938
0.18673239868420452,0.0292516541303198,0.2156625369198248,0.24046467650787515,0.32696036011423874,0.3730450084487975,0.34252641649847326,0.36347248038969
0.1278920935068979,0.03910287210914123,0.1453911105451199,0.16576537744965555,0.2404234474984348,0.2805249559941874,0.25482129638496104,0.27294188719616247
0.0819430747076704,0.021623444422441535,0.08353431603429157,0.09087535810392532,0.16932295487422666,0.18107858794794923,0.1903702350591745,0.2620132926867255
0.17406887124469628,0.03438005219838629,0.2321154544327013,0.2621901787384992,0.35865029402329274,0.4359957404852212,0.4136181390981125,0.33886359826810536
0.21672322801354718,0.014608264850029891,0.2631430615486513,0.3225489327269584,0.3747268829095086,0.46960637825442575,0.46372106953407044,0.3527365613789773
0.20197329780857307,0.03442390482652315,0.25683628343126064,0.30396033502261616,0.38734674384330536,0.42836174282407113,0.4247283639846145,0.3228291590305701
0.16084192090777663,0.046470654774124334,0.21551240292380497,0.22918418187012624,0.28742742348902595,0.3373853892564024,0.344607704787017,0.30152115457493345
0.11229718912134942,0.04767580769667877,0.14192765119707906,0.16163089500579256,0.23707717631276345,0.26182771094520746,0.23730644286638353,0.2653084097101445
0.11516718894678318,0.04022527835976376,0.14196766448719175,0.15697636694707853,0.23039342486058073,0.27760486470223866,0.2927586146228554,0.29972602495379214
0.22039206020884158,0.0293109637956421,0.27102737603168237,0.33833575398484,0.41538871121787335,0.49145287487687156,0.4727583939321015,0.42442814071668905
0.2128265508322261,0.01774777913013033,0.295928490334031,0.3448899618325169,0.40031264956952395,0.45970104291718594,0.45424673822532,0.34698507109021703
0.20467185004120955,0.038180356018049616,0.2637791282270534,0.3028619186107453,0.3651096931552523,0.41336436091527373,0.3901888085573856,0.3260890777964251
0.1624078762512006,0.05785353931973872,0.18824162306448286,0.23280718322940488,0.2718597894986076,0.3086422455691444,0.3009665640382654,0.2962643509387485
0.10913204581113961,0.03945600259553357,0.13168081276863358,0.15565350215091872,0.21443150539294797,0.2292704718517637,0.22147871636447958,0.2286568362073272
0.1819719545891834,0.014896580875824303,0.23169796848091168,0.27489018650195385,0.36860389147777617,0.43162961880397166,0.4339033476237251,0.3360402978609143
0.21092784156580466,0.03266354985666762,0.2940509257851124,0.35222460477489315,0.404345186348101,0.47805859612567936,0.4834223352088751,0.36713434358394376
0.21023812568706712,0.04250222174014268,0.2736759008508539,0.31918950485881936,0.3812149936622559,0.4445680063614986,0.44159498251245316,0.31561763935464143
0.18321493861054788,0.02368050192360863,0.21407178993490866,0.2513887415660301,0.2945679965571677,0.3619271305255101,0.3578804595139851,0.2801883059710901
0.11887628403588243,0.021515503816618122,0.15754650345238633,0.1812508056406636,0.2343362667133915,0.2560492230482278,0.25735378638352635,0.2078218663089546
0.18492235075537986,0.02953678457445509,0.27522889212056595,0.3159243636026811,0.3836260735542451,0.4728941566221069,0.45007020099167044,0.34029274999817066
0.24105901340379937,0.028361881536844227,0.3288027164998489,0.3805689735777108,0.4323939489386636,0.5274602969727237,0.49195154069395347,0.35128512514597854
0.23712449822734138,0.044435216906428536,0.3067211434999866,0.36777155542083195,0.40638611484671433,0.48967163261469393,0.4772311219184093,0.358494673391398
0.20547576617938668,0.043669711318857975,0.2544205863065563,0.31831529204401227,0.34428117054859203,0.4206489762667544,0.39728054995036044,0.2732094921814753
0.15366514579820761,0.06024675565111722,0.1997225153220017,0.2395059389011841,0.25924079554334495,0.305180781169844,0.31432268532034463,0.2957159579419932
0.15835155539024107,0.05362705000247658,0.210703226577431,0.26777107425281776,0.3207807337836351,0.39382838847387036,0.4077595869293968,0.29553034467078365
0.2510776453139389,0.07691035177446714,0.3505197676232076,0.42049057311496946,0.48510948400781323,0.5609484227660416,0.5460785523508421,0.36980489202914213
0.2594127678644764,0.0823517764870373,0.33990078335960644,0.43453501218675117,0.4460370659111273,0.5540307816840686,0.5338539171953295,0.40467260284326784
0.24026144437063549,0.06709403889059405,0.3380476629200633,0.399499895096865,0.41573073074008976,0.48749450138171624,0.48768340504820773,0.3754331441430142
0.2021934536220105,0.0823967503971134,0.2603053084387558,0.3306754592560217,0.3393433404567156,0.38607821659571473,0.3968494453302521,0.31080668541919915
0.16089576315016316,0.046650890814627075,0.20313791954028204,0.2354070707209228,0.2725346778959689,0.3060716798486301,0.30937759151882727,0.2768630185212439
0.2038759583193453,0.06490451196413499,0.2988819524144011,0.3316427282498885,0.3767735150861621,0.4621237896939809,0.449773145835915,0.32405430830903864
0.2611895755973148,0.07889425792723385,0.380227657117603,0.4358747746992028,0.45995004118010896,0.553354062827806,0.5423332251991827,0.3727424576343855
0.26854190863803795,0.06604900451044501,0.35601836683558746,0.4378181582267141,0.41381144261147174,0.5060015996743386,0.4895404413495949,0.32973196421111023
0.24365001410245146,0.07773568860234274,0.3279053284644474,0.38341871445399434,0.3872350862842674,0.4546020487995781,0.4697823577301343,0.32264492284247326
0.19441607442402714,0.0577928860015441,0.2580960481386853,0.30950343949883946,0.2995597908079294,0.3523153756301142,0.36822452103466796,0.32497881037906884
0.18499739517843655,0.0727027229885435,0.2677442849165179,0.3178509446902933,0.35786802079002067,0.42807000129493933,0.4355793266644739,0.3753376120402883
0.27354982557490337,0.07255413455092116,0.37881395735239193,0.4387536380626488,0.4749131750904807,0.5562295815019427,0.5344398194332406,0.4618611151065757
0.27004150777089675,0.09923585069776601,0.3855940145080542,0.4439537151001502,0.45552197296539454,0.5311894298628791,0.5162831845775694,0.40863722153632237
0.2413595831333378,0.09240395549185586,0.34216114591202257,0.4027264955648825,0.3786710926176533,0.45839242708553746,0.44679380351340864,0.3698955190037957
0.1971658138657231,0.09300900639194164,0.2746468177120868,0.3092251206561076,0.3043164668253859,0.3381833303571216,0.35937378637901035,0.36214918273047314
0.16221921823326524,0.08604287921791628,0.21348489610212495,0.2609744690051392,0.2592905578465656,0.30292741078051344,0.32003512896107084,0.3343376680383204
0.2457830508410816,0.08946574991148565,0.360598903225904,0.4305111143723622,0.47544462292477,0.5435386812231484,0.532912115058785,0.43280809076925264
0.30035828740436415,0.07390150818308855,0.37760420568795466,0.4641570018865655,0.4983060933230979,0.5579029755847299,0.5466771176741152,0.4599310751066903
0.280111303908303,0.10621333968424831,0.3821768931155198,0.4471429907052554,0.45424439139856393,0.5197285034515489,0.509774293321668,0.4713384794830773
0.24931973338132324,0.10137899725754768,0.3147672692118137,0.3579159018377094,0.36337110772285985,0.4100236367430387,0.3967434840349871,0.36905242856646125
0.18361301131501656,0.09084209046853917,0.231648214200638,0.2659441508484927,0.2667886069928928,0.2879301293744421,0.30941860542855354,0.33999469093075246
0.1552736022632229,0.07940480152142589,0.20769384598405521,0.24326832803011295,0.28240990024153273,0.29487347100938605,0.31140762083214185,0.34522867326786016
0.27090198325447173,0.06376188767311274,0.3589710998163812,0.40611648682454926,0.44526317459540476,0.5316742958787787,0.5210458902833396,0.42555081047508003
0.2675657742397672,0.05627257596809369,0.362523653597551,0.4135393659509305,0.45482398141402713,0.48747829672031734,0.49555284015390877,0.4357750600912519
0.24997165356078052,0.06912625229098483,0.31914991915965013,0.3869149140177392,0.40334202888919435,0.459265535266224,0.4594524458018631,0.40746661836285303
0.18731770712646997,0.05644998858541025,0.2601545594647767,0.29181594168742536,0.30309926494232003,0.3606786819097237,0.3243394125857833,0.3844067270396339
0.13700794005849662,0.04716573390777854,0.18967331354127662,0.2270500622776506,0.25490861682766364,0.2643374398073991,0.26733912768082685,0.3549303674092587
0.2219489014095929,0.04541943165078741,0.28673264285466293,0.3574402150056347,0.40056352326762995,0.4718664493459727,0.5029731927203593,0.4330744384724997
0.25288744783947786,0.06761776597896695,0.3224128999241572,0.38755862617306047,0.41715898041665395,0.49595541405152865,0.4910671905636994,0.4303267210813302
0.24477797876362709,0.05212132053948956,0.31385858758556257,0.36836156864697245,0.398006705211699,0.4600568043921296,0.42541047821508826,0.40407484760412954
0.1931991662998976,0.05820836727508183,0.24995640965202187,0.29154497612795144,0.3301491499297195,0.3486106720384548,0.3384172552032452,0.3822829556572955
0.12408971880471781,0.05193010891132803,0.17346475691996943,0.20199761707604347,0.2515233722191324,0.273274442470439,0.2732941508580974,0.35847017057231506
0.15822927266881137,0.037607795059181395,0.201535241658985,0.23564454159082865,0.32437476541783056,0.3482584703966251,0.3530388907687076,0.39918433203022996
0.247217277199688,0.04326854423871807,0.3462807493345613,0.3894234592555328,0.4542435521406706,0.5390501023909764,0.49688071615197466,0.44858224818594783
0.25205880092027394,0.07594532840472401,0.3297229349048829,0.37793123959939745,0.44924620336627813,0.4779561941499936,0.4706779575280268,0.42774939906527343
0.21653764317796134,0.06757259706233228,0.298693597903979,0.3413317780305611,0.3616795927945802,0.41579829760916026,0.4307347040007313,0.3472042294804445
0.17419433606409265,0.0819906277896618,0.20705723079864588,0.23860550060327698,0.26369501706729664,0.3013203941566369,0.29380431183760786,0.3110218864282271
0.11997150620268196,0.06591160757160343,0.15038513873535153,0.16648068676238287,0.18821383341233253,0.20980396788445882,0.23110755180609382,0.24982778806802933
0.21445008123056147,0.060146036600686584,0.26290702220198703,0.3126396898984938,0.39684971644092615,0.42949760945456456,0.41336412095219044,0.38439962580398135
0.24309083416099417,0.03968205323154984,0.32032646830972045,0.3795181884201716,0.4074062923160891,0.49683225549282956,0.48051406046771417,0.4108757734702416
0.22661737610573948,0.07190137985960168,0.301195113916775,0.333019379366023,0.38306241871414654,0.447639924199009,0.43052610124710045,0.38467176291869587
0.1897025318145103,0.05467304180755329,0.25285766446145297,0.2694837806712214,0.29584628883004377,0.33184350447210204,0.35844646637199085,0.294753230074902
0.11808093749087416,0.0476908242758617,0.16966235686857872,0.1733848288612265,0.2147657400034814,0.2391767449551735,0.22694562237101795,0.27413318741472537
0.1415569112367031,0.05302426146212416,0.1825140371831534,0.205536387607088,0.25467247449973424,0.3087557542951524,0.31696742483219464,0.291332782067781
0.22903284387620199,0.0676547641098382,0.2945696480574149,0.33209040804381906,0.40237530832057344,0.42396004398298454,0.420637320157026,0.34441988519666095
0.22822241375219846,0.06681367482930818,0.268698668606054,0.31342408648926534,0.3410451212719703,0.3831290930121148,0.4060981873563108,0.3432407824481045
0.19328222739984524,0.06780549660915662,0.2435875382516005,0.25862908180253397,0.2922166600655319,0.3482037193951036,0.3638697309084141,0.29782114120184594
0.129155065774608,0.05144804642187118,0.16306768571019556,0.17210753324192193,0.1982381634720172,0.24469011066374496,0.23270643451806144,0.23915219534082308
0.16419405311483817,0.05597112761760041,0.2102576995098146,0.24219946030126693,0.324276563878138,0.3562156974285539,0.35684659854031503,0.27980176432543136
0.25586658525194655,0.062271168801753915,0.33074638124270617,0.3749319298573242,0.38419433862066804,0.4874147891634193,0.47339382556179654,0.3060160410067083
0.24731478482100638,0.0942027766220578,0.31730153050703785,0.3565907154075277,0.374974072415607,0.4509664997603397,0.44293617227857535,0.3441546559639422
0.23434379587335813,0.10094372624964323,0.2835403383184437,0.3187713523545419,0.34147453591572957,0.39630464588348296,0.37472722399736164,0.2736386505302308
0.17335151393861034,0.09520521655768198,0.21095664836555536,0.23451900606107273,0.25270707010216453,0.3075336533518658,0.2718702001563154,0.2360669058027583
0.196766718355621,0.09452328174210053,0.2407111800563825,0.268161578884487,0.3319915333281094,0.39291475631480205,0.3656296126054685,0.2759043765762186
0.2679446632533838,0.10703866425755273,0.3812556833736922,0.41518994006165544,0.4698205801634699,0.5593909279214391,0.5503829493695354,0.3928247891998316
0.27945020782548374,0.08976056204131419,0.3670495377688177,0.4093795835431124,0.436235788840007,0.5273387747427045,0.5215839800081907,0.3762171467843989
0.2536929814775274,0.10763113055321727,0.3370093810210078,0.36720479419267965,0.3706143597861342,0.4500019766575914,0.46182770866327266,0.3582241029507178
0.19774998994387147,0.10597239618096878,0.25740831629679806,0.2890301470790451,0.28870110807314947,0.36181532511370246,0.35839000915524183,0.30643868232199956
0.16685946234924215,0.09457559341044115,0.21701208362306298,0.24880631293774494,0.29200381395724945,0.35041193130680615,0.3424540421394595,0.2953352352334516
0.27797369741392275,0.06914660811157827,0.35075809019391097,0.4389727423725978,0.500196690176597,0.5569613751584828,0.56576914940888,0.4573654161416672
0.27619615415757787,0.06199285063510354,0.36451557832783105,0.4142740466645582,0.48031873364352773,0.5699669116120158,0.5878243976354608,0.48577207392905736
0.26928046170712666,0.07863639267909482,0.3461198924524162,0.39693460981883083,0.475025818305126,0.5294603219874903,0.5396485610631327,0.49327523391667866
0.22660571815625413,0.07384241762428682,0.28904320295619945,0.3346419530649925,0.4913818527347323,0.5541882404255972,0.554921302132415,0.505176761192777
0.2145222856958461,0.10432267185993328,0.26970791408346395,0.29262161998283065,0.5091246796417755,0.5718852326983017,0.5742276013623417,0.5015274207863832
0.29434128508378404,0.11483303603992712,0.3810704296868641,0.44704416236799993,0.5852666293922535,0.7165907933909763,0.6869425776062716,0.5582286405312832
0.3036292836728703,0.10541911474033375,0.38437239039803883,0.4337535758912537,0.5861204843056446,0.6821192033837516,0.6803143239193138,0.5604125857032107
0.2956724314158061,0.11988725038646941,0.37734190532076484,0.42088146350770045,0.5826158394101798,0.6670670449717417,0.6672892211189986,0.5445698954783095
0.2615854667735291,0.10320824914929293,0.304507992074186,0.3397397684802557,0.5230508690297376,0.5863011549771722,0.5890714792148538,0.5001863373759248
0.24034843613401102,0.11855470348055157,0.31147146983954976,0.35276302122408776,0.5275828487311001,0.6441560522075042,0.6235131358761966,0.5178433613165873
0.32972461961512406,0.11563181617162925,0.4369632014650481,0.5047832148918382,0.6965989468343157,0.8086868366419707,0.8028109886211316,0.555160433168423
0.33230052797528004,0.1595163396712606,0.4479643144101059,0.4980792838758197,0.7294954119337689,0.8069402574087623,0.7926549266312425,0.5471934127473498
0.3308144288948803,0.14982823446459712,0.4026103497951193,0.4638130392181793,0.7003637783717603,0.767190721700163,0.780032129689704,0.5381501909540494
0.2791783863791796,0.13604355688201758,0.35486311142645577,0.3779451329836455,0.5671413491238968,0.6331210240203488,0.6135009757676546,0.4804409150796981
0.31030177597101677,0.1502235216910137,0.403117351593548,0.4656756328800548,0.5903757725650112,0.6770610890481613,0.6739442027713578,0.5151445959336886
0.35184060200515543,0.1242042114786065,0.46843058134781096,0.5428394928743445,0.6503752083150423,0.7176681316532009,0.7197106309280747,0.5958964333031277
0.3490548730402886,0.12364344630553631,0.461800235345879,0.5097961970329538,0.5891320844015185,0.6860615887331718,0.6566802335479168,0.5583678285275289
0.32352590192269554,0.11221279244104035,0.41037636444827347,0.4598894829530566,0.5171858764628904,0.5948755467667318,0.5839365581195731,0.5304245478731702
0.26756853088916904,0.10322940448429933,0.3223598474925822,0.3708605541444825,0.4215345800476583,0.4590338732177497,0.44854282218277497,0.4782582042425531
0.29429600584384996,0.08505193738629462,0.3832634289336643,0.44788342175008544,0.559918741731186,0.6112973422868465,0.5906267973798349,0.5556863018400292
0.3323831361162548,0.10449551390763262,0.4608725800114024,0.519422764575261,0.5903968827824221,0.6575621907765559,0.6493084305511518,0.5544327959506027
0.3244295826380424,0.076524636978491,0.42570689753574414,0.4851993017031755,0.5485662873213278,0.602656167951168,0.5955898131660687,0.5345799874063034
0.27941931068253667,0.06446175737042933,0.37734398464554963,0.42448582355647785,0.46743089698080503,0.508062470647049,0.4949833758142265,0.507011313841094
0.2263060472323648,0.10038203094959114,0.3019595992586166,0.33782837978545394,0.3652721830664908,0.422100554922558,0.40642002680105294,0.4608580089283634
0.21806545281688605,0.06085387779756724,0.2603223832682427,0.3012723437662113,0.34919397642179995,0.3727981005588291,0.3615548406904905,0.4356111829392385
0.2931467485656457,0.08697109155401515,0.3846818517594845,0.4471113537553064,0.49099949568087914,0.565760535581698,0.5508915860527578,0.5270929983329646
0.2802091365748518,0.0772636415155409,0.3721415441720772,0.43977145686218166,0.46983323685605605,0.5106434165488796,0.5013759002110071,0.44536264842485157
0.27215307129688987,0.06942230011245894,0.3499290167638314,0.3905387781603114,0.43692309156381104,0.4704258595438043,0.43110205895806114,0.4885302837692116
0.20901153828182625,0.06503635618508638,0.27981336022515974,0.3105688675448309,0.3555750251754933,0.3510692961213519,0.3303182924063283,0.3790105150017351
0.16498037317865794,0.08704479996929332,0.20980435819207813,0.23839852894773453,0.26595391227654264,0.25710255466962467,0.2441957359522375,0.3487816383342658
0.20077793646278844,0.07343514567003188,0.2704667827873639,0.29805266435404093,0.3720734296395271,0.3702894050769632,0.37344279343320413,0.41402351556477784
0.2627855706152523,0.05999933991241443,0.3664873331996784,0.4102041310418532,0.47825000675707485,0.5035759414957094,0.49751896024235337,0.49576731945801245
0.25836201888973215,0.07488413027276945,0.35864761983477617,0.4066980030412737,0.45196225024745834,0.4654197212255194,0.46581481109755163,0.44099630509616317
0.22269612940105837,0.0902009538928577,0.3176012048484105,0.33046170354073645,0.3942810616268739,0.3977332684053548,0.35035232588532733,0.42538032427369155
0.17675441663184244,0.06870136605462074,0.22970210099246846,0.25720717976402696,0.3119775420149465,0.2665067235947683,0.2958671918951006,0.372588836293505
0.1212815209936576,0.06406197982881781,0.1586196171139421,0.1811995042388719,0.21493701803932197,0.1769427492026921,0.156163613794087,0.2510385703652632
0.10921183949547926,0.039019761255005794,0.15935401561135487,0.17305281860874794,0.19672557873437255,0.19138473318871194,0.18412056836550955,0.3152250428026153
0.20467483635267772,0.04565944427911106,0.3156122231353076,0.3395883631590744,0.37150594517301017,0.4097104917899946,0.3780847089296698,0.38375278642445254
0.21719770553499435,0.033147896117704086,0.29976354115055276,0.3227328933227589,0.3539323308980346,0.37490064732126616,0.3299573173368352,0.3365406369924443
0.1902619502780391,0.049866529653337106,0.2617747548215028,0.28470480700461076,0.30728026633785294,0.33268646578945493,0.29541987652362217,0.2917201603097321
0.13629796883250755,0.056522643540278424,0.19028744577170625,0.21506310951950772,0.236694290316976,0.2253500003150854,0.1792673447714846,0.2592964539807971
0.0913902210366735,0.03842243826576376,0.12864281679241707,0.12942832858731748,0.11824046474344208,0.11588068554430929,0.13152684317300103,0.22198825176587628
0.18233828895134757,0.027956403666536445,0.24370395179777204,0.2912980014822407,0.2969536360793841,0.3215767561686852,0.30087578666324216,0.2500426488701547
0.20309969853878132,0.04808397684461341,0.2849635106578117,0.32036590129563275,0.29462677627372996,0.3021344843816358,0.2972092004386168,0.27486394065116565
0.18564705115101768,0.05086462572580132,0.24973196506043377,0.28572782133739966,0.2814523939569208,0.283343441706757,0.2594546741463597,0.23295291895803483
0.12774936707791273,0.032911319299080505,0.18824700009346063,0.20717855697987506,0.17447880677939073,0.1996079497000813,0.17896989664354312,0.2322671543944727
0.09108104085406243,0.05645090792916857,0.11997326937034142,0.12342017462990293,0.10174559182086454,0.08453241832786745,0.06901836947114029,0.1683802632083164
0.147204197055796,0.04970233700900585,0.19664093709949487,0.2201068349386649,0.24068966878071452,0.24231331136715714,0.2225288248769024,0.244793313311689
0.22323136605876248,0.060951000280970814,0.3161431376182892,0.3455875698448626,0.3400349653639637,0.3626502751282942,0.3332675257856542,0.31898421660374093
0.202360162347778,0.050408080994577206,0.29788904862100096,0.3303975730737902,0.28666390027378563,0.323253699869157,0.29720231865789193,0.32034690324863724
0.17017577417057292,0.07522368611590798,0.2541868155931106,0.27161173641684117,0.24864657921531405,0.2503339807735792,0.24289216063571425,0.2760573623120738
0.11737202360671087,0.07384804387804737,0.16507757741859325,0.174024142323143,0.1599383111538765,0.1516074832259501,0.13762603416534788,0.19371688581992125
0.1462295888643188,0.049779910424692785,0.18158750328616943,0.19782542734402123,0.23286775915551938,0.19087796709598345,0.20193979423140937,0.2625717904127672
0.2315912849325306,0.04326686950125994,0.3240185345548083,0.35476468306859216,0.3394109118177036,0.4085302071032493,0.3519545743734035,0.31765716820365436
0.22662017605771897,0.06638176283414325,0.30100462035583514,0.3456568841879013,0.3181162529583905,0.3682331639784775,0.32340508065164475,0.3225362723957972
0.20046382088056827,0.071775381363451,0.2749474441776747,0.3022030334904999,0.2762377628149014,0.27405607300622487,0.24583143242249875,0.2625560014628388
0.13313289127864633,0.06912705721224223,0.18952194054319646,0.19689143828172098,0.18032052668532378,0.179746534291648,0.14846804220281704,0.19639306132897677
0.0937442091865421,0.0693658107604742,0.1574436045023015,0.1484335324163451,0.1373604829552423,0.11336816253256067,0.09765533919249968,0.16956983203768955
0.21201911618922936,0.05625109406188492,0.28879762734776854,0.3406921721602208,0.3201629451181674,0.3347337387157969,0.32024012251671197,0.3071933644858338
0.21212932824199707,0.07509401393895279,0.2970559131539855,0.34036345335963136,0.30860829969803105,0.3008149206084005,0.2862071163495604,0.24961115039966134
0.20760709124308865,0.06441391354529655,0.2793987297900301,0.3184433893914886,0.2664109917039721,0.2684907392077427,0.24348770876102196,0.22990071397254155
0.15735905055623722,0.08077274267019527,0.2139838814541767,0.2325602064909067,0.17058597487406763,0.15415970647035263,0.1479768742409329,0.19405074037636533
0.1224194437443258,0.07087389860997559,0.1631923231302974,0.1786302566309271,0.14476381633888638,0.13457236910997586,0.12091012231028282,0.18463421167841856
0.21209710352554603,0.056654296491776286,0.2998714809126274,0.35934636398183917,0.29807041801862094,0.33804050094860777,0.33574729027113215,0.27764124261747963
0.22574386023109996,0.0017521481292694545,0.3027168660082148,0.3528869322875904,0.2920054241035048,0.2888695582518345,0.23868590346278967,0.25800745272713455
0.22261976656892352,0.011574827324353502,0.2909050317896491,0.3339542123604398,0.25830843873698717,0.2590994426348432,0.19724740963205367,0.2832140340833042
0.15344205545220013,0.06611383070989807,0.21312482290054252,0.24211695938049296,0.14347277341086942,0.1265427295025944,0.13220292935882474,0.13963082883842992
0.16851061424817668,0.0658913381908861,0.21941635479393065,0.24058081061363934,0.16087213332663317,0.15545864434431775,0.1412147239087304,0.14209216734666927
0.27592654084889434,0.13343535504462642,0.37803875118083125,0.4105300997495169,0.3396538733734822,0.36712385311596474,0.35062521807642644,0.2429142326792779
0.2857134167982276,0.19138488188765773,0.3835078139085732,0.4154394383966052,0.30588377786713367,0.34598850456914537,0.3184642580544652,0.21046212581296006
0.27326965023105376,0.2048149407959221,0.3632708814712395,0.3873899285306362,0.2761980385832943,0.268339616747361,0.25549166215981106,0.16622276092275892
0.2302199996826487,0.21299748679564046,0.29699748893095734,0.3013728323299639,0.20045279978810224,0.1597354592574931,0.14417064967127785,0.08643012281521245
0.22237870656834186,0.18505305691208124,0.3133422148637606,0.32047424936964364,0.2039128294509998,0.2352454670912212,0.2236485040730434,0.12198038569804066
0.31386482161715196,0.20553517857490516,0.4336824315665083,0.4727508234259688,0.3775358389126304,0.4281724931017668,0.3565481681646202,0.19828367536165858
0.3182000627729204,0.19667105824723147,0.41603069792819636,0.45488906220574354,0.3486275043671806,0.38144716952118485,0.3389435170430257,0.20276224404878365
0.2806597807078708,0.15076119836518243,0.3785459995306356,0.424372118794683,0.30828722694055455,0.32523408891431554,0.29376043065580293,0.1924557813521475
0.2247811644137783,0.119798040893992,0.30657807567440715,0.327471757059768,0.22362146593889326,0.2398119118350427,0.19113562895941344,0.17513830837520025
0.22697335227332585,0.07737501835259691,0.3094260653860626,0.33829891073820983,0.2895521011598051,0.31357004102803726,0.28887035435149727,0.21950615885204136
0.31616258908483763,0.10503740254080798,0.42868462933885326,0.47527172570827214,0.41895103768108677,0.44966643068394874,0.4175013166154245,0.3264623781962044
0.3003711247184526,0.08256199542613157,0.4106355933412281,0.47549783701329573,0.3762516807813729,0.41232726472656817,0.39058086414688825,0.2848210918569508
0.30848216976297943,0.08533560416673931,0.3739207575148863,0.44878622892384007,0.3584053341207456,0.3539219888263276,0.3254253968866923,0.24367957482810623
0.24918822224052842,0.07695112729115025,0.32734826606020356,0.3628594547992983,0.26064461401815175,0.23937773883402713,0.22995819702611167,0.21275247026902544
0.2403644312124721,0.07602481692603863,0.3152685614502708,0.36829946214601855,0.24409642121382027,0.29518440789898037,0.28862772700826594,0.22615477028110104
0.32078938888992614,0.0861246414533667,0.417421462872984,0.4949409501421161,0.38003720594050705,0.4535515497524679,0.4285156747501416,0.29779052674708995
0.30506878836998014,0.09035519849328721,0.40727537429162214,0.4774269447052891,0.403514825078025,0.4010442390700982,0.3876731066729242,0.2332833083567232
0.29644432580055846,0.0894025835211729,0.3869156979453975,0.45188629770839195,0.3553235928858292,0.3724412135622853,0.3535536939544303,0.2529475441884361
0.24870891670878742,0.09889196243233735,0.3161686368054887,0.38589364966440537,0.24738524333606224,0.29351785755410165,0.25744169032050296,0.23903935772358106
0.29737196392280657,0.09180236358723506,0.39769246789957363,0.4720605185302935,0.3834179934802788,0.452809701378438,0.42298487460828715,0.2806315845505138
0.33527272032847993,0.09325786251587015,0.44572442921053546,0.5300649207962856,0.4179899799072262,0.4848139893105552,0.4557570151589954,0.24597385541254918
0.33455847049872406,0.06199098105712748,0.433724770598928,0.5197338281673575,0.40780110188650076,0.4763735179410347,0.4414205743102204,0.2886589162886563
0.28921137749289344,0.09922366389067762,0.39958997353482384,0.4724230304621865,0.3201870007368626,0.3781727561051027,0.3599513094064803,0.23793460575152806
0.24049580418476085,0.08468632416094506,0.34337847628167417,0.4111846358246674,0.29484705047879484,0.3036658816518087,0.3062098927404071,0.1686989061226537
0.3441405342814248,0.08267434681468157,0.4847298215832369,0.5741829866898689,0.4840946006275712,0.5536652974179311,0.5260148778300154,0.28978923501978004
0.3645894828579329,0.07849424848795265,0.4918615334698208,0.6265776638808709,0.48728155678703877,0.5693446779429605,0.5317595594581138,0.28214790880247953
0.3626610592321055,0.08534595742689353,0.5008023058201956,0.5961024156954938,0.44043040367430525,0.5065651388244748,0.4987389336021688,0.22342773083014672
0.3138702212737891,0.06512277390764613,0.4304743156470205,0.5228178333390668,0.35695650572601534,0.4345281680057238,0.42033159923782704,0.25324130959829777
0.2615622820753227,0.08584724341008543,0.36532670425832126,0.4555095086158128,0.3183595669713476,0.3460352270858887,0.34052833595772186,0.23683974285151807
0.3461070036650937,0.09389031535811204,0.508119599452529,0.6264430604665789,0.5015551674168985,0.6016441580884246,0.5667155381049367,0.30304607499605574
0.3762700114413655,0.07293704461697222,0.5414857599219538,0.6588197703751474,0.4983193430106544,0.621740838824041,0.5843988643142622,0.28426176670549536
0.3735837155821986,0.11291812916170754,0.5254456854406608,0.6309841810271555,0.5023391523237973,0.5780583386618792,0.5643542773290575,0.3531530200538031
0.3309750621658496,0.09092572082835969,0.4545523131802398,0.5618709312803157,0.4172081125338966,0.4920411309549824,0.48205658352364616,0.25298910236624156
0.2807609156322893,0.0905496753362148,0.38479826717709575,0.4793888217929279,0.3402983099981804,0.4006398226670739,0.38414295764913803,0.2763599019159794
0.2318418282562899,0.08915248508482916,0.35827133976101755,0.42597222517842054,0.2808017426087412,0.3469155168325542,0.34484662447895653,0.23137994151982122
0.3352438277828706,0.08445803251308184,0.49452295128999796,0.6046670324946143,0.47189529364096305,0.6040171643177059,0.6059009528585554,0.3258147469659964
0.34233276784480676,0.09243023763778425,0.49769558533482205,0.6067222177783463,0.4785912477550391,0.5727309890694989,0.5487007083290943,0.3530332647695878
0.32121244479797584,0.06924384914066,0.47850168561321077,0.5881900615600294,0.4600099630900476,0.5384475035645813,0.5105213734755915,0.3200167581943181
0.2786461778655149,0.06846096268434596,0.40600856777188443,0.49141863982301776,0.35567319895404903,0.40438455304318255,0.4025041587688643,0.2607187007553985
0.21843428033222398,0.05587187896232858,0.3374805717481114,0.40488239883846516,0.277686744783895,0.3315675437023925,0.3198518341549403,0.1792636482498261
0.22032036118624637,0.04217467562627263,0.3172113436490723,0.3959141645807382,0.28264765049461715,0.36036072004298714,0.326984615563083,0.17235443855418636
0.3006316905847601,0.05574066396757132,0.4536946305276585,0.541223814784002,0.4232751220589913,0.548727592169761,0.5393015287591949,0.27470632303791415
0.29279621976165343,0.03807000333517202,0.42733641513464105,0.5230891812664542,0.36602560638149534,0.48284264288686807,0.4769989331211133,0.2363069793298823
0.2695738723598637,0.047605706883112296,0.4088508404435975,0.48936746320844376,0.35151180893225137,0.4328966651444454,0.4459743658232016,0.22178781004857923
0.2343910840869042,0.05042789206521213,0.33744931638659303,0.395860985213537,0.26639517191963946,0.32763662118714076,0.32838015184311636,0.17737765608417583
0.20629552372121887,0.03316207546909833,0.32107086604988794,0.39572918137977764,0.2627589812014179,0.343208195072638,0.3718015520078907,0.1616140759405421
0.2976217677253999,0.02881027388400028,0.44665104236671943,0.5261739776878914,0.41296624987288194,0.546046896494154,0.5222185442780265,0.2690312246841966
0.2970505203708758,0.033348355963647824,0.42210894434326096,0.4972566230458518,0.39193837886596355,0.4909615914974271,0.46806028972965796,0.25340757603795994
0.26243087838589585,0.028542436337161053,0.38890859246369575,0.4650488226448037,0.3550249701303008,0.43494155815559427,0.44836674184696834,0.1947062241609058
0.21511124221040442,0.04151583024079122,0.31558736621360617,0.3716058024969582,0.23748565659109377,0.33169544079067953,0.33097099977421945,0.13937947501293332
0.20626192159376663,0.03487855048453116,0.304464447748594,0.3611195931734222,0.2639393672646638,0.3559413175892767,0.3634438118179941,0.16811916947812536
0.3119917799284982,0.024071550488667333,0.4439012586191955,0.5401412021801009,0.43834498429324675,0.5610153195504067,0.5520764542072443,0.22294284470691586
0.30940246622749673,0.0512811296204401,0.45752573145383674,0.5419245995156777,0.40633947473447846,0.5489389327024643,0.5641033574995332,0.24847282910318202
0.2999490274397575,0.04947953018483399,0.40923617271074936,0.5084104116419765,0.38789801749112396,0.4890581318515483,0.4966070676946572,0.21208675799801763
0.25411594864812126,0.020130141513376512,0.3562457874633219,0.3957232579163463,0.30211126994217,0.3847245483494179,0.39845359223562804,0.19841049705325062
0.2112731353221022,0.058331268303784156,0.2957650614944651,0.36185173449960195,0.2526138613127746,0.33262515609796506,0.3501461077447169,0.13015746892672714
0.30348238350146806,0.04591862128800416,0.4375034309385481,0.529202952410685,0.4276115897184854,0.5713004903015794,0.5942073279324669,0.20952059905803008
0.3226124717445819,0.027787936271156995,0.4578786610891556,0.534826819124997,0.4267975853427441,0.5559591112265249,0.5580659935644744,0.22546299947373827
0.31118981295744114,0.04537618425225063,0.43136473056612823,0.5024985117550342,0.3955806316360579,0.4945466305270498,0.5088445718910464,0.20947918462931361
0.2718818506347676,0.03908555108620168,0.35167957688466195,0.4111250405222373,0.29008771822574253,0.4082317131768865,0.41399736592667546,0.1749498349139001
0.21688598957393115,0.051214620706935034,0.2949181239678231,0.32994466665431527,0.23126853709634448,0.3120567321381843,0.3190816101713784,0.13567896936215074
0.2931213184310908,0.04285520668805023,0.4148199172885708,0.4668624996501491,0.39225576248919913,0.5236645616762305,0.5563256817491763,0.23659625229929315
0.31657224301787223,0.0902095726114262,0.46151575812548973,0.5375954929339328,0.4322715860865901,0.5539330617438224,0.5567092290912987,0.24480822148109138
0.3190656332265624,0.08252298384702339,0.43795399895026416,0.48350769942628,0.389110670462188,0.5072753577432646,0.5231972494695131,0.17462326008104553
0.26609276332274634,0.09704625051850556,0.3569367687342068,0.4198553504727666,0.2996298911188802,0.39647925944578694,0.4178061140437092,0.17902893947739804
0.20082823009373615,0.0473120944718606,0.2893384131727112,0.32112367979240436,0.21885780787817463,0.27943335116629936,0.3086774760876576,0.11586675255751126
0.2307329467749733,0.05059456538343153,0.3434762620984061,0.39193320125887177,0.3185201569110177,0.39217430580630946,0.43461946187455947,0.15850900810131138
0.3031969804524616,0.07499142493573129,0.41682280613478845,0.496792820958804,0.37536193906797594,0.5029708755475498,0.5120908494249011,0.20398006345561526
0.27766352696725544,0.0637327275165925,0.3887594118260075,0.4630645959681604,0.3215955079777545,0.4338920203507178,0.4757024460734993,0.1624852580318722
0.26038618381102524,0.055890851121658376,0.3479511235793425,0.393675535064969,0.29079298937502623,0.3884655847787753,0.38481524836176456,0.15370476930656093
0.19663169293139166,0.06973554072699127,0.2883534909455357,0.3261973771046792,0.2123273474009538,0.27900373504483955,0.2992048501128167,0.07523503385031897
0.2734621163957266,0.06601251124350332,0.39673840166831364,0.44991842483376737,0.3669854361370292,0.4644376951651763,0.5033390308194554,0.16438772983343083
0.2838228036527462,0.06655730775316583,0.3986587502291478,0.4645800670036384,0.3330833451944286,0.469861878244372,0.4622268650199677,0.16002940672951155
0.2710437165377681,0.08115608385108844,0.3662428720617739,0.43042541629780645,0.321665570501557,0.4229316391397992,0.4164260186578163,0.11003661471852498
0.21864318239894087,0.0572866966255084,0.32078332102163937,0.34880705876353496,0.18702934129415508,0.3169503086767299,0.34179266827974664,0.07272930155358208
0.23327405771647217,0.04763526397149781,0.340968258468622,0.3831461529053554,0.28204972281678375,0.3998110453268881,0.39600658729690474,0.1312096099231616
0.3151753090231399,0.07073267754263346,0.4397227101376012,0.517041289312388,0.4022005904186263,0.538906929507229,0.5456738755088063,0.17483625495531036
0.30580574061173194,0.04489882037854346,0.42133663798360743,0.4827888302941465,0.3776614517084432,0.4908165620712303,0.4839192243652538,0.1690444844879974
0.28773669117916933,0.05785842271457403,0.38612040437002243,0.44581101465084244,0.31897394802149925,0.41502178631334274,0.4227423730219428,0.13236122533507286
0.23791757898679772,0.05663431813084982,0.33074681228347635,0.37483016464480584,0.24879871692612543,0.33689374708593683,0.3691435327627741,0.12016663723802415
0.3176377965349189,0.08078746259889016,0.45202126304514834,0.5312755974561276,0.423047573670655,0.5762791330817758,0.5598340908998408,0.22378266994022797
0.33430229933282485,0.08482756758800315,0.47325205813671073,0.5600912966380067,0.45670551586936037,0.5708970070292355,0.5576392947936635,0.20947602307195834
0.33181256460628156,0.07974780426783656,0.46328412202095853,0.5416094520672496,0.4234953102086403,0.49896972292224256,0.5029731768890968,0.2277736727270003
0.283193037037134,0.06264865868208672,0.39549471317269197,0.4643119265266197,0.3220627138847096,0.4127932332550284,0.42169816990643716,0.15737107450712123
0.268920854484457,0.07078892523163165,0.3810419026007049,0.4462145578368111,0.31529353418736406,0.4073607153296898,0.41616818995909893,0.1538160493124865
0.3471716391720126,0.08441957757183713,0.503904426203353,0.5811296521122892,0.472418185274876,0.5770420118636633,0.5714583425672906,0.24040488313589362
0.36648952855739675,0.08817298743102434,0.5177993519396874,0.5840842995012409,0.46058688423717514,0.5801043501394344,0.5615871525087927,0.2622034085136576
0.3565738985186036,0.0761656868633121,0.4803634577171966,0.5585384940141535,0.4020108726503403,0.5394787529284448,0.5085726779696275,0.23500812231066548
0.299584465359637,0.11110666306708035,0.4121186862476918,0.4773474559838307,0.33498013765465245,0.42243689448648575,0.44367113535980235,0.14100082928669674
0.29215930145448404,0.09079948251737453,0.3965693490470768,0.46085019611421213,0.3244072071461967,0.43152576688080313,0.3812190551643049,0.18127921826506418
0.35959288898391867,0.05966642281374552,0.4903769576508246,0.6012967625931148,0.49304652417011824,0.5991557406714196,0.5826134564657944,0.285574838774848
0.34353449742683295,0.0060735017507389175,0.47854719236532234,0.5866425875934504,0.47483822287544863,0.5891858049939103,0.5659529016648935,0.3230459308045548
0.3215728843753584,-0.021392604003896146,0.4225864490307467,0.5375752544440424,0.43502172040111664,0.5374926427606713,0.49113918224878755,0.3083207306702789
0.2639833801299025,-0.0570091395994526,0.35472387944366374,0.45502386662921024,0.3507116580463302,0.42198500767708547,0.4189406732554646,0.2890013395218535
0.19856731639512482,-0.129363954697448,0.2755925550950845,0.37153523182439685,0.3053101962142832,0.32984358598767366,0.3516908595675795,0.2469834493069514
0.267593705062368,-0.13264691138839746,0.3724280997706016,0.49808384088557156,0.468133324251124,0.5550373087778686,0.5412843637644025,0.37620017959568813
0.27825296173603026,-0.15544513976348504,0.3920552972449844,0.5276856556793932,0.4528272623119109,0.5469757808078965,0.5659952766149697,0.4077236537618899
0.273176608294855,-0.1556206943671822,0.3655677879370491,0.4934709176744743,0.4602476511015768,0.5373915438372849,0.509259877296977,0.39782964700146156
0.23409393393265285,-0.13063851242405106,0.3395698612949393,0.42941021512545924,0.37671273764781193,0.4539435873615619,0.4476412114452468,0.32941199742872457
0.20271217465687574,-0.13184272376240913,0.2772470124328008,0.38489303887018594,0.3575219245150782,0.38280624493542875,0.3860967246864303,0.3185046236161446
0.28900927573310486,-0.09301830495240063,0.40682347202755703,0.526574000442972,0.4926646745150419,0.5789081191250909,0.5603686351376329,0.34443872176570467
0.30306759752510376,-0.06585609632566738,0.43572306911868874,0.5350374592462446,0.4533274839374852,0.5601715762715159,0.5447193470297427,0.34679088361272775
0.28565170115092414,-0.09254266271271855,0.39602103848868453,0.5000714600452331,0.4311748380279295,0.5494148882284404,0.49250999778444293,0.37138002918764795
0.22605336435819354,-0.08461211527205294,0.32512869487834734,0.4252230423368699,0.3399707434830693,0.4124900591764929,0.425054841877193,0.32882669924275876
0.19232058260901003,-0.08823392885008124,0.28794267829523995,0.37300653566348974,0.3350677364837858,0.40664455602188215,0.3824738782061091,0.29617467033804984
0.27954943445074093,-0.09069563302062628,0.4085954553266733,0.5250311257505099,0.462211254550251,0.5704359288493284,0.5596188289675984,0.35904419747439903
0.2690233800063792,-0.10593794223048016,0.405169830258364,0.5196200899515848,0.46596788389470023,0.5445817698405028,0.5362748104033563,0.3825195022708099
0.2505723059982457,-0.059852335458302104,0.36923010369851794,0.47781575975286866,0.3963180191564136,0.4940596775570759,0.4703966351813428,0.32496687716980727
0.21081271132402724,-0.0741717541471495,0.30306638201536024,0.40167703677135136,0.3077422041802225,0.4052377646003719,0.3855243961466216,0.2758772629616652
0.2051582716043219,-0.09894829132883162,0.28892299745267847,0.39165889680959165,0.34627044945227575,0.4377750976372049,0.4132554930078832,0.29959296173511424
0.2680663831267664,-0.08136554853737797,0.41622844577240825,0.5156198693501022,0.4419222072684055,0.5356595451113147,0.5274792069489155,0.3642489237246995
0.25903239400331723,-0.09366459478794407,0.3948206908581824,0.4854469645179861,0.42070928392000323,0.521136972246988,0.48885920919123105,0.3224047725778152
0.22076249852928617,-0.07617746670587577,0.3473174835650256,0.4430409130762889,0.362445051289206,0.4520954430950404,0.4128166607466394,0.28443322932524207
0.15439375346496062,-0.06861481523256492,0.2640631858832888,0.3520254161363862,0.2674581546124301,0.3437960042177853,0.30848276187015217,0.21659011707088652
0.19743078745423948,-0.08625018568379492,0.3295930131642104,0.4165343631483463,0.3751918802883831,0.45566040489819365,0.4270950360060668,0.2507933694501351
0.26008420519993447,-0.0924754829701217,0.4058908839921912,0.5152937239788911,0.4472210611777523,0.5646169377356437,0.5361706030290165,0.33929169688547056
0.24887847550769832,-0.060662351425083805,0.39397207127567885,0.4868637425851553,0.426954502166601,0.5243247256847315,0.5103965549546633,0.30263025217373085
0.23167961277530308,-0.0827967683085976,0.33573889402266166,0.43708554832825997,0.37428501842296596,0.44305391710271397,0.43128187484617875,0.34706435240332173
0.17179052179710536,-0.08450623776876327,0.27924779423896673,0.349584662367929,0.303588171282266,0.3620983808239045,0.3245036911196906,0.2903504758311458
0.17709984189875852,-0.0736029706777057,0.28491176415853664,0.37867005572220486,0.32238691269242464,0.41103525711521655,0.3877533787880042,0.2795788670419005
0.2590987196701978,-0.0857487675291313,0.399666034691511,0.4939764907913507,0.4589600296543414,0.5494577399620384,0.5254267483998121,0.3624835029551912
0.2464923421934341,-0.06936504303781407,0.3730214425459372,0.4774243936410133,0.4331280791284206,0.5032366102050009,0.44586703043205694,0.3791048035755505
0.2340975576856603,-0.05528128172346112,0.34543388326921753,0.42393700486022456,0.34689431550203925,0.42926363960408065,0.41261218599471255,0.3176428594677455
0.16613267497299863,-0.07325012886991432,0.2562131204920348,0.3381096034582211,0.2785632963480855,0.29750290332236573,0.3029064942019525,0.2588393717404697
0.1266245595980318,-0.08796579708276717,0.20594166592885566,0.25551752529311744,0.20215333515117598,0.23663999605337444,0.20304074465114572,0.21256575153454446
0.21585569796987833,-0.10292711653593486,0.32909774881687587,0.40964679345688876,0.37536456404972207,0.43334673597498014,0.4390860776417494,0.26369117390224295
0.2212549165674886,-0.09293896174642784,0.3236469229640135,0.4323525387517592,0.3852495327851709,0.42892420115658597,0.41246317344844785,0.3312990979294594
0.21480632172857486,-0.11529480529770637,0.3248659564883639,0.39258783816761744,0.32744942098871993,0.4039350525038123,0.39844155782798385,0.2744897895883803
0.15129722334119003,-0.10532972730213878,0.2372160442031868,0.31927489710702833,0.2767473203751228,0.32164811278106825,0.283454070311532,0.24969178908034528
0.1162638466776844,-0.12159202206587369,0.18496931240903328,0.2414876495588572,0.2211504280546196,0.24620709461520393,0.20916542831869434,0.21036812133863989
0.20886102959380265,-0.1255457127960712,0.31888066743485,0.3880019819311787,0.36460928399355286,0.44918938577611706,0.4328218491834203,0.3014345537056851
0.2181503720769179,-0.09914280480435772,0.3428254465927795,0.41526521257872234,0.3650517708445834,0.423556970028702,0.3894647034817111,0.259723975921534
0.2238181474008484,-0.09132554239776561,0.30498214581752536,0.3841832905203344,0.3407962434611443,0.3916175725166545,0.3733764177460748,0.2989361626876935
0.16027080475705896,-0.08163408837697463,0.24708734367875146,0.2945073725600161,0.2426125379477323,0.2839040617625773,0.24137215229227518,0.2663355335839575
0.11376744898956707,-0.08098450159677271,0.17250433789422082,0.21354294761056639,0.19016568710355386,0.18344992059427168,0.1619720943184568,0.27145743449981957
0.18031774442045306,-0.0715966241185062,0.2938910314529687,0.3644074986532011,0.35964064645675103,0.38187379764007334,0.3729338372155829,0.3218377108082657
0.22165905535929067,-0.04146302635682928,0.3491169103621932,0.40846859646788997,0.35248290576885577,0.4184112069414548,0.3853463891603762,0.2962394318967815
0.2053814373302284,-0.042527560559039584,0.3167069211606494,0.3759109725634385,0.29770911738513967,0.35832949715132806,0.3224213557750539,0.25981843149092787
0.16047117705566527,0.011425789284801133,0.2521255035959305,0.2857975020605052,0.2102104414274411,0.26452808948781786,0.23686376300537848,0.1806651145624033
0.08703779186367099,-0.017545091206115505,0.16412022913658325,0.19005187104148127,0.1469550172850261,0.10315972104164695,0.1117112515690016,0.12254047294879339
0.1322392171551948,-0.02635948061913469,0.21328662341340912,0.26318856931632667,0.25699227817951076,0.24854234213178084,0.26171707863620697,0.18085229536921302
0.19618848468460479,-0.06719184372484312,0.28026542511216235,0.3610451086627848,0.30829821153557796,0.35058929550461715,0.3463974479008302,0.2954891914643264
0.16133112828271157,-0.10813426427107513,0.24732255570962708,0.3215841080916411,0.301378525228732,0.31687563605975616,0.29509586210484545,0.3175706226177718
0.11797992425072425,-0.15719082115010677,0.1971155267510362,0.23885152290937087,0.2174738081643389,0.24860532828220605,0.22244322461297195,0.26346940553761017
0.05464774415042941,-0.1393181696030466,0.10673122544700601,0.14664652335261827,0.1361736055856244,0.12027692635619765,0.13228951529643398,0.20787334173883434
0.15814369406872736,-0.14192409184292154,0.2410811297717739,0.31218360297458764,0.2976084424651281,0.36861510707490375,0.38252566233042,0.31653997966307823
0.18275706832473565,-0.1298984789714636,0.28078021448608315,0.35132123483500605,0.30399967865617067,0.37814836984648154,0.34565477283641216,0.2446528272313408
0.1763577434667603,-0.0886133796802761,0.2561493730166596,0.3075267389314367,0.26118039961741346,0.30903398074216976,0.27574603898574473,0.21991998085487952
