0.0707234292298904,0.181158814454669,0.07169398990976944,0.07912637612405964,0.06136556101999825,0.06845116140715865,0.06963532072858206,0.19029221451794084
0.17214521715204648,0.199215207140033,0.2183833325499139,0.25367568766786003,0.23341003006702032,0.2486041558674663,0.24822649889921106,0.29194334119428594
0.16589207964482575,0.20901080091923058,0.23015337895641086,0.24895772495640542,0.2437573377034659,0.20231716904368865,0.22958169717982002,0.23145121885224026
0.17103783264066635,0.19345400710883084,0.20766820446656026,0.23090036346205012,0.19461384017365316,0.18509911428118483,0.18649092774177567,0.2299985983058633
0.12677989801616835,0.16717241449354228,0.1332035727857084,0.16427502611311592,0.11204765076663817,0.08642099881118445,0.09765279624971092,0.1864387129520551
0.07964469821932207,0.16462922962643045,0.08582113722757388,0.08298888067983921,0.02761208624457365,-0.0060326249710250975,0.02251443174028646,0.1362131231380087
0.11838645094615113,0.17787295270906733,0.15270217545474524,0.16937150731355002,0.14016438439165077,0.15766349799387655,0.16116834673760227,0.19171001513657454
0.19289233791513735,0.19648375184665806,0.2580860817032531,0.30224263305681187,0.24845275236815664,0.2713244126833167,0.2697404393478735,0.2517007064381686
0.19606079081958985,0.19280786945244577,0.25014461143491606,0.2884029170983106,0.21963667663396652,0.24634013274755184,0.2560701953938672,0.25269698873623037
0.17228619476155302,0.20518538672327186,0.20563490075971144,0.2298427940734901,0.17773231096683417,0.1810402729917805,0.18130099270544808,0.23295982333855347
0.10438200959352399,0.15867005108820464,0.12898406983979277,0.14679671873711797,0.09231319952986632,0.07376002558836028,0.08851075878418994,0.18315801110028082
0.04917445708961222,0.13671705439458773,0.03685976150993255,0.05805882506374105,0.013278468213155103,-0.007791329406554732,0.011466618598019649,0.125049214264374
0.04802537442127772,0.12708724164619734,0.058305209423905685,0.07186683881600585,0.057095286780373324,0.03602838228951864,0.051172908992611045,0.14564119717311774
0.1633303173241734,0.1840489601467826,0.2162538268558098,0.2513597230403364,0.22943497471138968,0.2796843755245091,0.2772938950924893,0.27667127257479057
0.17716909863387312,0.18932276858002925,0.2311618755938577,0.254435700246477,0.21219759020012563,0.2391388699832789,0.24799287628543357,0.2583753489622792
0.15403633280143242,0.18587183158633142,0.20077377537088417,0.21688875134737995,0.1800303309757231,0.19245931206041633,0.19666083713133678,0.26266251379552025
0.09951652083767559,0.1489885079646662,0.1042241221478945,0.13808588603427446,0.10080378935954455,0.08234679963090466,0.07688262163372572,0.16181067376616629
0.04357224616286353,0.14432012456875734,0.033943412305875484,0.05119828003826988,-0.0051393869010345405,-0.01972481405318891,0.001591685326301464,0.1346770639270447
0.005228725243548904,0.11995230856343708,-0.0038769742664034497,9.499100535561855E-4,-0.03005479384785532,-0.026004065423439172,-0.019864973933419947,0.09723233670805162
0.12358378484374219,0.14557790950067911,0.16507180999280904,0.1983068256580891,0.17939010412450143,0.19642963492428778,0.20173128449049754,0.24361984979680987
0.14901454944601,0.19057977379381247,0.18227400664736157,0.20579556246989283,0.1755061712801408,0.19170085292605954,0.19650646229263272,0.20057352854592322
0.13616466047637357,0.17504823272702552,0.1711551246449047,0.1846880712458106,0.1681202588117371,0.15953479090455444,0.16058134384587755,0.18369249749069286
0.08245952333974753,0.15560048444709731,0.09936379919775232,0.11408959766916263,0.07803946287973379,0.06632915749027678,0.061980209754261696,0.17605399727436785
0.041397801078017625,0.13283548818283586,0.03250373907535901,0.05338891217168196,0.04113508499574506,0.003989584245088722,0.016631385981584784,0.10150634534185395
0.14731932584526028,0.1708296042465404,0.1824159347491783,0.22243744766899623,0.21153450552962277,0.23273552561544056,0.24642548167268946,0.2819489107220835
0.1550547853942298,0.1997754689922986,0.21047452127534944,0.2446611405558543,0.21990607591537603,0.2529136512340974,0.23034283672114428,0.2687629755516822
0.16288230191628814,0.20200820620888646,0.19431236006428929,0.2264956909657513,0.21802825100005058,0.19920177341419887,0.20766667974925776,0.23242459125117929
0.11995919094085056,0.17576309318575312,0.13317864639407515,0.1577300312270535,0.12343309219621972,0.10641025775805407,0.13105019644676916,0.2063026871624516
0.06396742234945083,0.13852963486361464,0.05979184634393326,0.07093994156621404,0.045701509086693216,0.03868142226070309,0.030233496057484467,0.1890071771099294
0.11725617573935407,0.17618843445771365,0.1377734201658299,0.15421748090345175,0.18845088070371185,0.19277766230878077,0.1949671260598301,0.2256252064910832
0.2008187848363963,0.20321618960735535,0.24680581697449006,0.28698747045540496,0.282235606868928,0.32287313373632565,0.31620675717686314,0.30775344229519286
0.19232962352154973,0.21741110751290504,0.2536317230711843,0.267782514406572,0.2744783726882882,0.27481579050102156,0.2759781021767934,0.3117144841365658
0.16450052649951713,0.20143458910882292,0.2092114938963816,0.22332608140141885,0.20454874180694033,0.19345578593377946,0.18576004576120764,0.2734062873181023
0.11357119237784818,0.1803778510091926,0.13000050603518715,0.1389130469524679,0.11989511204642996,0.09528536183164187,0.11602315095490609,0.22135390304805805
0.08502443882141456,0.16387957155751365,0.08757083857587013,0.10286619863137007,0.08890061144329511,0.09103141514070137,0.08481016200356103,0.1930551038986028
0.18762020151323258,0.21293106386959998,0.2456338205197292,0.27270497400414034,0.302149022524642,0.30397808290434397,0.32381018458670235,0.31965577200811185
0.2146685989792749,0.2244259420917195,0.2720889913154111,0.297996610962925,0.275397802656333,0.30731427512946385,0.296894092765949,0.3139980022151879
0.19760082045547153,0.2072242742379818,0.25331541753540643,0.28170892612411313,0.23661018051032662,0.25864004152109843,0.25120221020377814,0.28482427180375003
0.15954529832153094,0.18294842655974716,0.19474229515226896,0.21247673929549457,0.17328187375515108,0.16526301355967657,0.15079092027758,0.21726978200995029
0.11131839492311542,0.18262956414774176,0.12446386409674551,0.1376599847059204,0.10954734601955837,0.09733244190744847,0.09426615328922781,0.18133246466632716
0.18275759712288298,0.1916148817911356,0.22936095326876976,0.2563643440028854,0.269316895681887,0.30005198886796464,0.3147909730058529,0.30610613062972114
0.20527285919132632,0.22444118387046053,0.2714916042955155,0.30642912533490596,0.31610278837682626,0.3195319247821029,0.3159356593914286,0.3207106436143268
0.21775128519061066,0.20510382592757107,0.2672255090353965,0.2830830494320557,0.2859867561183425,0.30693919774751416,0.29686492316005264,0.3268185762453962
0.16715595776723347,0.17322804448235857,0.21565641899137147,0.2472706749757427,0.23552018305673672,0.21403860397977148,0.22294826855817773,0.2754184405404758
0.120103920691439,0.1535468103828235,0.13719758304439833,0.1655295794295018,0.1513185033874007,0.14841026456438897,0.14489024602676645,0.22299840700560852
0.11175706482441522,0.16145197159418356,0.1346489593676791,0.16760980874707063,0.19886025170399604,0.18750914653783735,0.2079788931469697,0.24252738213849995
0.21816056978749718,0.17948808630626353,0.2881644190576118,0.3334190450128976,0.35340839189498024,0.41469198320143325,0.4001536271583695,0.3551145669686558
0.22541553850589685,0.2186336331558062,0.297797157065122,0.3461309074983515,0.3551583022031724,0.37168059271006604,0.36396868028611773,0.36645394973669027
0.21921908148438168,0.21379787777392886,0.27634295132140924,0.31477763017224925,0.3165338280540101,0.32371429754221487,0.32463686019005333,0.3205026149663682
0.1751555534989889,0.1720103924194474,0.2080658750642706,0.25366786870280034,0.24613395532651722,0.24830092847351953,0.23236062710251415,0.2786881484291864
0.12032673063724778,0.16512427477209102,0.13373368784735493,0.1559053423046554,0.15331726450680228,0.15533626812314064,0.17241003095928423,0.2557335720726437
0.11282680329107367,0.11878195524639186,0.1333225760567588,0.159456082796898,0.20860102704134642,0.2021477049921554,0.21991176080532449,0.3042074164147267
0.198705816939986,0.14585342733121653,0.2637416605883579,0.3138153466510158,0.37696016829586854,0.4154592804615186,0.37772749267277894,0.42174932636077084
0.1953057384648697,0.14719760835176338,0.2716505985993468,0.30629359488734204,0.36314388205191117,0.38233751579390673,0.3810456505557991,0.41534732607465324
0.1851655143044352,0.13928572546825327,0.2462307610471956,0.26301839907077934,0.3262845981773289,0.3186666613598272,0.31986111779284104,0.35833225911021094
0.14662501056295765,0.13728016034616236,0.17461776183337235,0.19868642798822256,0.21606647682673394,0.21981437695743222,0.22375701736191997,0.2666463811633536
0.08619571888538186,0.10912945436489835,0.10207419323659128,0.14426020274912965,0.1638865880496189,0.132703521482955,0.144900621764608,0.2133353318644669
0.10162411997171793,0.11115766708502914,0.14826830399866944,0.1771935289158167,0.212214909207598,0.2185522273311572,0.25062477317984433,0.2563478915459698
0.16118614984267504,0.1292050971709949,0.25024257558754237,0.2782702376678906,0.30980325227567534,0.3478458513027682,0.33269832297103313,0.31983097460610993
0.15578231068866372,0.12982982833509366,0.23360993119625292,0.26389913053778724,0.29808943819106143,0.3165606876279051,0.31225702414383827,0.2954857035980489
0.1348265440165628,0.12861594777303112,0.18621617844716787,0.22150920349438763,0.23767578363107797,0.2549420027834615,0.25546190189739637,0.2976779831747565
0.07742666162026617,0.11655633943470757,0.1048674937590795,0.14192402612596897,0.13212120366725527,0.15395605621682276,0.1709838155788468,0.2498898181777908
0.030078773279135246,0.10059146283398929,0.04136599726114187,0.05079945096686089,0.0815644442291627,0.06266223159842545,0.0862780208435993,0.21263533948803226
0.044984124425448135,0.10495822588377501,0.08017077347695463,0.10142214503318986,0.1771506576590071,0.16960964680492274,0.17720232316052353,0.2355579306350168
0.13569851955604914,0.12064374265224555,0.22704689168028838,0.2507711645683406,0.31091591857319345,0.33681481814281095,0.33532435980243425,0.3273672510503499
0.14458756640064077,0.134515632877098,0.20795739644990252,0.2337796861362511,0.2932577065079226,0.2938753829600995,0.3033455770068944,0.3437997396421113
0.123540943152981,0.13493492886512526,0.17723498620156838,0.20766132865304976,0.2381571789978955,0.24542940573072014,0.23284171784984264,0.30617129616589134
0.05811144824354779,0.09821025433998573,0.09051200351853739,0.12616296336196542,0.15103739649808706,0.14124374099922074,0.15276526957014364,0.22113857289171207
0.012577357113176042,0.08976625808187172,0.022065510696191504,0.04585227600988767,0.08016895264385716,0.05737478808771027,0.05759145450567499,0.17913208151430277
6.549286847688136E-4,0.07635439079979411,0.019679209528916386,0.025956090842225332,0.07515842089236943,0.06753893355171736,0.09371893159931877,0.19229296082489933
0.10840956236421596,0.11919348632280616,0.17445097289779954,0.20322734071444382,0.27357900258652146,0.3007944608070123,0.29530031845276744,0.28534235561333093
0.10855506232718326,0.11764463144635007,0.18332743059096498,0.1948193365300765,0.240906649273063,0.2561701604040715,0.26027726161560405,0.2982259699166778
0.1059484441995456,0.12181094557044504,0.14340186849461892,0.17453400228111898,0.1985081037986454,0.21407030789518866,0.2203535156945744,0.23919702728711023
0.04117210388778103,0.10015141583039903,0.058575653206931165,0.09675368784877389,0.1130599110186364,0.09939998734239053,0.10010509095403805,0.21066592401584305
-0.0026405989320235773,0.08450331411438299,0.0037680321460115684,0.012277847193555395,0.029882877524254076,0.01772694698570896,0.02005113799464682,0.11469984720329188
-0.017737150596818303,0.07025963505220455,-0.026931855907667675,-0.025869831877178305,0.023112889686718617,-0.0044608744167249775,0.02685418316643451,0.122196464722411
0.07893579367614267,0.0971022027609979,0.1379694413318403,0.1561178622335028,0.20324037798026223,0.21341671315065483,0.23105996794356207,0.2640037707240548
0.0808406805038562,0.1020966778591701,0.12379962823318741,0.14106551053276015,0.18385181395498976,0.1767168522683713,0.18971157307852438,0.23263004168580545
0.07566504141275758,0.09126023215584517,0.1078710346750884,0.10465340342474998,0.134095586234187,0.1413583855797658,0.14441948753573325,0.22913833169548606
0.01617871849778675,0.08192580780290327,0.011254619387763173,0.01610824382824568,0.057411947302882814,0.032659011870133973,0.04082108859249,0.17073162013382753
-0.034963525568862945,0.05949629876802655,-0.05047778257436452,-0.04907489043206222,-0.019610330343784534,-0.04877371479820236,-0.037730163046304305,0.1300576486859521
0.05272505047910918,0.0880468748056213,0.08399178548793512,0.09556733745766516,0.16621731251910488,0.1889966853836441,0.19113798947362878,0.23517508276327828
0.1059662473138279,0.12162891747695363,0.16449781167281982,0.16172164077326903,0.21722667612852817,0.221301641422593,0.23312777460730777,0.2818931958846328
0.09911352780725614,0.14031593405066856,0.13565502890411918,0.14368662233804813,0.18188093837979658,0.17684251731120806,0.1764577327915005,0.2708989516306274
0.06626209973131121,0.125628104556545,0.08284297114168354,0.07447100047920488,0.12729438827212827,0.11005132478960657,0.08461100759721013,0.22972510510386596
0.014389779220376108,0.08280812621383699,0.009970606919549534,5.919357907922529E-4,0.04043682740265562,-0.024915336530906117,-0.00999761913764891,0.17520325753477986
-0.008468883096091924,0.10019814027246352,-0.012996496908381474,-0.035843415658593385,0.050140260444179345,0.0050136034632832244,0.01337141183400266,0.19087030866222343
0.10758404938702343,0.14262018572997787,0.16217046006528488,0.1482769216506078,0.24887144969983593,0.2421042732661597,0.23717895353829224,0.3761303700337081
0.10922589483701141,0.14231269810707786,0.16162926966653168,0.16354473239249162,0.20564843453397041,0.20732677830008514,0.19071856653933747,0.3146460972404943
0.11025261117149682,0.1442841876179855,0.1348203954289513,0.1382618451506417,0.17425864062086283,0.1459008967894764,0.15243753644236846,0.2795910691465761
0.06036110368569328,0.12434835495141272,0.06329643689990563,0.06045956967243575,0.1061353238017905,0.05534116512200588,0.03926018701577221,0.21701554337504098
0.01278005591657131,0.12806243540539522,-0.017176681048723202,-0.03991507864406516,0.011125148593626472,-0.037317070205414936,-0.02440357967363319,0.14739938266955022
0.06733464293261573,0.1286242091869393,0.07850925765494213,0.0729363251882539,0.16123496218249328,0.1173843138660896,0.14270236490301358,0.25437362784137557
0.12186195651963586,0.16125325994026948,0.16539458046055427,0.16377487530491186,0.22455503315265607,0.19246002937563172,0.19903594101820551,0.30702372957143237
0.12240386862968672,0.148306923905441,0.15990456650151383,0.15637633230068532,0.20809766222681314,0.18331046098428924,0.16174030044371282,0.2678778839405556
0.09625632839803275,0.1390272404324651,0.10896978763590895,0.11200593648205479,0.13358621581689942,0.09209329765230954,0.09409742322049629,0.22898233406771212
0.05503662398866415,0.14063954401648146,0.044535947208316204,0.03818326476986455,0.06845769519298434,0.014056755787412577,0.012395917275298313,0.18360293843530523
0.0931500251427481,0.14023387881479726,0.11035219783907052,0.12427957597400695,0.1791671276613864,0.16429617307327338,0.1741364509635441,0.3029759564758594
0.13653208543598006,0.16727317220503335,0.17873903664180982,0.19124506709682426,0.24410001062148073,0.21784747767656407,0.21632978832627164,0.2949740674312634
0.1347063283613689,0.1536848402019146,0.16497952143242586,0.16679421917185494,0.21759912767281447,0.19751567209731266,0.17190840699242038,0.33838997068980026
0.1057687150775982,0.16223892562087613,0.1218284146015643,0.11367014953699968,0.1584440568262158,0.12172353945069965,0.11693596668352332,0.2966696832917279
0.07243965589202753,0.1306678269556207,0.05048203301079698,0.0498378756888079,0.09308429084440327,0.04208245581133043,0.05237585719289377,0.2447437111526084
0.16056735690685012,0.15591497167743895,0.17411664475310173,0.19835043783494619,0.28070114646175004,0.2644129137359582,0.27388677180283505,0.4029298871048734
0.17823024832219048,0.18528012666955448,0.24642391090560828,0.24632795181402858,0.33311932766605157,0.30788978232133113,0.30416252958967704,0.37542076228377047
0.18486738516293894,0.172200594264279,0.23130369541832327,0.23662214702471235,0.2988879701850121,0.28143362896659785,0.28143241101989164,0.38642505956605855
0.16093964144780773,0.1674014151796318,0.19347147072556053,0.19416679256412755,0.24943935123442315,0.2136739506574579,0.21011911162778957,0.372435636408375
0.11483514953949318,0.1524680879757118,0.12482658126836468,0.12929933077399447,0.19824839324487661,0.1410196470759694,0.18281240347061772,0.3385474320736781
0.18690516051373474,0.1782664935992334,0.22652877269154142,0.2559205575016651,0.35631303611882276,0.3435266950974886,0.3604538434271789,0.45711825966459907
0.22066445367094883,0.1963098741890155,0.2861718360738377,0.2934883812397783,0.3955175935809848,0.4020447020008167,0.36777295824596024,0.46161420235197553
0.2151449932110514,0.19088358242004683,0.2819197104924872,0.2939442753114369,0.3711585643834972,0.3466200761161756,0.358779403153185,0.45988843111470457
0.17587865541371753,0.19262362460249347,0.21491187581830895,0.23553017267637974,0.3218507859962017,0.2773124458261435,0.2690064926347871,0.39747094777223335
0.1316835395766739,0.13755537125737952,0.15696684875382916,0.16719938085333466,0.24419416559318644,0.20914080439770796,0.21870816192738457,0.33946699132126607
0.0935574680718206,0.13911193299693939,0.10601016320816425,0.13375192348425033,0.19895966995056766,0.161430183191069,0.15440821713291797,0.28116045191722283
0.17465197589499487,0.13847264977872473,0.24735565571828522,0.2859646382414556,0.33670114400146783,0.351953912289064,0.34329819634724024,0.4043325634951088
0.18210210298589385,0.14784940053245527,0.2595934428205135,0.2754978387432949,0.3320727342570153,0.3279547035874916,0.31710654535751254,0.3739592462252821
0.17047622530232093,0.13542276230681496,0.22639897152867958,0.25212336597731866,0.2886285726560176,0.2726097076810042,0.25993571678330046,0.32157194658363025
0.12979196718599834,0.10861113497716073,0.17372359188108605,0.18931736436453186,0.204807607975127,0.1912465307688867,0.18656863212764507,0.30590031864460626
0.08936265991508027,0.0848314534703396,0.11864427634623927,0.14858957957142094,0.1798731965439339,0.1389722934857686,0.1405281015429184,0.25041890988939625
0.15777797286922823,0.10009729156607902,0.24037285571585618,0.2701045940733096,0.31511906537754475,0.3469948654798699,0.3458105678234197,0.3667823240795728
0.17688348960202782,0.10338002739130085,0.25938048356172694,0.3020024141542151,0.3282514932613063,0.3392067469233283,0.35399563989591964,0.3610127252924034
0.1674417653985419,0.09224306974878659,0.24619297369165138,0.27871929868007694,0.29493609473909466,0.31518982216681224,0.2903281721949366,0.320658050165271
0.12450002609666622,0.08169520304715379,0.18350860759218773,0.20435474210796284,0.22457230271989553,0.23486138920294916,0.20561703942012363,0.2742500211994495
0.07551035048504501,0.0580774000214965,0.1211768110486839,0.1419413898967462,0.13823467726600985,0.1261643921520215,0.1308108361982719,0.23228906488065254
0.10878682866077377,0.07997230825157363,0.17201483078190866,0.20921752508475286,0.2564016942517064,0.26436439169343656,0.2951651625416992,0.3361162758770397
0.1621928225486028,0.10170784074810736,0.2617201225365303,0.2885861179436418,0.35365346312634793,0.3875738991586363,0.3610185029716204,0.4038013489688762
0.1422063255798302,0.07521928202756886,0.2360274403277966,0.27999677056170624,0.30844122103899274,0.33307564884316165,0.3153412495625747,0.3333568858265322
0.12393534474073492,0.08716468929952141,0.20349705116830893,0.25215923630759624,0.23165925108405377,0.25268293441934464,0.23514946457141445,0.2570072288117779
0.07865102100148255,0.07244428293853514,0.1398920334550251,0.16654549516755143,0.17876668230122442,0.1539382728919318,0.15840789719961884,0.20980946517034982
0.029204203836946892,0.03617281077130642,0.062100326269103195,0.08016274746246944,0.09269852497420492,0.07892009334774322,0.058689902795110244,0.14731550742002525
0.08922698418650804,0.05052367183041297,0.16260775960278726,0.21435691327232242,0.23593626668029688,0.26802556556669155,0.24587865005029316,0.2884434727441114
0.12086005845331993,0.06956687536488768,0.2186705369073062,0.25702875379718854,0.2681138734322892,0.30646972758197716,0.29932955061147815,0.2585723976685309
0.11452993415335738,0.07092810700876628,0.2149633681378353,0.229113143027649,0.23223473540618547,0.2430500965711097,0.23182412087042356,0.23409023892739408
0.06407395962794564,0.023635760841537158,0.13838590534954603,0.16497886956175017,0.1751630194748196,0.15517683751737005,0.156619234065765,0.24565799094897395
0.021446842612230448,0.007959780650239036,0.06968886192642124,0.09900839219813962,0.08410350423512304,0.08057862224988618,0.07625043568726024,0.18308421296104005
0.04036314261442376,0.030437440042130712,0.10363578698446307,0.11753566808927808,0.1181788919977669,0.1562550233747262,0.1506329967428457,0.1964668146447438
0.09648217319868449,0.04062944041703291,0.19653530029943406,0.219922157062324,0.24511811665586142,0.2461291422983261,0.24005797381377658,0.25234124923744744
0.08861022420982939,0.009913397354251702,0.16563255814881395,0.17982008387228376,0.19892923849252686,0.20197335508275757,0.19808615414755848,0.24227409439661543
0.058604573561292166,0.024129702288065265,0.11218754697144942,0.14609770708373282,0.13173198991397575,0.13551408193378467,0.1206220556001074,0.19414613853078533
0.014512708502698556,0.012256628346457583,0.039865088141528546,0.06356198076084399,0.05536476326915995,0.03698201781870733,0.03409291114480455,0.13596999331548965
0.04160430846381888,0.013284603489262383,0.10649813742407135,0.12798602952836208,0.1677410539344184,0.16493883939074167,0.16938401551910742,0.22267261591934828
0.09277986104502067,0.01958160680239203,0.1982520667202559,0.23229206016579196,0.22606820145040335,0.2736934664740057,0.26119738217439903,0.2653371038687885
0.08210477537167302,0.01358390865129332,0.16770099296544602,0.1943855362461765,0.202942435782333,0.2109558643869374,0.18625264756906498,0.2525441076894832
0.05458868977548604,8.079607413306773E-4,0.10757557059723749,0.13760515167784831,0.13824739560917831,0.09427214358476804,0.08680478959886963,0.19132083338765365
-0.009823841650933904,-0.011402207266700264,0.028762404599123312,0.033558944332559494,0.03355484105108517,-0.006752875812890538,-0.02065626132363378,0.07037434586042901
0.018105275501019813,-0.020539991874560803,0.062138989629446646,0.07861053645567381,0.07940156323188838,0.09730095693133464,0.08423805627884587,0.1629122956197965
0.09076854964818466,-0.0015277520291253955,0.16942275909468424,0.19616348738845865,0.20483844106183458,0.21177521649879816,0.2058707066349926,0.2578345658240577
0.07742370102851096,0.006634111480579415,0.15318743435362306,0.15960002888314195,0.15274065716362967,0.1525331151629634,0.12777371243782393,0.20449129552254366
0.043055046282355736,-0.016286385271651414,0.07831666933528031,0.09335383526976336,0.09708852453940306,0.04581131763793257,0.057215956839478326,0.15369126685799883
-0.024841832014822075,-0.011104165012429015,-0.010616982321858676,9.128436551238128E-5,0.007100054307464049,-0.03382834448632316,-0.05709469709147817,0.128897971846757
0.04526797296810038,0.013926473542422744,0.1088754204014698,0.1315308884517807,0.15137725173144612,0.18406073315139987,0.17263496055577204,0.25243252687927065
0.09781222258792743,0.01807856478103444,0.1705201714536929,0.19226570706788515,0.1640260551349135,0.19204708414676364,0.16640464255908227,0.21038049744231277
0.07515118830985867,0.02601340132582112,0.13367836917887926,0.14502532916008443,0.13004039360772496,0.14055195405081017,0.12039399531936185,0.18912960228376935
0.02470503089802776,0.014603522255046852,0.04505380080949781,0.06484653452042481,0.047295060067353484,0.010525250667201037,0.009429708759790163,0.12932600454632381
-0.028221814676791492,-0.014223562857853131,-0.03703367212931262,-0.02973222053734726,-0.0264290894121777,-0.0898693209336853,-0.06921546694971273,0.06720124463949098
0.06572153000723709,0.036334537274352034,0.13035998971600377,0.14996714277491066,0.17637660182265621,0.17856303873535168,0.15964375170040213,0.2169463666124445
0.08650318158728781,0.035360594357265594,0.1528809894946181,0.17792117206546187,0.15470396780188148,0.1826338184690536,0.15114519419689754,0.19550176583746828
0.05981051421848798,0.0034831819501535237,0.10281488808590146,0.12103352792754851,0.10661676244309697,0.09489594403389309,0.06638955116897308,0.19143267529263486
-0.0067064248564440085,-0.016706867956852216,0.005761588930655162,0.014531914005617416,-0.014423924458096933,-0.036417292374189794,-0.0685943515008514,0.13770001837490806
-0.07647608963646531,-0.0539405809196568,-0.08086457356851592,-0.07219363519859588,-0.06279211519426645,-0.09913593963359232,-0.09831739815473586,0.06313407632057108
0.045955540044477904,-0.00951206528814402,0.09122623247668014,0.12370951426786819,0.13091883830772877,0.12663069713613412,0.13353702212025814,0.1574107999082001
0.050081200987596663,0.009106784816041602,0.08691625624626095,0.09538596998407589,0.05741329361240697,0.0541294438889843,0.06619993940711424,0.12386212643128694
0.009422825828862481,-0.011556808085084233,0.02680485513117474,0.03917656933972716,0.01655640061424587,0.0025951030447551177,-0.018474558649149583,0.0937998825522138
-0.06623188462024315,-0.03455567329167196,-0.05594404301171373,-0.06301672290611732,-0.09120704204918637,-0.11334662685401276,-0.11519640227045044,0.01882215163003015
-0.05649680123459203,-0.04428463733443081,-0.04928726001991209,-0.036588126977491114,-0.038778800039363924,-0.03979375635026154,-0.03943622770463132,0.08948016330649551
0.032756237054782714,-0.017937614425226487,0.0732039000752209,0.09807062301076051,0.0868958421730791,0.09227276493183775,0.10504502851228613,0.14668472529673096
0.002137941929597806,-0.03898223123968479,0.03796298063491766,0.03625496426034212,0.03613228886706663,0.008731543091219804,-0.010431508485093572,0.0708751755211164
-0.056893374653250374,-0.03216580682240569,-0.03811812676772747,-0.041328260681990636,-0.06089481485656592,-0.09325469109180357,-0.0941836187563988,0.0399591683332091
-0.12072057069215213,-0.054643797629440057,-0.13263953938732947,-0.14084224567632805,-0.14638429623884236,-0.1730356557879223,-0.16939648565466184,-0.017265862897542422
0.002926176843274536,-0.015580031274763196,0.03218171962423042,0.046048264951693924,0.08235502283541332,0.08951485882366007,0.09829934544481904,0.17251056492984426
0.03174661179775685,-0.013067201639761074,0.07179962171235893,0.0898763952366648,0.08114908016541467,0.08785466128421322,0.08752242667377497,0.1421039151533997
0.005780507175266826,-0.03251928843358248,0.020593690913135766,0.035611764290203726,0.02148969840431624,-0.012390612742720786,-0.016201703717008,0.044922743387262196
-0.06698958994653298,-0.045459476230660864,-0.07510076086650283,-0.06730272915605628,-0.07170899317535419,-0.12427683264551273,-0.11630737694910356,0.009692932989811026
-0.07039750984527976,-0.04433266561848264,-0.07323007716348232,-0.0565395899935905,-0.036198882118216875,-0.05725391684086424,-0.06463890675095743,0.0645692809338108
0.04303057097808142,1.6994102476319307E-4,0.08559361163491874,0.10872420041918443,0.09420195417165354,0.13407821772959766,0.11316221508504712,0.17667309896595249
0.023200903824320815,-0.03624834760721078,0.049384808012547424,0.0678164073278171,0.044203396604939466,0.05267539201086079,0.040600448470934795,0.10282483657200184
-0.006564118503382364,-0.023193257401684153,0.010450613070022714,0.0067198995087439164,-0.008904412980523843,-0.013519027541164894,-0.020490579402736502,0.07013675991251268
-0.0731903994252106,-0.06255752288092385,-0.08059962875041926,-0.08954002289777376,-0.09984940648280012,-0.1192990557130155,-0.11165100324231858,0.023011999242694203
0.018748005709678633,-0.009488311854646133,0.059938416673567266,0.08286643869064773,0.09007515404085152,0.09688090112216474,0.10842752559684318,0.08900751740143867
0.03757259724992427,-0.021954065253949603,0.07309427757739903,0.10118425943225763,0.09869026106683676,0.10082797210887802,0.1019023149108884,0.11850914314346153
0.016911721187626683,-0.05194604132574626,0.04664607202105079,0.06327792597519696,0.047432262214649086,0.051566480258590564,0.03698790312310982,0.11469180143689083
-0.055830558336901995,-0.10134302209477078,-0.05591232893396269,-0.02550545711209453,-0.04120350816895573,-0.043322161407591375,-0.047841583478314735,0.1049591519534528
-0.02555233092269124,-0.10698687262107762,-0.00895047841988799,0.0239977553629655,0.06413136069154236,0.04890393707646766,0.08096254503763915,0.18993456605007458
0.044234368535658555,-0.08215574294598703,0.09708591672455057,0.12908028927752896,0.15010841836427138,0.15227225600647398,0.1493923897252695,0.20496574738075865
0.031382865728682104,-0.07850782896025821,0.06431757829043391,0.08985993567884215,0.0860013703419597,0.09804198203363376,0.09310914958250688,0.2222928668225398
-0.016477066679315557,-0.062266096434523896,-5.428950511889158E-4,0.01068717391445758,0.004843188941983129,2.4547081964990114E-5,0.009483240835745518,0.12095794007565933
-0.033662519775977624,-0.07637842803298761,-0.03224651772688737,-0.00682754456886394,-0.001856613712324165,-0.001710052556657883,0.008774242017232155,0.12364081461742887
0.05408582801399249,-0.029539815166923195,0.10078714354258261,0.13779916211054846,0.14419268703495858,0.15953645485969742,0.15325874031942005,0.1954581051074548
0.037428425904421525,-0.04251995958928425,0.07479792378225085,0.10227135867227685,0.07146319254848021,0.07549853285452661,0.08367670507784544,0.14459790218212776
0.009637374987192481,-0.04333237700098706,0.022493009457294225,0.038551805117968616,0.0062944089725010255,0.00834453554479797,0.017844451807197334,0.09925025561475252
-0.02698973439679745,-0.06953020368393721,-0.009013147526023169,0.009926404761365817,-0.0036456292690918435,-0.012346062697373456,0.0032754139467820464,0.0996295561071814
0.06907893875319601,-0.01997009358234958,0.11639600675287357,0.16212102914069804,0.15132729058550856,0.17528204770038414,0.18410515136525218,0.16321393921473568
0.05628564205580013,-0.02908966868495631,0.10026003734306368,0.14094768607432723,0.11728266589663877,0.12349263719247912,0.12064593434671265,0.15500661556106116
0.035041096461709505,-0.04293120344161118,0.05150236946795761,0.08089442077495575,0.05464142272939437,0.06252112197329315,0.06377166567630918,0.0965575423277847
0.003853400963197303,-0.046733239265195625,0.030914139011497282,0.05731134248070653,0.05057473394007335,0.05923222132702671,0.06876663692221419,0.15360259861332737
0.10181056377582438,-0.030004910039975238,0.16174940131656285,0.20941371786318594,0.22228906092498543,0.26268154895608786,0.2609297649978644,0.23482700633420459
0.10268782527801791,-0.020143465355262822,0.16438306699257302,0.2019369150699421,0.184432344881518,0.2072193457644651,0.21812485434560053,0.21847328769345248
0.0838370876155531,-0.020567155640823773,0.11662324294205031,0.16988218569225438,0.12081280997947813,0.14677426025005433,0.17243168154458352,0.18778674023483286
0.05429329680692781,-0.03415601291870458,0.09250870628042775,0.1376921709138716,0.12288018753854697,0.14397876827307826,0.16519732904448192,0.2141339105934585
0.14661754237573682,0.006730911112580069,0.23163374344924592,0.2923638748255859,0.26752227556364344,0.31515237354346304,0.34675269638692946,0.26577024414718686
0.16008203495020096,0.013059137779663207,0.2339432448361656,0.28975221304330645,0.24597472689466354,0.3072114131742457,0.2981481359464808,0.2691583640259602
0.14773870108404902,0.016858192060515687,0.19747696011886084,0.25932600813173395,0.20759231282272508,0.24065916635680104,0.2550795905135912,0.24524011801130174
0.11366116132969063,0.015489793289676966,0.15953661023687044,0.21081154395682802,0.18414332201998834,0.2206996883265085,0.2249134944218173,0.19744611428114164
0.20093219912045174,0.046054191238089445,0.2952251491041142,0.3536721074417572,0.3368373372429753,0.40589731115402494,0.39268075018446036,0.34215164368356843
0.2081410027412359,0.06932322740546897,0.3069425645457733,0.3672730211768739,0.3194052302545526,0.37408657599505846,0.37445833322717703,0.33178821090141414
0.20608443879118477,0.060775725800890947,0.2802250593507169,0.34030037524426404,0.3115222586711009,0.3368781865132799,0.3412543855675108,0.2963147029813841
0.15889212485832746,0.0419424232861388,0.21087922107426754,0.2646331257653493,0.2197086977554446,0.24585594923879495,0.24291299659422838,0.20970143417099682
0.17512898607771893,0.03761544460170398,0.23935102350381907,0.3103766958440903,0.27794235927453925,0.3229101524191319,0.34409328484568413,0.281263426039962
0.24494939843428126,0.06328097912410388,0.33369987101299836,0.41814898167570036,0.3840159968808509,0.4602464896818117,0.458864460838562,0.3688467679847002
0.23471384438540918,0.06757378364896786,0.3343324968809467,0.40414957626036024,0.3581245564837111,0.4191418417123748,0.41745660044002847,0.3318273481163825
0.20826653793904867,0.03574335400901767,0.2982861379339074,0.35907416499334016,0.28735027330912144,0.34469629547152586,0.3343699820447932,0.26796606393382455
0.15146615992163276,0.01906298383251585,0.20410073684722524,0.25737922762601084,0.22805725473784863,0.22963306030568714,0.2407645327379992,0.20961940421195743
0.09889277030897292,-0.0027240165816887103,0.12788825441927318,0.17560047686129265,0.14445680056714827,0.16934623342791594,0.1663922824869877,0.19094443994549312
0.1624287023253928,0.01130911314668168,0.2705878964416121,0.3226220361545305,0.32528758371998523,0.37138928400626736,0.36214851396086095,0.30017160445034496
0.19070250101451358,0.015260582729471804,0.2968530887031796,0.35028446846604455,0.3112598379703128,0.38347667015531817,0.3787902231452911,0.2665459719859805
0.17898024735831453,0.009881104982004833,0.2791212070992027,0.3396448548206637,0.2949097469522141,0.3462071841546478,0.3579057764050757,0.26940333611749634
0.135860312140009,-0.009928487713980846,0.20489290694417692,0.26890445726902346,0.20352714762095184,0.24886166043528668,0.259808223019184,0.14677938205373275
0.09534107646345656,-0.02679018715904588,0.15060316094404258,0.19570605347191375,0.1670887710874882,0.19929888317878086,0.21127883368290934,0.17241869715358812
0.14492172276554605,0.0035763302241490925,0.25249259729723744,0.32228294364631654,0.3178787819494553,0.37550474068341566,0.3741672838115664,0.2839112325594198
0.16089279839982423,-0.005752913799905106,0.277253910544393,0.33807952744033487,0.30052592478401635,0.3657203642626595,0.38709880411900593,0.24736428780245878
0.15033991378957023,-0.011754459321686983,0.25265594826416893,0.31244507216778616,0.2799558150591972,0.34393935380171287,0.31885397234492063,0.24714537888725968
0.1047165938731874,-0.018409806306718176,0.1826941082450547,0.2307554179220091,0.2262915201832139,0.25746396454357295,0.2462253577631897,0.22631014886326478
0.057286022612730386,-0.05917685601244531,0.12855968152500186,0.16974601226194308,0.151389776909431,0.18567654806593548,0.19266365246631068,0.19740773248046795
0.1263992683949696,-0.04039031346531792,0.2379678821348723,0.31020746581247155,0.32506477550238516,0.37753738100503836,0.3682115665538813,0.2885971630953298
0.13841460212750412,-0.03882634747307331,0.26282690116319873,0.32796394120392597,0.29782245760142223,0.40554351231065866,0.37826165317540345,0.2892319801229016
0.12071358727201983,-0.028267355905972763,0.23421082675832444,0.2961850607168676,0.2648720332570031,0.312574583270387,0.3017051008338597,0.2349525713960456
0.09177372470616837,-0.02446458555720591,0.1822969436809896,0.22293260142350527,0.1728047097919711,0.21265447062438989,0.21056087394106754,0.14810113871300834
0.045538815846079196,-0.04980133050440046,0.12472212037813468,0.14477218386021798,0.1186942792582695,0.14307275598194383,0.13796454738651853,0.11729389841168904
0.10919106766409883,-0.028117419866374133,0.23655596341676313,0.27576857259186244,0.29368327346582207,0.3410419190057997,0.325832899275346,0.25343530463295366
0.12039031366695628,-0.04151370416452519,0.2600930446814361,0.3011911404722272,0.29459984576449894,0.34981528160752884,0.32270189818353917,0.24540070786414747
0.1057755805402025,-0.030565111186316843,0.22035373082771542,0.2657698161474884,0.22059169074241075,0.28045836505293237,0.2744069482689969,0.20163324454175177
0.0680285441148368,-0.03673216636020575,0.16033563117224114,0.19226263026263782,0.1466597417812585,0.16961885273830338,0.17360121015072688,0.14857387798207594
0.007685216438450229,-0.06213059957038778,0.07553025741498114,0.10285266635449167,0.04882502293988787,0.06169012769585866,0.0649014298572238,0.08114527087468186
0.06464719707159951,-0.0757785214481062,0.1801581545169153,0.2074631686564402,0.1847961162316411,0.2262203669121168,0.2257889183736047,0.1707058226661265
0.0977197819723114,-0.04957104916346148,0.2128150115967102,0.24564798473561178,0.2124136994665722,0.25384685517564837,0.23559091025299056,0.16260580500341315
0.0855639881857499,-0.05224487430614419,0.18869628499009666,0.21418508462052344,0.16007016682301292,0.20561217842285523,0.1960155457229804,0.15756156615743228
0.05003724282643563,-0.05857910032185727,0.13203938156308742,0.16221508553019115,0.08636933734453997,0.11954269075213157,0.11551848573068474,0.13368642485043455
0.00963890730109146,-0.0743658637708883,0.07117847217855727,0.08688267508434087,0.028165043279336326,0.04411967173722613,0.03921604403426965,0.07696379331895657
0.07222573150578625,-0.05172473802065789,0.18464433650988304,0.2079943150528123,0.18571001967782327,0.24548737156275702,0.20696602341390502,0.19749077498591627
0.08207598375574757,-0.043857421097635144,0.19340008617835036,0.22406668181276343,0.18417636777611207,0.20753850627578707,0.17648195081942855,0.1534283472710815
0.06253527084171062,-0.03753118320671446,0.15676420363160026,0.17859933266396702,0.14028282487257387,0.14111172352660895,0.13254664400394534,0.14319524128627148
0.01912344153406259,-0.05539293505999103,0.090688093207045,0.09853277292211614,0.053418558928984824,0.05844536170641182,0.04886155642979889,0.08674429722023139
0.016215296811578336,-0.06482985136905203,0.09115473638069997,0.1052568311079862,0.08204623975115988,0.11093762942894742,0.11165387761468658,0.1236034724947508
0.10251934009689714,-0.027278187027730223,0.217918564977576,0.246881309636088,0.20563846001928712,0.27652604764279204,0.27240284574268864,0.20487708792386003
0.1010311548435005,-0.009202799995994472,0.20997079636920857,0.23013079638700012,0.18694457932475422,0.23568189003954454,0.21265179905588866,0.1931933399911156
0.08624633489624844,-0.02938224762846431,0.17764483254382957,0.19314220022080408,0.1493041991815658,0.1532408418864435,0.14665117234975888,0.1255625139095814
0.03829528739714932,-0.03967015296831746,0.1004581797319541,0.113365077664902,0.05886599928661414,0.0822921117881706,0.08065239152644184,0.09543996592242951
0.08348845724501724,-0.040928832698013874,0.18926130066772257,0.21528224828833853,0.2214505733674162,0.2574007186597754,0.24765428051428928,0.2091377243498631
0.12232672982156242,-0.02403405838086231,0.2184427591289993,0.26150912551888983,0.24236739752563402,0.26388289090447126,0.26755808354839433,0.23911227577031424
0.08643394867629675,-0.04282339594733403,0.19054178474678296,0.22328110622059893,0.18484838743277499,0.2400467292382833,0.2056219056091536,0.18596274278525476
0.06103707035834027,-0.052935854318305775,0.1296069541065404,0.1573664017231955,0.11653606270044814,0.14444161596921867,0.11394528813291348,0.11925006452865039
0.010025644805722267,-0.08069998276495682,0.06191030382440292,0.08447295557965676,0.04308200843797094,0.06209863559393054,0.08066637970595827,0.07985001954701124
0.08140964845801688,-0.07190970937000496,0.1829469033891048,0.21648896735333778,0.21368019869766863,0.2583741612299822,0.2357346962488096,0.15294056687120594
0.07893615044386604,-0.07386476529323006,0.17148281618979777,0.21112772898765728,0.17290971408462164,0.24383812597965893,0.22047954542100975,0.20859041824050598
0.06660735310348849,-0.06043702880057418,0.15661677963521176,0.18604315035377011,0.16183433930241242,0.18301903216094062,0.18655684514312482,0.1866994660967665
0.013627550762182472,-0.09483903318427192,0.06489648591226443,0.09456877197452229,0.070230550667644,0.09958202748633514,0.07910811220341543,0.14847144889449698
0.053200451606174495,-0.07920533729011986,0.12617858044628766,0.16551616799999203,0.17928815669875764,0.21132045201461885,0.20962282455310927,0.2139028773198211
0.09418203578397098,-0.04353756725716358,0.20038276416811573,0.23663195150728802,0.2414944734103977,0.2973510216193609,0.2703852618745139,0.19920404982927364
0.08660776818532946,-0.033177389333949925,0.17274790002582682,0.21015510637422485,0.1915976674538903,0.2346934601848532,0.21768022569904633,0.19495820288919236
0.05277447173767389,-0.05162153034230149,0.11686631573980877,0.145034287316991,0.12264996576791082,0.14205843200006518,0.13330325456448397,0.10849109707045046
0.033008282908726844,-0.06059907909999898,0.08526228496716243,0.11116416796276696,0.08518176239154768,0.11510809116253734,0.09971511111178934,0.10430140995369094
0.1046574895838108,-0.037814218233991205,0.20586589708332417,0.25594985109719887,0.25222217841083555,0.34696815267250836,0.3159808921194818,0.22293608800852568
0.10031057297696683,-0.032006033902741364,0.20850935978442775,0.2458072239960694,0.23207186740627778,0.2782010801182531,0.26615609100781606,0.1937963933134296
0.08187036988616697,-0.059867007023616296,0.17314833924714185,0.19757891245238757,0.1875358226144063,0.21392006274628583,0.21524650549224525,0.17928388849201857
0.030678095418334675,-0.08115939563524757,0.08794091092256158,0.11370183148246495,0.08848634403371644,0.11258499704170086,0.0748975337860188,0.07556976897451202
0.0391931057741115,-0.08033151751528736,0.12190570694488688,0.1612205507155589,0.1740568409485717,0.21934787206559364,0.20770679785648238,0.16734949138265015
0.0820081655585424,-0.060335756257431136,0.19715962766730738,0.2508178000365847,0.23309567283982013,0.2910644049337879,0.2838714666705049,0.22198266259379834
0.08519236441232,-0.06197122278016191,0.17105173627138207,0.21519255268147974,0.21195556247262975,0.26966487490502467,0.2324320754628898,0.20340758703011838
0.043245362097681095,-0.0807680265915215,0.1241396324138794,0.14972285860232504,0.14343757121125755,0.1824934010899061,0.16410571385301428,0.13393889548382149
0.014444657954657047,-0.09546011791283336,0.07625554641050397,0.11371154124794511,0.12315214897747671,0.14550377770206854,0.1313060871053337,0.16794126381557312
0.09266662202675735,-0.06721481453495261,0.20511777107961654,0.2536140681254326,0.26699700566754087,0.34429560267981335,0.33749183218338896,0.2432954644611641
0.09403609774138325,-0.059734135103397014,0.20540342716684457,0.2502754520747468,0.2587874203014028,0.3078769352700057,0.278943423792517,0.20450705739236547
0.07096686268939521,-0.0405744309095054,0.16796459631928543,0.21369614890411406,0.20142544510156232,0.23881195710428343,0.21818974120790227,0.15692932193561254
0.02470702810747004,-0.05432760956336194,0.10952658795934572,0.1272045300957215,0.09744548693187471,0.13951590554656235,0.11555712240571352,0.09126314924591605
0.04324242038242282,-0.04148496554978964,0.14133010194587203,0.17453073984057033,0.17875120607137518,0.23196928576953496,0.2282328785890254,0.11061782740714818
0.11778979448402305,-0.012871912176888396,0.22664527010481725,0.2684249932098602,0.28206381322122076,0.3497316513280683,0.3237990362813548,0.1984995483240397
0.10332854862471072,-0.01971510247654711,0.2047164691323134,0.2537333811532704,0.2331242294331944,0.2932175778603408,0.2621864240264059,0.18503949463756894
0.0759284076702026,-0.04131225523058568,0.15152142880761107,0.18323096476114933,0.175020951423994,0.2113874119516338,0.18188595009396344,0.14635027487408725
0.019523674431409274,-0.0682002020285466,0.0619851047034385,0.09021176487020069,0.07384366540387712,0.10254412620396276,0.07048889131286346,0.051937132986010145
0.06105195135242997,-0.05939451726851919,0.14458105486380265,0.19548114031307323,0.21397086336628582,0.2674626298671802,0.2650519767715779,0.1411905368533139
0.09202100843464045,-0.03356365637918185,0.21913823351643644,0.2498843630538518,0.2570412457102385,0.3394563896420658,0.3041064603454596,0.17587933937376823
0.08914076447179883,-0.04004027492635112,0.18968194141809497,0.22442395640167728,0.21813872093932352,0.256495287358336,0.2487924002615205,0.1499887561672347
0.04382427425065047,-0.06508390012666132,0.1173231834132306,0.15909254133060355,0.1485601961624885,0.15504226265427423,0.1663878306281636,0.09441232200227362
-0.004750127182014327,-0.06432680558545478,0.046366197855134225,0.0688467677745318,0.047900224713303824,0.077538720896464,0.07070903614291327,0.02163637288725985
0.056686910590431544,-0.05489322153979949,0.14340943435194842,0.19020036267265564,0.22389123127746247,0.2796985941125547,0.259150738471427,0.1951433232846787
0.08351642535836169,-0.06426246410341273,0.1847946929505789,0.22938685856689256,0.2191003772618234,0.2764522131671012,0.2722664757958958,0.1374287064286303
0.074768630268089,-0.040835890062490054,0.1629647028827792,0.19743222882359215,0.1790055601827396,0.22001870280635205,0.2108400982219304,0.12517915310670075
0.026080130277037247,-0.04475033047201372,0.08420663823819595,0.10518636524344835,0.08340174109075131,0.11039159264763712,0.09475654603820735,0.0363394926986125
-0.02280837468576717,-0.08635774024670666,0.033750093769875575,0.061430216579903635,0.030196792786738938,0.07723294081317494,0.06058579671672876,0.011516793143120763
0.07099420597543447,-0.042681070481773394,0.18913423216938435,0.21726621711028116,0.21440780640541524,0.2928853011907237,0.2880623286729644,0.1370655942832436
0.09261357292089208,-0.044237353807804566,0.18771414443740675,0.21970944847155294,0.1815234908794393,0.24981873317875922,0.23425034766316638,0.07642341139986725
0.07742727051102304,-0.04412339540316199,0.15982496493210685,0.19656256342504458,0.1589693382319876,0.20681576856167228,0.18804609250287377,0.10241409158198825
0.008542734230757576,-0.06286439753961441,0.07430956853048144,0.0989169438510551,0.05655469689357644,0.10754473908685046,0.11297436754781992,0.0656540920066499
-0.032376675267260485,-0.09867733919906621,0.02027848167489417,0.03246983727836733,0.0414878534378237,0.06203713179526556,0.06625649882569898,0.018124628969264894
0.06609135159520814,-0.07511799762009713,0.15799558872344593,0.20471601702646186,0.22480813743665523,0.2876830677771937,0.27807861064743966,0.1610811897749303
0.05960629846784046,-0.08515147440610178,0.1574341062720157,0.1936356246747134,0.16230702926400503,0.21634227955256544,0.21460544271414872,0.08718715929182844
0.039140342282470944,-0.09016256125564202,0.12109748073569675,0.1476005946183712,0.12841657489003502,0.17684552067979906,0.1611217283634325,0.09217767665512581
-0.020632577708554915,-0.12814322665971015,0.019945188448227874,0.05441523008821175,0.04516691783491611,0.0535024785700768,0.03614604275212824,0.05737067736388904
-0.05328325050377245,-0.1241535303026576,-0.015350687378873296,0.005099844536341019,0.020017227422869238,0.043794168696293656,0.06401934814148943,0.045322089806367025
0.051466741741279534,-0.08388004093128093,0.12896968927235128,0.1712574574129753,0.20948415741564827,0.25941736867439624,0.2618931414488873,0.15629944721965944
0.038637443590382625,-0.08553917072006548,0.10817639870339803,0.16041731963355424,0.1603718136461261,0.18023112609379555,0.20414918121422776,0.09044257743246242
0.019016618628640014,-0.09591679632767068,0.07285463702503206,0.10278691051822361,0.08681123246676103,0.12653925430311763,0.13124682381527397,0.08625962703368341
-0.04474274660693249,-0.11007135213718885,-0.00570059384801104,0.009252021185678416,-0.007494599918662553,0.022862918775524543,0.03656862298172622,-0.007146388864567463
-0.009985080551699319,-0.10459728562308945,0.007902969321013573,0.049725651115935215,0.08640759428236747,0.13106956914739581,0.13018158550634204,0.10458904827099996
0.05761782793102664,-0.08351155984800071,0.14846176673903105,0.1869838228390231,0.20442322407106345,0.2594781910002246,0.2782268770548064,0.16546151076239576
0.051598794095858214,-0.087187270303685,0.12756950212109902,0.16280125857747232,0.13021948852467008,0.20354445862816795,0.21887733630664308,0.1359070924127915
0.01430548993373705,-0.09241647991405441,0.0701024034069402,0.10146781961513932,0.09229889739432538,0.12348728798782393,0.13101944237895474,0.051425624823793634
-0.03924834046883668,-0.10017661983845567,-0.01910239706560672,-0.0031142882511659697,0.005921084051370401,0.0036440987132288216,8.906840792362036E-4,3.8472612467493894E-4
0.005174459970113857,-0.0939083649678473,0.04848516844166206,0.0793249314406233,0.11468701252922155,0.16266514423459355,0.15827710084075616,0.09929771526041649
0.05981365890465769,-0.0648789228006513,0.14546938683110874,0.19720328366856796,0.20966356554518456,0.2604057094740077,0.2618907306690663,0.17473242736921218
0.04922602462135377,-0.05799219422828085,0.11991957843277747,0.15962296803753032,0.14620261535370704,0.2198284542849835,0.17616263102076976,0.10151071741144847
0.009209410998893428,-0.08261082344118187,0.05961485993736218,0.0952630757272935,0.07619104753086252,0.10447489083523646,0.1049560998109802,0.03836288984513206
-0.045643229986947906,-0.12039708411830438,-0.02965676083578994,-0.0128581562613211,-0.003601672961816252,0.005969675010811054,-0.008753831203302559,-0.028504375031594698
-0.020636403454136858,-0.09951553158639351,0.022730871046729204,0.05070686406416541,0.06911840180573231,0.11619570259565459,0.12122980761602178,0.06778573231899855
0.057017062663796816,-0.08776810709255971,0.13106290698261944,0.16452900190800931,0.16720278668173022,0.2251837267006386,0.22572416290951025,0.11960772423149305
0.04213849811341529,-0.08321650170682951,0.1012897195390825,0.1466964711774823,0.13101347045069273,0.16444310902467635,0.15658324467397472,0.0693158757509209
0.004721626012500785,-0.07562034335676421,0.05006427704509789,0.08019177636623928,0.06599266916904892,0.1048583958967245,0.09951266314577409,0.044594948667738235
-0.04413202432118879,-0.09664362014602913,-0.028116149648733144,-0.003974429283630898,-0.006463992146985079,-0.01210965166724158,-0.010389113992835153,-0.050739034564555315
0.006069137090579407,-0.0974626476180976,0.0576733360522325,0.0918815971749803,0.0979785559096719,0.14563708087470978,0.16288581530399018,0.05735034007336624
0.056945106364705005,-0.05072618159836348,0.12860126753098514,0.16086827358878,0.1575002779299776,0.2261519223330128,0.20655184055094478,0.07082320775225612
0.03734038211037192,-0.07612453388251879,0.11330696307860076,0.13518524940978144,0.13280514815852018,0.1605207024608922,0.14327803035759257,0.0979054582034988
-0.005919757364750984,-0.09507913681724264,0.026918567624662215,0.06572967208918129,0.03244748971767222,0.06013053628138841,0.07134800296115068,0.019199393863384262
-0.055575414850596354,-0.10078943765436041,-0.04652094420998914,-0.024696068057083423,-0.04537115481083356,-0.022352622402997957,-0.02425933626807994,-0.019342879049189132
0.00391808552790944,-0.07631061796339816,0.04287072160779437,0.07674387112801602,0.11980745259193161,0.1695082908691809,0.1610136429359225,0.10539668390653431
0.07209307658069578,-0.048870381396832155,0.14089102328100578,0.1860405019929321,0.18744415734641803,0.24845283675229507,0.22482442401705258,0.11473979868989201
0.0593863546109745,-0.058673261861667464,0.1222923502998394,0.17294126801259968,0.14745920992563305,0.20381093835022124,0.17124947077410535,0.07819899405136574
0.026998969131734073,-0.05962044296824341,0.057902326204536864,0.09338805267769011,0.06828709497757882,0.09916744329749434,0.10118828248232797,0.05065862727535342
-0.029040689549091968,-0.09080620383822068,-0.023829641054101194,0.006642362034121538,-0.009857532370660269,-0.005579406743365128,-0.023541149074583545,-0.015054124340293767
-0.015250708890906177,-0.08592915350490563,0.027140797940733888,0.04420847922851873,0.06291999064045456,0.0971177912104363,0.09692448661319665,0.05413719760068597
0.08310685352640909,-0.04941889301350377,0.1456131395831364,0.19416125879734658,0.18531077986596703,0.2648978384678294,0.2570423863375617,0.11085169263806008
0.07305033731573522,-0.03313652896691275,0.14169078456697126,0.1677065861489323,0.1548490383751463,0.2198829272920296,0.2153209789111839,0.08869947973308304
0.04091087103763139,-0.05790423305606131,0.09269312299425897,0.11424021885020759,0.10592204369941524,0.11515130466922856,0.1222593544207423,0.026904769515146018
-0.011456660905174963,-0.07841521924999408,-4.976149072204866E-4,0.02022349462547557,0.020496896421843325,0.023239265620577904,0.030319803232412207,-0.01998934807243831
-0.04034676916820925,-0.07642315477604741,-0.04557761244197714,-0.021567699893152867,-0.03401758358631299,3.839362160067278E-4,-0.009575037945499715,-0.007242976700370982
0.07015772890208925,-0.044801616785581484,0.1210379580396019,0.16595081425135821,0.2004430846987461,0.24757203221984792,0.24400952911845825,0.12408710447346519
0.06835991630199303,-0.031169109542358554,0.13876181477819763,0.16350317317238233,0.18196245713145778,0.21671129145116208,0.19826855290565248,0.09123571991104971
0.06108983611731529,-0.03745161770924254,0.10582655643220287,0.1369501729684725,0.1266666910187025,0.16254676331051326,0.16368710314799267,0.0773276365856291
0.009651600141970272,-0.04353728124150316,0.025219367519907804,0.052943583036086275,0.026180043162647104,0.05717545003654215,0.04723903758225531,0.009999985269247336
-0.031015168351578113,-0.050493829553109576,-0.02178359475927895,-0.0015984995108049432,-0.016761271717980565,0.002564645054446743,0.030126072158430495,-0.03380402010014859
0.06852193861773577,-0.04936876224481024,0.14141705797352794,0.17401645314527558,0.1943125879350616,0.2623064696013406,0.2458533162130737,0.1322201371980782
0.07490470541137358,-0.02385278517593798,0.13138488081863522,0.16352451550466068,0.17522386909350815,0.2231998970517575,0.21447550498664597,0.12742018474699077
0.06862972034566654,-0.025045788004605444,0.11127574458738183,0.1360015285803428,0.1276801185118715,0.1620475729582464,0.1598130146831323,0.07452958910243285
0.015726556035103235,-0.027243080399745177,0.036829771851457,0.04956159141723898,0.052459960278141704,0.06108732138024371,0.07326292225533698,-0.012347509626990404
-0.02735338767478961,-0.04511876417044894,-0.03277641538402178,-0.017959546842974447,-0.00901538228362958,-0.0029553661167703027,0.0019015965561366283,0.0020872338005222396
0.07890384912244877,-0.012067486375027118,0.13691511963048136,0.1643474914063167,0.19915746067811435,0.2716304473502076,0.26926338289909474,0.15475273789134059
0.09535878431097583,-0.0195950795185737,0.16121184725150572,0.1800514023923265,0.21337785659503167,0.2723555119424138,0.2509799168241271,0.16764638189835518
0.0879555032186089,-0.025735362063594402,0.13487300549709735,0.1581395491504274,0.19148655392291222,0.19591996073034562,0.19524608458912718,0.13448175876614965
0.02994688688848634,-0.0458353916115045,0.06711872224827886,0.06076747385151314,0.07130616835845449,0.08904362239873526,0.09629470242587715,0.060059489273352695
-0.023435498672449224,-0.06766142290851596,-0.03360058146754006,-0.01595548962601441,-0.014100528375083306,0.005804630906890207,-0.005393264634252368,0.02480514180773262
0.06613560320663686,-0.02999746975527167,0.10175637753623634,0.12804470703550824,0.190923344096232,0.2251306054703834,0.22497790421391956,0.14417323850061464
0.0870016390312959,-0.024258912353148185,0.15363035800035574,0.17176781186206025,0.1844249297981561,0.2243391180164815,0.2268168148805016,0.11355580122594194
0.0812718898280748,-0.009614261113383763,0.11962787139899275,0.14844462167828676,0.16056191806651512,0.1931780049602558,0.17605684635372626,0.08736086963301493
0.04295415980304861,-0.029057735595310615,0.05704040477696594,0.06444779946182054,0.07723617834947877,0.09462860870364267,0.07690100300788083,0.07224821742304686
-0.011472078826750443,-0.05083421643006961,-0.010159254329760906,-0.0018058154828881762,0.03844729788585324,0.04327702351869214,0.02023309010520767,0.03555115757922982
0.08742517308769468,-0.006829607942490226,0.1483465431592535,0.16350243076770726,0.24753092111695196,0.2612788241205666,0.2681388947179874,0.16921773836566992
0.11158924060222214,0.003928180648778036,0.16269376202430919,0.17845514102692572,0.21769714711721044,0.26058617461641304,0.2382542088675131,0.19824746028083912
0.09093523673975412,-0.007670475731571979,0.14676455832127283,0.16028784426930454,0.21258199453899346,0.209184615479178,0.19863426565816478,0.19135735706171203
0.04080642306687305,-0.03456315934421672,0.051453051691008195,0.06396585110841102,0.12110468460234024,0.10795065409628506,0.0724429040701548,0.10302976321657202
-0.0028648390682951552,-0.051350387707907154,-0.017689362065747352,-0.02177014710069955,0.01635801407434339,0.015302594920736448,0.03288928733864481,0.06716956289464365
0.1006175809376288,-0.028344270115173334,0.16129335928650315,0.16646748309906734,0.2411107346598469,0.29020346389691604,0.27677595958336876,0.24711444594683185
0.13869673716318465,0.004608929578688467,0.19638703558305162,0.21095441677447674,0.2728069638817472,0.3079909255710974,0.2981115586277829,0.26721353092020844
0.11567827868417155,-0.00794819578464052,0.16546279498634697,0.17713819373344095,0.23766008231077593,0.24765783507475042,0.2516217442380077,0.245466746748996
0.07974658257498182,-0.008407169977669595,0.0966849639606696,0.10460213896860542,0.14261831368169758,0.12721800598531777,0.11687673932098416,0.17529855250504667
0.018168945769569005,-0.029866566500647774,0.015364569553021346,0.006668139820043731,0.04419203539552214,0.023330120662412357,0.008078233558064266,0.09669163865749908
0.06504329351605131,-0.0209748800422509,0.11160211666702742,0.11979586995527176,0.21064872261026074,0.22381211008699609,0.20977094485881384,0.19649640217779377
0.12228224609155819,-0.009752807116118263,0.1753884339931215,0.2070457382870559,0.27687117669130523,0.291532598495924,0.2691807310863153,0.260579644815321
0.117598483983895,-0.00262450620474166,0.16826701317235698,0.1803053043787135,0.24391723953971647,0.23950634860499667,0.21587402907715975,0.2236621562524498
0.08833248676757097,-0.009254017571158533,0.13486294315826744,0.12513065181754024,0.182448559412641,0.15234261382067266,0.1467409655574389,0.1762737196342114
0.03764751902372077,-0.021410328058993205,0.04057920375946649,0.040160480111802795,0.10389135253430432,0.06944995937281559,0.05412018638216964,0.14354632990371355
0.10843623636261995,-0.006712725243712528,0.15274496793489892,0.16785666575284414,0.2705558708604345,0.26843285749067,0.2550070637505984,0.242842121164098
0.1451809977962482,0.015133120850684151,0.19554074004701497,0.220032626709306,0.28091519385439234,0.29217645452259317,0.2708771868059199,0.2612608571282776
0.13216475465165978,0.001999490587483683,0.17298198256259462,0.19602310494051664,0.27066371317301274,0.23646047536215234,0.2332566454388006,0.23402275865209576
0.08673069095996569,-0.0056849055688907146,0.11271311903629273,0.1228811464134077,0.1668126376216726,0.1506019931025555,0.13146552116808488,0.1767419333774931
0.02754617900577369,-0.020907093565878547,0.018898899205594906,0.028144592538450634,0.06430825235789613,0.0443733384388703,0.027367040771122474,0.11644823058439085
0.08756804601453491,-0.006634647549636195,0.11411266760973615,0.13146799452258426,0.21837499575186572,0.2240910284026857,0.2121075998236474,0.24984461204813757
0.15421598118990237,0.02130500334794445,0.2296358741473581,0.24787157426945966,0.32872891411579086,0.33834670187066956,0.31935101458712806,0.28567918308712303
0.15505185729517398,0.02690142563614476,0.20944457870106453,0.2259209349075016,0.28113847847007145,0.29361341474054403,0.25836130267527824,0.23835814679967718
0.12719576408589178,0.02289854579887438,0.15450402512831263,0.17211731915443945,0.21647084095785657,0.20466841539509015,0.16829120733479555,0.24011806017686807
0.055838340876135456,-0.00717936517269601,0.06790483435830585,0.07644419015502207,0.12540031001660923,0.0959415066106159,0.08555209964610003,0.155977137804927
0.03109138566603238,-0.015320379748587094,0.0262530877118407,0.02174782573747918,0.0804430925172675,0.060694934943862036,0.041328156779983964,0.13417363618281242
0.14942064057175364,0.022037899539436773,0.20888791586193164,0.23040292252886158,0.2879362433582297,0.3278102152661145,0.3063852509552337,0.26505845142048323
0.1556171235562262,0.03494254117136826,0.20399468756322067,0.22941303260837434,0.2747657545711848,0.26818315414795585,0.24194090311960992,0.2709519406872653
0.13596549278161704,0.009576843466991112,0.1803874836765602,0.18929797679765747,0.24651510406491597,0.20346610368539028,0.18064266534397821,0.22736687026789126
0.07526700467174002,0.0037214178155209263,0.09746804683625973,0.11807959831884528,0.1549320528020197,0.10858015408314063,0.09554650350153082,0.16992026088702716
0.015526115432223729,-0.01991801382019356,0.015388159776776225,0.03324363482778789,0.07027078917719201,0.010441535441048998,-0.003873503575385344,0.09785755630050536
0.08515659941452966,-0.01860491614503297,0.0961899049738354,0.12380346300161138,0.1966871756798076,0.16564587845879783,0.16780717471451664,0.230459770035931
0.12385370891697975,0.015552162177721655,0.1804675102829026,0.19748619028951164,0.2653338038264004,0.24299159031784817,0.21389110325556418,0.2300618821601021
0.1138945421674058,0.009075244239576919,0.16127657399226053,0.16174442648070161,0.2376934998614005,0.20386213452350083,0.1743104636608101,0.2292159457966848
0.07757694704205081,-0.0032333508856040236,0.0935120659961921,0.10071921385442067,0.14452367171735186,0.12649045214923013,0.0858790744229703,0.16822849814852267
0.01661692629629461,-0.03200783709523457,0.0044601134540102685,0.009555384007258291,0.0638178445633493,0.007768718221410165,-0.032916181717951104,0.09042306229978406
0.0759371674685451,-0.020960629026962694,0.08511147864491035,0.11037302531364838,0.19545709185015597,0.19835675406659264,0.168095063136361,0.22647525633158277
0.13302907969032063,0.0157018295994282,0.1935893029924505,0.2089096040179536,0.2963742289247404,0.2776766134545698,0.2348432747250863,0.2892303954386115
0.13409003741835074,0.02171588527728701,0.17678240244476712,0.1819371877304608,0.2383216079740767,0.2182212242769403,0.20251298796612127,0.2481139515367617
0.08535234583787585,-0.005355076628221218,0.11113346751844155,0.11984537939946771,0.16988875008819987,0.12838539713247915,0.09398382864097841,0.18289595813184312
0.0325427785654053,-0.027887888515819262,0.020764430319368185,0.02682064769588667,0.08433700452335217,0.03203751166577044,0.006898431952207115,0.1388442400169161
0.040736634485309474,-0.009948350147298472,0.05227560456813683,0.056642579423200556,0.15014041075127507,0.1192320462857261,0.08962799518772421,0.1943019351182975
0.14070190184494094,0.012480775156966736,0.2049339715949295,0.22135319624553523,0.3290023317855717,0.302066417299811,0.27854307570412123,0.30026174213525675
0.1480466568080966,0.00989694608938181,0.17795783525930822,0.20210214130344228,0.2784083814434302,0.26462552689198515,0.21000969437510822,0.2487974717025137
0.11409413080553049,0.02204438668589061,0.1403748283736341,0.14892827184706026,0.24118208901726781,0.20145580367549526,0.17215010398202404,0.2291951290690164
0.055885839362853955,0.00202141235069175,0.061520609727263906,0.06032597679224586,0.10513954580433506,0.06534850130007709,0.03449955464752696,0.13356357371410202
0.02424333556883225,-0.012027077691954637,0.0021043641442755057,0.0032887640140749075,0.07417355110118116,0.024976234956773265,-0.009321196881414622,0.14039693717259466
0.13007811077752218,0.021338151779109433,0.18431068429113204,0.19909244895848513,0.2825746780065293,0.29130342726651953,0.24725878321590816,0.29814290325378684
0.135823231840433,0.049729278406268944,0.18932949299498103,0.19893758807607342,0.2657275515909557,0.29131008020390214,0.24032730509736466,0.28792869343229244
0.13594570147108512,0.03609542962690439,0.16412442261591187,0.1826851049775372,0.25522338446636295,0.23291147867165712,0.1612203334806635,0.2543176947776285
0.08496879682969562,0.017055004937608954,0.09420283128158048,0.08753998341661365,0.1576947134887808,0.12093474379575299,0.08227192175263576,0.1591137717962418
0.040947084188693,0.011495260516134427,0.029285499508298132,0.026745848692207003,0.1148835396391096,0.055069117991883146,0.04198374668755227,0.1713457931489154
0.14229205419368707,0.04157568788312853,0.1997088478383393,0.19702452532761602,0.31071476011713856,0.29733714066326783,0.26945449017690243,0.32134655887930363
0.1503126457205412,0.02419768536757951,0.19696816045186663,0.21057159173365056,0.29760838633417774,0.26974501353179187,0.23692547724416627,0.31295378485361663
0.13422910704573368,0.0406031233763555,0.17248668482320853,0.17290946061850995,0.2579816030268272,0.23087054485388872,0.18067936297857043,0.265152694138401
0.07908874370370449,0.039584593139062596,0.09268251535634857,0.09146295672159455,0.1646165806488704,0.12388922581864044,0.09345152392476236,0.19420705363888385
0.02377962045526956,0.006241440249129815,0.01607791955653448,-1.3347263993005593E-4,0.08129628243287397,0.0332779819228597,0.006638213861781784,0.1156333197828811
0.13095674906455396,0.021421797733988737,0.1734046945935551,0.17592606561150026,0.3071767344482268,0.2890873914779352,0.2543983826121524,0.2890584296412444
0.16272554170221246,0.04922861341707388,0.2193822415365436,0.23864343843832025,0.30804419214941187,0.31569497565115784,0.28522279336328993,0.25714509579036815
0.16308580979182158,0.04714220784266818,0.20829871228096708,0.2125239802249927,0.28241673175700344,0.28251382868751374,0.21918996928568982,0.26621375866336816
0.11568696538839025,0.028757675049890442,0.13644815120723688,0.14241410957559913,0.1989823492650002,0.15530484362547767,0.11774276632656518,0.1867458804793582
0.07483728896289304,0.024491614090836906,0.06360484416594032,0.05199859587931544,0.10965120435991892,0.05528700668035733,0.043522644618029085,0.1402406277432183
0.07817876199893566,0.003344965919896482,0.0856740993674859,0.08114576865297365,0.1818110673555503,0.1489383533323239,0.11718838453516912,0.22145212377838444
0.1689586056725797,0.04710770592689807,0.2306267165424021,0.24379003013849768,0.33891841140595225,0.33217448046193854,0.31683809054578743,0.2942974366333737
0.17214250225202407,0.047333161773359195,0.21180763813405618,0.22006938539416188,0.3009514594575659,0.2980728804322828,0.24875328376539652,0.2732031208286742
0.13828205231239205,0.018084240172604488,0.17129985433170902,0.17462160956573947,0.23747470974907903,0.21992894294344376,0.1699506249454268,0.26885642361840423
0.08006844082487713,0.01986043387137256,0.07619961131487152,0.0961032003489663,0.12594048650708656,0.09093394484782527,0.06906846481766138,0.12994450328733115
0.028969245095728687,0.006104311474982194,0.010338108118975411,0.008284689572534809,0.06939916824496742,-2.78452305399534E-4,-0.009421067592647613,0.07992708492906098
0.10874841049584869,0.01898677474397785,0.1301744788988055,0.13441492236556613,0.2260011532499764,0.22373215451401396,0.2185305505836386,0.22485186254065015
0.1489300287576168,0.030924904158737873,0.18035355182875729,0.19490147435424324,0.2622196123011178,0.26882747839807486,0.24417888481308864,0.24987433386806585
0.12833178397447054,0.045007508977123974,0.16896518583607284,0.16069675283134813,0.25609849389168066,0.2386308236100515,0.23081085426060277,0.24919831599996764
0.08248952675708515,0.01482229838387605,0.09737165345541825,0.09201355022129312,0.18872159727354018,0.15863121957942689,0.1328101748696468,0.23013790735353776
0.03182774022288983,-0.010441535934837452,0.00940650569364336,0.005734212058605526,0.10513834698642997,0.059218686620867114,0.03713910218722149,0.14135360783853235
0.09148105700748521,9.210278441535661E-4,0.09996280218326362,0.10196735452102788,0.2255365414662459,0.22189330796292328,0.22493044687449978,0.24614078244943904
0.15134692210602232,0.025581964941863808,0.1999219765227804,0.20589257037872521,0.28359500514416697,0.33309719735375476,0.291037505227334,0.28441693110222394
0.1367995808336961,0.016358510391272764,0.16962273828592098,0.17991368943690755,0.26511300262233944,0.25628676903310804,0.2222289874087108,0.22293946709202755
0.10194790784949101,0.012291025403609188,0.1313976442133066,0.12315063922523267,0.20225069360970693,0.18428543106166922,0.15524833935770788,0.16373295998750478
0.04244822979657405,0.0070545053103782535,0.038373825648945224,0.030787322709289293,0.08517438376381062,0.0798157054605156,0.04929298830370915,0.09296955035074805
0.013877635432365545,-0.02036524817735197,0.0059053976732828944,-0.007280443786062258,0.06404226690614578,0.039871655467583464,0.026268956222497787,0.10207221364959534
0.1377120461126366,0.0023166979484937258,0.19376117675273513,0.20155023353784307,0.29235268663204805,0.3395631416918224,0.29540283149047775,0.27716285292120113
0.15414545660637818,0.03662837553113378,0.19282148359278448,0.19973152576416214,0.2949469064290438,0.3055400612547369,0.2917896172526171,0.2919793163395599
0.12964364102765338,0.0013464387462495814,0.1649789699926452,0.17688392816477222,0.25348157968436524,0.24132470430955677,0.21236833717963172,0.2430880605600534
0.07510784871973825,0.009663886680082358,0.08197534324468006,0.07936115913755941,0.1451185558958556,0.12538434012954836,0.09827835817142798,0.16289282007569728
0.02031729555316012,-0.03231425783426007,0.007908296604677935,-0.0030253363579848605,0.03472420805128645,0.008110522565532269,-0.016895435997284172,0.04862847228467533
0.04795504665653965,-0.009575706416988808,0.05791272220377647,0.06499395169000516,0.09630442011619694,0.11925820376384144,0.09410905816439889,0.040925041986530714
0.1364677339303954,1.8307099415926405E-4,0.18810837683689668,0.20757972364187577,0.21835407123130882,0.26058964484192115,0.2257593761192256,0.14073895342735143
0.12570092528035037,0.009861215975737844,0.17420782276914962,0.18509260525639362,0.19792797230051465,0.21666587761953288,0.19022119020533632,0.07719214195256298
0.1045152100233017,0.0022636024060612167,0.14218055855677275,0.1480321113977927,0.15244872190569422,0.15961020129288195,0.14350333004062663,0.08770094975948545
0.05050309013077208,-0.010203653592697905,0.05839101581902325,0.06680451049460769,0.10557726500205611,0.07719060827758523,0.05489308528481336,0.11092237299810795
0.042032525166395725,-0.01587640057544913,0.050226272399038194,0.06399716850452648,0.10348738301092886,0.11889000562526321,0.11192456828005919,0.11196037491596857
0.1448222705325736,0.029708588238390905,0.20155029225081306,0.21933219053471065,0.292627150655606,0.32764429001853274,0.31262674521102823,0.25799872552800934
0.14024642818599542,0.02318495543471817,0.18567949638592146,0.2039983230894535,0.29187855280824315,0.2889541356329836,0.25559592306491696,0.25373498375167175
0.11952956780417895,0.01814885739512989,0.15599241194325542,0.16122633052344187,0.24111592638762777,0.22453493166624125,0.20547092085390886,0.20254553396680752
0.0649259009119563,-0.012418983124334421,0.05753022509116046,0.0790033115712015,0.13917076732387273,0.13139480005677134,0.11567226701765185,0.1567527661548539
0.014148676795310323,-0.03703880820106584,0.002039082840782906,-0.014162896561409198,0.055525908631491074,0.03580212022519463,0.04441759820541865,0.10930082926498669
0.11190431695323956,-0.004514204333720392,0.14466992261275569,0.1704856391654168,0.2866821640359135,0.32807157607919574,0.30792716227910677,0.2903259315965162
0.15665658150087233,0.012866148122724092,0.2097320528424969,0.2327886294421141,0.31645131882396965,0.3580126939747982,0.32226391538515836,0.30399758088531903
0.15984681852947702,1.1905420230958613E-4,0.183985941114906,0.21403344123259804,0.28743203867508615,0.3174793916436486,0.2840673257971035,0.27345341249760985
0.10611206870536535,0.01947675828009992,0.12984152350512135,0.1376390892820375,0.21489659078554224,0.20725039263452918,0.20388061383112438,0.2273619153887793
0.04327319016991129,-0.012381092742807302,0.051305736886661645,0.043920173946194636,0.13300081645157646,0.10585916919042493,0.07889472959019896,0.12767251231902615
0.05494766988689309,-0.012644228032466082,0.043234174565859276,0.061465222351231634,0.17816510440314093,0.16548377148356253,0.16204284020788576,0.1870683727851939
0.1555209063068274,0.01836315371627628,0.21261201260092974,0.23416179968087603,0.3288747572488689,0.36909884813293975,0.33768170294305544,0.30154818368609543
0.1482293542006021,0.023482533748446485,0.19586890753875055,0.21541976517587788,0.28482154138849436,0.30876632091514294,0.3018046208779947,0.26426012382626896
0.13657579893646002,0.028350761239699537,0.16804487179554892,0.1794336332274704,0.2583197709181762,0.2605640383817313,0.23570673816248144,0.2558622529440982
0.07633104742011987,5.01153932487404E-4,0.08678050611484009,0.09772594044605448,0.15713713723359155,0.16388182919117947,0.15277816981723033,0.18640931583230091
0.031083918509764212,-0.021026853325354103,0.04044021396514038,0.050609606160675336,0.14500126489700832,0.1382662208074752,0.11469541995496464,0.17785247802639387
0.14703485755681514,0.009880454842951518,0.1958611366453939,0.221522097195518,0.35717797424019926,0.3704969896826359,0.37875598205163635,0.35668379261252486
0.14476739197403407,0.026347843107942463,0.19353009601301402,0.21917950707197617,0.3329887609798582,0.34214963983912383,0.3408924086982795,0.3181494413817163
0.14158723040280802,0.023643022333684045,0.16897092703442032,0.18737225263419122,0.28035782842618084,0.3080009254543968,0.27923177186736303,0.3011849530018771
0.08567821730122327,0.013029486372677642,0.0900828431693931,0.10281297132126364,0.19359022933745687,0.21191065984105595,0.19025917327869182,0.20625743040351996
0.03456187226877759,-0.017295372976299076,0.0228342646773051,0.029611857708333092,0.12372874122771844,0.11152842938138503,0.11691077216515716,0.18181374552687232
0.1316400760213294,0.031314897277105666,0.18231280246340156,0.2020342675341772,0.3258688375576243,0.3826968013743522,0.3642215863658914,0.30791139844965215
0.1724314308849865,0.0302694061732708,0.22424841320122044,0.25897510986873123,0.3465194744371076,0.4081190300740296,0.40495744047066096,0.32465539251964853
0.1646158684222978,0.040292239525165266,0.2134432922577406,0.24746064501208312,0.3426716914427214,0.3642028667379892,0.36190717430149505,0.29297975526888886
0.12017467040700791,0.03363587589833041,0.1612521511632726,0.1683119373600644,0.24965256116738144,0.2673615715862019,0.27212064649646056,0.24930572501921724
0.07284660334611504,0.017113820918455334,0.07899002654847466,0.09790427367597081,0.17975972340492963,0.18182179802107354,0.1590878212754458,0.19062071615575732
0.06891668863210622,0.009459919236958315,0.08217936728773405,0.09825495219402895,0.18621374291009835,0.21078635273444785,0.23174652904326257,0.2360169695773083
0.17420537872649622,0.039054070510289786,0.2276992485259971,0.27491815121741126,0.3878713342986281,0.4380411610971264,0.41925629722046687,0.3874195931626284
0.17047385908410106,0.03356562272503484,0.24463621314217052,0.2763494562685213,0.35412809799798584,0.3919189107666442,0.3870410532469421,0.30945817073648274
0.16213267670533438,0.041078755431595185,0.21090830964610985,0.2356944745413572,0.31819454995081875,0.34314446533590215,0.31277948811311584,0.2787428015120461
0.11205623673219202,0.03738317428799967,0.12984715155707502,0.1599972807264953,0.22361210051409075,0.22718855308092448,0.21824412722847997,0.2271025476836678
0.0600533611054154,0.003982826278004545,0.06463072221239609,0.08351734293860436,0.15724819770168888,0.14445210174135306,0.14269821317394518,0.1547861168718901
0.13766408324058016,0.01798685542171634,0.17973563589489158,0.20942179286838303,0.3240128598502299,0.3716430099023816,0.36881529925813067,0.29403419141005094
0.166492623532852,0.04165449128047131,0.2426620130325505,0.2795295125047504,0.3589893057211221,0.40526915234695926,0.4048947179472136,0.33037567407428514
0.16356176961787205,0.04384230710331034,0.22136202729606852,0.25025958043957824,0.33513202124243857,0.3655161514522944,0.3504620743209549,0.274002899951928
0.132163465591921,0.015169377224403762,0.15604250036732575,0.18200591804644517,0.24345334798698345,0.27174390960533756,0.2679966410627852,0.22090612302935309
0.07072848305489665,-0.006675603619070214,0.08825943963296391,0.10380418662495132,0.17426894064656967,0.17574937148615577,0.1701136031683835,0.14223329397468426
0.14385093514489505,0.02988337625201323,0.21609075765130528,0.241010784290226,0.34355528823276216,0.4051663092991133,0.3853595106723643,0.3055581741442688
0.19852979181203634,0.04383264582564196,0.2747753823484897,0.31042898107542555,0.3926404735332096,0.45110371291026397,0.41742627339671556,0.3186429525203595
0.19063451239310084,0.048593406197766684,0.2542009497676303,0.2946773933052177,0.36673447887053845,0.4131020601141166,0.39260397967949906,0.32004711646368184
0.1598560353137189,0.04070151511527972,0.1928718631555965,0.24095467898866707,0.29562020275419737,0.33028743865238935,0.30865623075742826,0.22507546311804313
0.1083950358843402,0.03410798056087382,0.12964010893525318,0.16061136278453955,0.20279763091648872,0.2200520445745729,0.217624637786073,0.21468032125276876
0.11309486878978955,0.03766031003346465,0.14742735863195194,0.1908350808268407,0.26671557139563673,0.3148077516666857,0.31200578300224985,0.2389963931750217
0.2085987205312436,0.0858388591880536,0.2970041704782536,0.3464241625735147,0.44470485415570793,0.4830008191590273,0.46774311593832346,0.3404929072507238
0.21408892910873695,0.09347939640902242,0.2898741394797548,0.35276761503186094,0.40054460852883167,0.4695329894404149,0.44094450068765856,0.3537533321927733
0.19979192201474236,0.07266392060817793,0.2810246009577631,0.32213118464943497,0.3591877557910677,0.402378837420451,0.38041307975920974,0.31511746634197313
0.1544231636655672,0.06546582981772406,0.19369683344008526,0.24706225096290943,0.28023492436361036,0.2867685617910195,0.28631859072064353,0.2346169929623828
0.10743052868279498,0.021835802780309558,0.12718636099432876,0.1541113333376417,0.20029665054996992,0.20544936340332676,0.19401394461718707,0.1899411312648563
0.15869280273418193,0.056946564421264514,0.23018389185946064,0.2545607114777986,0.3246034503992365,0.37714336146511945,0.3591141708968741,0.28751633140046456
0.22033972975065075,0.09080577327357664,0.3195458858954182,0.3619657253780612,0.4078860599543247,0.46169653852703707,0.4463600865054474,0.3319078883411919
0.2221995019690802,0.08099859652212112,0.2997205982960686,0.3577278444756619,0.35809466541200746,0.41821166496312306,0.3983321260369815,0.28604481875679055
0.19840100721560028,0.07801076548412286,0.26686718071686766,0.30484616656495345,0.3328119191287112,0.36088024104587574,0.3642003802880683,0.2691546932686341
0.14525115888912363,0.04254393124877361,0.18717171651625508,0.22417246794102866,0.24515005922801889,0.2537253944871135,0.25683309062711235,0.24984875707894605
0.13747134569385952,0.05445706782036279,0.19373846351310753,0.23004911075304688,0.3082263123334476,0.3398477451237085,0.33958956029369214,0.30571481809048023
0.23195532387443618,0.08398585537863353,0.3173945228369205,0.3535408428318097,0.43181944372652836,0.47113743714400624,0.4466755376726995,0.40755159200152774
0.23032503844427643,0.10959099203768713,0.325172890801238,0.36032353835058945,0.4014543488291426,0.4403809658861511,0.420223089602679,0.35483860500813347
0.20502739397795003,0.10162808423046005,0.2822383579774941,0.32364802873364606,0.33265929127682725,0.3721124984376583,0.3426473287398969,0.3070267137005931
0.14802527166583873,0.07822934820150992,0.2039212218864697,0.23130203936062788,0.2500357932990176,0.2469750532752396,0.25136491780335035,0.2686520287280896
0.11245342508765284,0.05259944306507818,0.141493341448434,0.17112882045075223,0.1948620018343687,0.20445072449168442,0.21622158452824644,0.23801823343273773
0.20184928107730013,0.0901723831670178,0.30055623583552304,0.3514477469882314,0.42186703483414806,0.4614230430562817,0.44492064106301826,0.3830246984849534
0.25079163365137946,0.08902876750846205,0.32132891884767484,0.3813628293062866,0.44167082283797754,0.46900421652706575,0.4502292824075416,0.4020709110210307
0.23424471153837062,0.11259684653612298,0.32167820254397006,0.36494494439665537,0.40194881427463747,0.43241706600170293,0.41217581287432886,0.40055742666691974
0.19617061376179634,0.08899107432196143,0.247388922092938,0.2721573320657724,0.30387624741914254,0.31475236041847676,0.2911439557572477,0.28809556467392405
0.13004370957023526,0.06112804497047182,0.1577205413570673,0.1814047089890739,0.20399949127960554,0.19159367544144373,0.19846069782081255,0.24812941739805677
0.10203107532000952,0.046718401032978904,0.13255618291520038,0.15870901044439512,0.22340250318198934,0.2052668572819482,0.21523889525724677,0.25241734439424507
0.2211469869342364,0.07249662316911962,0.2989316575014783,0.3298010631120296,0.39859536597958817,0.4459364793081632,0.4301025624136174,0.3668374974726823
0.21914931585260172,0.06375525443335277,0.3030957209673398,0.33242552403054476,0.3991943874902785,0.400345351401116,0.40650967103592656,0.36212169757825036
0.19768471212007074,0.06785051950622935,0.25863214141464486,0.3055259709099706,0.3480684801658953,0.3663170993570616,0.3575653823903892,0.3296617440637696
0.13009596190353215,0.03804888043484835,0.18781534535903235,0.2085244532169644,0.24461324671976975,0.2558134398119222,0.23391466886963597,0.2851382189585684
0.0823870528490881,0.015841058728761757,0.11369734223043738,0.13720015449697665,0.1852229651406056,0.16985491935782204,0.16003880302500703,0.24618376927345792
0.16839330475500502,0.04110194141920928,0.22518749156050832,0.27433792829927134,0.3531405177904343,0.39777650726294556,0.4054867590114797,0.36375449536194265
0.19907610911585452,0.06955023544693094,0.2683808020167415,0.30878421831697966,0.3740174312684598,0.4110903974702176,0.40528158259054436,0.36654486803455416
0.18908997962124413,0.046018734161292665,0.25307322479315547,0.28702266970779144,0.3359538756779687,0.36761568286499025,0.3451538951564199,0.3309678374826476
0.13529679087751303,0.032291952714441574,0.17680051158973353,0.20665311647592877,0.2719809804918434,0.25392557329528026,0.24891815507049386,0.2865851418076231
0.06266227375724728,0.01146394196885571,0.09162761222029595,0.10979080063793123,0.18206924709842587,0.16513493084378755,0.16080405051108798,0.2416210577683504
0.09859788275685595,0.013780108929595736,0.1340949053514104,0.15620941222555373,0.26031978353867646,0.26416552550013467,0.26498822380128806,0.3121786321241611
0.1963945704374761,0.053399395286774044,0.2858413229767074,0.3100700097502614,0.40308779599656186,0.4577495107863537,0.41871737526590697,0.38661970042272537
0.19529723601955157,0.07313341563801974,0.2673596035303686,0.2967347969423563,0.3894478996256972,0.39858294364943747,0.38401967199654685,0.3652147487550231
0.1663010813929405,0.05537329345047145,0.23073887687595623,0.25592007744465745,0.3022042169672946,0.3178102736185622,0.3181252792128376,0.2799575964324603
0.11534031907225267,0.04661370974879436,0.13397350285870369,0.15585265826218236,0.20362920073109386,0.19733221778643006,0.1884686349288269,0.212699954668888
0.05669769141900219,0.013583413147433457,0.06650311107424486,0.08241199826701763,0.11534187594758455,0.10859574750632221,0.12158114427962784,0.15417017360466928
0.15572156066344722,0.042966544232409296,0.2011270140989862,0.23125142808179527,0.338211176241588,0.3445704266192991,0.3328165019340459,0.31534830448593754
0.1881420391427561,0.043710452788949035,0.25786659039126153,0.2975199026834428,0.3544101215748499,0.3993332875919359,0.3770427375818065,0.3364726595455364
0.17190330940820903,0.06406041454018653,0.234458418569555,0.2586365707815233,0.31273012161383196,0.35066505395737635,0.33203996321751905,0.2966988768438827
0.13416602408838363,0.030485452457849227,0.17716488384701326,0.18628262118161987,0.2287086545776716,0.23057761929366966,0.24826021813993643,0.213945789384052
0.0626925543640571,0.008792506913021643,0.0859732500892799,0.09267492105007427,0.14233553478890376,0.1268039471482177,0.11039954993446284,0.16682119293675085
0.08355030346402212,0.016862106739995546,0.10686618101139655,0.12553351433226034,0.19278678046840333,0.21643936700978295,0.21138616680713146,0.2114178942908712
0.17516778595077312,0.05696620769587477,0.23041519057171939,0.25815651951981794,0.34093417818121335,0.34097943029409616,0.32575376137914036,0.2765428535944638
0.17085677834810284,0.05235617773844632,0.20346738995402625,0.23600945088895725,0.2816600862438567,0.2921111925027525,0.307993807588788,0.2637234618194429
0.13843848196672282,0.0463473315506377,0.17340446749128657,0.1851362358033064,0.22910444086614612,0.24996730738656509,0.24973794779192304,0.21196841453987875
0.07364760528552317,0.009844259169209627,0.08448644646945715,0.0924020237101432,0.12988587708793833,0.1387545901376861,0.12842165642654038,0.13865459482180126
0.11055945091296959,0.0321502112910642,0.14280931052899853,0.16726809605518284,0.2551665339072828,0.26565376549330383,0.26280932832383974,0.2167722724383636
0.20338798020095267,0.06417944087490267,0.2692187261002481,0.2976345362861321,0.3324153296467198,0.3973917785337894,0.37490128506563447,0.250698838738688
0.20003909717579849,0.08869521822058296,0.2555646556346047,0.2844298961320503,0.3215530697796748,0.35587355039632634,0.343097326817247,0.2841040423639104
0.18359993488997073,0.08203785900381899,0.21724979355695812,0.24282674244754943,0.26416464675593554,0.29285420167692805,0.26400425875824485,0.20786372458961144
0.12268342180629196,0.06363107470371425,0.13633066909796746,0.1562769553302515,0.18441980824317963,0.1963423698905014,0.16787191443072477,0.15012836066397367
0.14534869510248308,0.06805110007048111,0.1734991832795963,0.19909028580026872,0.26534487360892356,0.29506928286819495,0.2746714874703139,0.20953531692940414
0.22867497422951405,0.11122548791823723,0.32054185126486245,0.34611755393111926,0.41120515536519064,0.45968567425002993,0.4411546831804612,0.3375531894354197
0.23844149203368664,0.0999527341192577,0.30597260764312023,0.33946633522504654,0.3723293348432275,0.4198541889792295,0.40576936277139564,0.31627576229504833
0.2140380755294,0.10687810327126343,0.27513783760835575,0.2965191029948997,0.30948318621935983,0.3470377080115881,0.33939284696877453,0.27781936060621465
0.15137782969979566,0.08317915950787777,0.19062250819730386,0.21363719446742913,0.21852866383371686,0.24308472739977538,0.23239416979468464,0.21392365574056
0.11908098582171492,0.06788678797372931,0.14549727150847913,0.17274288585666386,0.20993055419158257,0.24405613128596215,0.23053273234294172,0.20403244179948896
0.23837764122298682,0.08955373426846733,0.3077344761646345,0.3697311294461273,0.43038383531561647,0.4629390183480871,0.46494673174705065,0.38433893978961475
0.24326464063687278,0.0859944451700897,0.32115300424168886,0.3493467099042683,0.4249157816709313,0.4735763722387498,0.47544344518692117,0.4074407459777424
0.22919807986318005,0.08689230579123143,0.29139349946578724,0.32863868087623416,0.41188428668263055,0.4352508889633776,0.4356519195172037,0.4026144062112397
0.1850902743968798,0.07036905029886693,0.2264001947901978,0.25785778138447635,0.441775744162333,0.47236518419858814,0.4643199337734384,0.4371176416778374
0.1674277167069489,0.08359631248150094,0.20151594804555567,0.2197493423871265,0.4690958890218726,0.48969940567653286,0.490928487490858,0.44182264646481473
0.24885115347979408,0.12256333658407335,0.32531816161168015,0.37147255416840586,0.5522007290619901,0.6387959953290095,0.6096393186769349,0.5157633207163653
0.2631134456710032,0.11764357039407064,0.32951182935888773,0.3596621157268535,0.5560738604381529,0.603061124909204,0.5885478798825552,0.5126116034401305
0.2528982519914669,0.12302385649698287,0.314525267786769,0.3446183348811484,0.5451682387084634,0.5791587364375368,0.5714467847861014,0.49245662497396236
0.21032809881944975,0.09764960837740078,0.23764986382461,0.26215007968878373,0.48066662105649943,0.49564589953365457,0.4857342767574545,0.44008473266867615
0.19253821820969452,0.10872865935256078,0.24468726819619657,0.277283939012536,0.5162316645475394,0.5772106109410451,0.5590870226142212,0.4948217436124477
0.28845594964057913,0.1346195849496099,0.3808243900815241,0.4256302464568424,0.6914917119857039,0.7586703236509568,0.7425576531241892,0.5664752617383945
0.29056015105170224,0.16781173208450104,0.3886596602252304,0.4189106581637927,0.7217273292164121,0.7569608168350269,0.7408119591021025,0.5625006165698598
0.2822558299774131,0.1595135519576108,0.3437694674347415,0.3893148397379785,0.6922783426520916,0.7125703713176803,0.7048447722344717,0.5457271258224135
0.23087428114258435,0.1252525002067253,0.2880899500668146,0.30181021290311416,0.5417755620599777,0.5563216798544336,0.5228799849195326,0.450400331859533
0.26131943758965126,0.15149268654486134,0.33683969435176103,0.3845978654232304,0.5570743800573269,0.599005866256852,0.5811607774980639,0.48425545719615093
0.30428675988382564,0.14611999911111384,0.407041869364815,0.4576513859833318,0.6105245422767606,0.6303887130274036,0.6155042128765169,0.5546001048284509
0.29946710090740136,0.1387279982062571,0.3963126183112969,0.4248424510593394,0.5568770368232169,0.5884303268077273,0.5564387714803376,0.5102461412076639
0.27006595514310594,0.1136571664817381,0.3409050787739623,0.37079495586903666,0.47581619223538274,0.49301755898784017,0.4716580775893521,0.4605035575255084
0.20706900560678015,0.08831818151974913,0.24736508737117704,0.27875964664004227,0.3672541781205245,0.3573253187071675,0.3402494030080005,0.3872794518826202
0.24090348039403997,0.09088185608844915,0.3172474668410382,0.360616766548584,0.5044112485141165,0.5210096235217684,0.5005477299765984,0.49173818800852803
0.2782128093556371,0.1130987520810389,0.3943916769590851,0.4256892680943402,0.5352350109128091,0.5608129426109322,0.548623754163904,0.49919449803907945
0.26546457865178325,0.09102333447638745,0.35943697735780994,0.3944297904217029,0.49682439391236677,0.5078546320619682,0.49425077591627326,0.4679213832948449
0.21713227289814188,0.06526160398934988,0.3049273194065949,0.3308837149975739,0.41132809413119453,0.4109655050093465,0.3919847824374996,0.42411218668444406
0.16753212917317534,0.07501047203901604,0.2270923387833358,0.24407970032430643,0.3028440946083633,0.3202158308341724,0.30519837377277664,0.3649894387185576
0.14741529744924228,0.03421829955145121,0.17878932168595413,0.20904010978170517,0.29503557136429887,0.2855646707526408,0.2726078892578505,0.34581562310412106
0.22568334690182132,0.08776154969087942,0.320506662462947,0.3625384980045374,0.4515318442043557,0.490516329812335,0.4724321150870353,0.4640112200229851
0.2162424960213297,0.07349445069066242,0.3086049781345648,0.34846369577937447,0.4196197269920501,0.43597669626115887,0.420243090776098,0.3939664141548626
0.2027400425058854,0.06236353176741384,0.2811460228612427,0.30691213038489373,0.39160022515476267,0.3935315894026556,0.3590870678754085,0.4105819298661514
0.13891689839043858,0.03638621161294801,0.20266302652592832,0.22082326338793412,0.3004217912401284,0.27672081921904274,0.25090179924297895,0.3103756668659466
0.0938267090871044,0.038664049940349804,0.1236606253868273,0.14003919101942425,0.20897550731762507,0.184716930902675,0.17108372784966672,0.25666199928554634
0.12707279222531748,0.04411054220487229,0.19609460594987968,0.21412660264324795,0.3307868247272231,0.31930840248109793,0.3274755074816282,0.35800239112230725
0.19952266339828167,0.05614058995885156,0.3050229781538799,0.32804263496780384,0.44438289992918995,0.45877342723794,0.45381296342362065,0.4484398050980988
0.18912294120553758,0.0695471088232713,0.29476337363348104,0.3185579381211755,0.41020948548439046,0.41656926660401156,0.41496342750499915,0.3997461341492979
0.1564672182151283,0.06931539252813149,0.2504982778539857,0.25072153665485214,0.3472141881093939,0.34332298665900357,0.305352627564201,0.36506041900410624
0.10407583166442555,0.032608921055171436,0.154362982249667,0.17223525465386308,0.2556903020706974,0.21088528832233486,0.2342522039232091,0.29476806461917643
0.04468482059841432,0.008399051626091267,0.07084956107747142,0.08342727231141063,0.15751523742749926,0.11947264899991775,0.10388127186555124,0.17256835321882738
0.03410395654293334,-0.010384510128847176,0.07307698740825187,0.08276655852224278,0.1477717413195948,0.14360226482536398,0.14178641172626041,0.24369254981269997
0.14114107169147494,0.030741556388557592,0.24830239637668244,0.2664627459974992,0.3364911090913871,0.3734559063317847,0.3558837343660334,0.34324787738176654
0.14798198453015565,0.022214147853596666,0.23232734428391516,0.2464622038374805,0.3116928702053928,0.33207399135469956,0.2994840625815267,0.2915746134176192
0.11742971893604744,0.027338946454811313,0.1936423354192135,0.20403347301738942,0.26365741330656745,0.2830862356042974,0.2464493328807954,0.23884980760502295
0.06306713826756251,0.00925891476172562,0.1113375326669199,0.12778265046565596,0.17897095985037245,0.17214409063405134,0.1354281535813775,0.1940563189091173
0.021578180193157312,-0.016326700234795724,0.046887947255402504,0.04957906341200094,0.06945410493955805,0.06734685745214343,0.08126627245997436,0.14231536149798424
0.11178594155907719,0.011952839622764614,0.1780941969388078,0.21363056998213925,0.2547513550890503,0.2800200500040081,0.2694536646364529,0.21821373673787414
0.13947139562498673,0.032442810897310805,0.22093946250403734,0.239444280751002,0.2503539372401659,0.27055072874283675,0.2679641639773516,0.23592235313469356
0.12076130237056115,0.024448323733598468,0.1836325786616722,0.20518320098965726,0.2276961702771089,0.23451448433363278,0.22131714630878419,0.189485811471742
0.061720920921084,-0.005759832042551205,0.11146319921033235,0.12213057274145703,0.136095319509136,0.14597248685836,0.13410352152380903,0.16612806339170266
0.017745499063090572,-0.010674300706107961,0.029867270990577455,0.03687079387681966,0.04495635757049936,0.025363893352706328,0.02282138730143555,0.08865634134863948
0.07837830144016825,0.012114133677368015,0.12454698790305992,0.14349400187969288,0.19967120877759,0.21825413893619527,0.2040532614084946,0.20521332206897347
0.1583293484092724,0.04283221779354382,0.24891616781909592,0.2693328805019319,0.30583193709732953,0.3363540920317181,0.311162991268621,0.2855565418780324
0.14403847797282945,0.03734784620064174,0.23161844874514612,0.2489004624658099,0.2586079070595711,0.2854467264432744,0.2711526804887606,0.2793652038327782
0.11015407923300177,0.044567559367400075,0.17980801863974027,0.19162924174986376,0.20246611658159147,0.20806367265075246,0.2050402688373296,0.21494581858365333
0.0544177973038755,0.01471796159044017,0.08151418847991151,0.08578459112899885,0.10917244751027576,0.09865113169979448,0.09664257868257539,0.12402907538725956
0.0814789275823979,0.008662408892124156,0.10499744089674874,0.1187982980489334,0.1787356285155623,0.16708801718327748,0.17509526950201734,0.21234591379623197
0.17238492511727918,0.03805719504940456,0.25878642868215684,0.28214104959540226,0.31046349017745845,0.3776301794596337,0.33695125799164827,0.2910288919262778
0.1684128336706235,0.05856318612832623,0.23638520598640775,0.26982650138169806,0.2802752627196882,0.3260726756761858,0.3016539411946621,0.2815976539842938
0.14662923095610464,0.05126693717046564,0.20476827214230447,0.22064231379799965,0.2303929629327349,0.23883138350841482,0.2149859788428922,0.21941555140719676
0.07158519273970768,0.028489489329625008,0.10602662002960236,0.10859038995834738,0.13885637301299614,0.1270149404201314,0.09802299022681858,0.1379117594297899
0.036527209638033804,0.014464999959506591,0.07050131851869361,0.06509349532077129,0.08563197489373148,0.07362903792887761,0.0644903457216647,0.11093332486171323
0.15577250167128234,0.046503302570972266,0.22298060590492524,0.2622937686076561,0.29253342784510156,0.30996532929367676,0.3084911033174675,0.28034188417111383
0.15712989004362404,0.06698408059597039,0.23249340210949868,0.2654528997563941,0.26711665100506227,0.2781347151870487,0.2634430334378188,0.22216470281283804
0.15125007840948765,0.049299508307474635,0.2125887958382474,0.23668371872306,0.23063605478381408,0.23066079713444132,0.2163241673744359,0.19428856885171197
0.09360167633222155,0.04110674139307795,0.13373185842896285,0.14831626874789383,0.12109491603991296,0.11547462359993063,0.10644236592553175,0.13800595064365775
0.0594043709543553,0.0211038922000647,0.0812841971534758,0.09696009829541338,0.10192632576061489,0.09469823055230708,0.08476654532110643,0.1287930323976974
0.1635756535409277,0.050625750992914074,0.23831991896591923,0.2835930754252941,0.26437446698017364,0.3158601532809606,0.31003952477834573,0.25758377239006086
0.18581301941365985,0.022959289025732625,0.25534747961660137,0.2820678829322816,0.2554199844878331,0.258838182939098,0.22897046509676558,0.2263443163370531
0.17824296455814628,0.025986012499864104,0.2448523247211862,0.2669995583468346,0.22034576408144907,0.221904695971155,0.18232341450761788,0.2355691537254475
0.10279967836887943,0.03924916873139694,0.14560016446295407,0.1666023811983149,0.09265600111679057,0.0849015263149338,0.08864526634205047,0.08721974879065283
0.11788763288517148,0.04141108741550936,0.14804409697597026,0.16958535786845502,0.11686835756414544,0.1262482699726737,0.11667272590919518,0.10516364546906853
0.23370941761277894,0.13594124142006678,0.32229983548491287,0.3422800912784957,0.3090906947131655,0.3364682150164601,0.3295577386665837,0.22945163877450214
0.2402678610610378,0.18711751604172416,0.3211109166854411,0.34376743040793994,0.27340232190797814,0.2997174415473754,0.2782456288494571,0.1970508753285075
0.23281827194609545,0.19170216031184287,0.296909013587478,0.31321793857864133,0.22610824527588635,0.2183980069466905,0.20215970935037475,0.1378312654664576
0.1812045141384576,0.17667439132518534,0.21706338383582657,0.22641503911815797,0.14226346326929773,0.10436865255987743,0.07861523916602585,0.04691368844744276
0.17549464167848675,0.15473253584052424,0.23623104981058113,0.2476134010792348,0.15940971870017728,0.1835109735526107,0.1701007279204661,0.1018895534509535
0.26911354521846015,0.19623939018352218,0.3654394691250329,0.3967524404604935,0.3372072066487785,0.3696374967447328,0.31549868896805716,0.18995058379670987
0.2697316043987033,0.18790994164500352,0.3454699645899627,0.3737487831742858,0.3025167873468098,0.3296865031688066,0.28244345840589974,0.18679222359907102
0.2330409624230804,0.1432962952143444,0.30564608461980175,0.33463022920408697,0.2633847124831716,0.25933451473365765,0.23483354436068843,0.15631988205271713
0.17397664020012943,0.09899913473444141,0.22148167640158523,0.23320776691475928,0.16798484194925484,0.16414300141592789,0.12462857286017089,0.12057095343557404
0.17048960052181822,0.058871980444367714,0.22631076935638977,0.24418526467151364,0.23491521606609,0.24238384421949138,0.21451232902770317,0.1791141495387028
0.2599683451469672,0.10878167796183265,0.3563813973746057,0.37974909462972867,0.37817801681070207,0.38581759122045467,0.3562242548997728,0.29488999771374874
0.24370848929471456,0.08830230558405415,0.3386304485448934,0.37720111879484547,0.3273955273903905,0.3430612781181467,0.31323209584058465,0.24744425605717155
0.24697919228775106,0.08470762066832435,0.2963783618554853,0.34009378313151223,0.2958303906645249,0.27670056080364225,0.24771581611447074,0.1997716348166907
0.18535872496875083,0.06062457837177841,0.2367803454925961,0.25602361566164855,0.19623379367068158,0.1677080245186221,0.14401476388951576,0.14763086655783744
0.17605438036493817,0.05588554715656999,0.22815440374076368,0.25922889870549165,0.19292489681424374,0.22232814181951913,0.20465494843874932,0.174699835205757
0.25738272497296455,0.0919233493791497,0.34082676810158874,0.38480053182152496,0.3351106002995351,0.3787319321376441,0.3518861853771953,0.2590022833647157
0.24641357334205938,0.08998114829564963,0.32493945716954203,0.3712278026145477,0.3420885584187328,0.3261576104851773,0.30367586589789564,0.19945996411609498
0.23249947337707816,0.0811765138888025,0.29956296217923006,0.3394319111754835,0.28923972009543414,0.2830497944093717,0.26242047243903793,0.20075873508510197
0.18155269402490293,0.07003094518222489,0.22014694112248756,0.2669016640311417,0.18012707695681407,0.2042156894402617,0.16596961641213107,0.1683994178769555
0.23402670491299055,0.0862995190402652,0.3120428282911144,0.3618004326399921,0.33584037346114565,0.38095957486886495,0.3505762444099715,0.2447242469939122
0.2674569923287823,0.09731169200960647,0.36071920285766146,0.4193469592966765,0.3729462966581695,0.40020059622868787,0.36744844668378945,0.21585532137649607
0.26806278181195115,0.07260821007477797,0.34769670856295143,0.40033408855102315,0.35366961268751124,0.3844273766974571,0.34658444365536323,0.23974247566121715
0.22131522497454814,0.08443007132839378,0.3065616829544941,0.3478091805842474,0.2513511707391075,0.27917195951800705,0.254434909055945,0.18034338096558888
0.1719001702081251,0.05813371413318405,0.24142946907849536,0.28570082678613923,0.21942526962563824,0.2068644158051386,0.1973211977117098,0.1117208783499501
0.276922916501716,0.08469431185308054,0.39160175516143153,0.4500963288415304,0.4264610322690887,0.46405987254255465,0.43811979343961727,0.266964383951927
0.29744081093324437,0.09275128074142922,0.4092465821530361,0.4950257579850078,0.4255131644026008,0.47409606789463965,0.4300003485845396,0.25132986568279597
0.29364661504064976,0.09438846684274042,0.4093959176197497,0.46853359917294213,0.38010139352308786,0.40715508999990113,0.3925251952781746,0.19082764780744083
0.24764907974852493,0.06270090113677415,0.3318497766932546,0.3901170102849194,0.28949093331308196,0.32250804982671355,0.2945999917422941,0.1872915149957104
0.1942952094511639,0.06294120010167568,0.2612648188685242,0.3203436343857238,0.23824622127331882,0.23615256842518806,0.2159677067671769,0.1623169117700951
0.2748115524813095,0.09309068123965276,0.4116999136677658,0.4837147320817867,0.4428435945050642,0.49879745140927007,0.46070925819094766,0.2697715233500601
0.30556772460678683,0.08167335062181383,0.44255102761620946,0.5189873247238763,0.4402611602217406,0.510786298011038,0.4720768140543915,0.25299959378546166
0.30180181949214885,0.11309282454524383,0.4258129380206959,0.4874543309902271,0.43573910185027137,0.46727612987696465,0.442105095113014,0.29433469531411066
0.2539668373685046,0.07596928773847901,0.3463839955703762,0.40938016106013075,0.34159263188946437,0.3731948551390596,0.3507803876687614,0.1933113001942837
0.1987363425116327,0.05064849319391943,0.26515137723202165,0.32328605042848113,0.25103701811781953,0.27424391847239993,0.24258067119176505,0.1894889439382485
0.14943663186553754,0.03744846377877752,0.22854898612761046,0.267692456201649,0.20376171437916926,0.23198992021314607,0.2100760518205967,0.15031202262118828
0.2567065174598366,0.07204066524077207,0.38147348004090653,0.4463683569294429,0.41410851153266437,0.4862003215129711,0.4697503055055541,0.2826906301345818
0.2624474163926987,0.08149499046616303,0.3859748482248635,0.4503194673776608,0.4123112437891936,0.45130319849746925,0.4138324480276416,0.29544927361946494
0.24083764925186762,0.05054376854436102,0.3609555859524109,0.4226222523312979,0.3861317671590417,0.4147171669168337,0.3713410147626279,0.2542240668608616
0.19532216044872547,0.0307416711684243,0.2780143753890885,0.3289040432158658,0.2708571592242277,0.2815741767208808,0.2591688205574608,0.17601293160702658
0.13207942099612446,0.0038714851488415997,0.20343832148462485,0.24335356094221475,0.19005537843245268,0.20469331397203352,0.16939618234069992,0.08671617370812794
0.12522146628812564,-0.009931148179979934,0.18795282881974965,0.2333141546281191,0.2000275354273216,0.23642564500807262,0.19643364995248358,0.09426158219661802
0.21281238756088647,0.031169912208101943,0.3333440193096414,0.3806920750214523,0.3508127447866134,0.43229369351785574,0.4151020007075918,0.21758767184645905
0.20069199508512003,0.01453044968162542,0.31002557251434876,0.3656018098527069,0.3008294136926166,0.3611884839390642,0.3475422269889267,0.17907886702829556
0.179413897098162,0.014502913340911895,0.2848830326264278,0.33110014226159024,0.27640244536075387,0.3134941771353619,0.3055232540869831,0.14628124963675626
0.1377331635968968,-0.005271882969489654,0.204375601169667,0.23597133842309204,0.18094569606048877,0.20092576906079043,0.18921777230127432,0.09387503458226533
0.11774581211756435,-0.023001855899539722,0.1918927372170197,0.23364561078937995,0.1845892674086565,0.23723608853205239,0.2385732622089635,0.09528352055737169
0.2123270600234887,0.011178952768997153,0.3318321748336319,0.37726001831870337,0.3396696524579232,0.43139849231843197,0.41075030422169456,0.220130389999121
0.21209845003609487,0.012413245649305217,0.31186257960384844,0.3540408529050999,0.3197032808457648,0.37996016573820834,0.34882990614022263,0.1895259374954013
0.17906518227027673,0.001813527267932092,0.27423041288799016,0.31694386998265495,0.2785754431228623,0.3133899762961008,0.3131430556341456,0.12651968822790868
0.12340225394239088,-0.011801684510201922,0.19237379795503085,0.22186343281511345,0.14927502915966268,0.2034703236971616,0.1893166079257902,0.059254588910599745
0.11883093156440774,-0.011723642306417752,0.18506759355569027,0.222071709137,0.1831271050747948,0.23757722589017985,0.24113806842960345,0.09095490524812361
0.2348557987563973,0.01719314998840332,0.3423814522228219,0.4000418434846862,0.37304917900173207,0.4579710733107291,0.43742645219258747,0.1832735022629945
0.2292218340512191,0.03846834545916493,0.3573973845176486,0.4004980796399853,0.3397526355478745,0.43518665649383803,0.43108180906459115,0.1965667242505204
0.21973883052333298,0.030961124648721337,0.30727767632736414,0.364250664651409,0.30944093510353876,0.3701555273899384,0.3577417630551283,0.1515527055250884
0.16844844403207168,-0.012137466588141632,0.2390507006593709,0.2548821318376632,0.20913672024534313,0.25469546650084696,0.2446877665773641,0.1116605901620098
0.12287113550636743,0.008819851933510377,0.17821683980301378,0.21411737813821327,0.16598129950892432,0.20598998864062718,0.21455933411375844,0.050441357212497026
0.22526309265664216,0.03044485269868563,0.33748534311367795,0.39515366080220804,0.3650795595340651,0.4657277672193592,0.46766093204315345,0.1737194105565159
0.241613493513043,0.023165716522056373,0.35668522261085817,0.39810645461557126,0.3521151276450222,0.4397485949965758,0.41671554046761944,0.17506745241408164
0.22857383118148067,0.030359106842289506,0.3249825958181544,0.3631057252336154,0.31586590835590495,0.36939162886546406,0.3599565477494415,0.14902736465352348
0.18690100916324626,0.005526281109942507,0.2388914827561705,0.2725662565140392,0.21227468373984437,0.271480503651353,0.2560656005933892,0.08894639254659467
0.12997561407481814,-0.0018935781825326,0.17196848542721815,0.19379076664015454,0.14082487339860247,0.17319682391300892,0.1645887634955736,0.045263235250439
0.20781626926506036,0.02346302570928718,0.3045722835803923,0.3366315541362289,0.3263546392464795,0.40685104308197967,0.42078258392611917,0.18590490477280164
0.2353197508469182,0.06972117317792886,0.3554743455860584,0.3974984865380185,0.3566796636340681,0.4314686437805514,0.4165298210246511,0.19257183451173704
0.2366486546088557,0.05821487017533409,0.32684422032738025,0.34943356566444606,0.30264401330304325,0.373625576083062,0.3632615266501116,0.11712639803416414
0.18379796856577124,0.049768711559899655,0.24000929009717042,0.2751348157006534,0.21395096257228166,0.2570665935365507,0.25391546641848195,0.09400659251297512
0.11232871828051393,-0.012061353278100026,0.16010773419285915,0.18113664745594224,0.11667687121982004,0.1444949918469647,0.15089237088410812,0.0193665768710765
0.15034462289526207,0.013211815118272158,0.2220894489436508,0.2559147894969719,0.2323374421752072,0.2718227145990454,0.28546999721495686,0.08982255450117801
0.2214665599212532,0.049892665469419194,0.31109381271494346,0.35881934253393555,0.3065331146183823,0.37476639627173197,0.3680454845232667,0.14569957108436393
0.19494859249160146,0.03704288429018948,0.2802631394926474,0.3249119448921677,0.24372009160799563,0.3108758289900388,0.33232942557636447,0.09900310799040772
0.1769276509042601,0.018289652879198322,0.23060126156876504,0.2554644670505738,0.20226210888161594,0.25361782684948375,0.23459522153822804,0.07642590681579287
0.10677498475827105,0.007645329937376495,0.16259936555376786,0.1853185677347579,0.12677865769168475,0.15208670251202427,0.14710713390974908,-0.009969156880048152
0.19537184107434524,0.03588282426849443,0.2879193575087055,0.3193602996067191,0.29139778275524797,0.34919029935876456,0.3692800751730749,0.11773509931830493
0.205740910726081,0.041897771908230574,0.2939672479369846,0.33523883871725757,0.26113847586521505,0.3474554241287177,0.33004149013644135,0.11147279642812832
0.19061919726680276,0.04776256800158678,0.2606750190957663,0.29850003007896586,0.2322482740291381,0.29723334671741874,0.2842135411065231,0.057255262366889784
0.1347677033290438,0.01055950954638974,0.19949848933758654,0.2145516992264672,0.1088405005271209,0.19282036496825067,0.19125883830431417,-0.0055060720227923104
0.15330713158591988,0.006619517502353615,0.2284938171374255,0.25370277597034885,0.20310138735268957,0.2868627740887848,0.2654168671798185,0.07474082798999493
0.2367631413396529,0.056541927809307044,0.33976431206672275,0.3887413719606213,0.3306443238901011,0.4251470460698791,0.4152129940416702,0.13602536589194175
0.23073632105867342,0.03459903072208094,0.3215744819505953,0.3571418026977722,0.30230878050499527,0.3744470862245108,0.3566604208341868,0.12091130820381762
0.20798990559792974,0.030368210224334623,0.2798216560360002,0.3153691625156627,0.23835784476813138,0.2942593695111422,0.2847006914068155,0.068262594392501
0.1538435379455118,0.016125830167020225,0.21401001810286013,0.24322854885948428,0.16735091302249594,0.2207901510741908,0.22695700851492057,0.044406235839831804
0.2401014049197972,0.06769668976405488,0.3497803550488644,0.39849697212631024,0.353225748803796,0.4595127698217907,0.4289552756339249,0.1812306138144365
0.26267381070400314,0.07809033652539817,0.37391148897304766,0.4237769625105574,0.3789018654731413,0.4522112671914118,0.41670050956071325,0.16435349107940006
0.25571976549384356,0.07205387081013537,0.36035942288323025,0.40346711003482105,0.3384196971258021,0.3729145450792307,0.3565621366476637,0.1663396854276383
0.20680189570932708,0.037901744086557096,0.28740831626369145,0.3270732399166657,0.24069874898744348,0.2864191603824996,0.2702912393507528,0.08340056194908527
0.19118922674839917,0.03937911533325501,0.26968937840173685,0.30924714081356086,0.2343373871795424,0.28119768950580737,0.27066013127724675,0.08746163929169332
0.27522438310771913,0.07863598624687011,0.40506666758870646,0.44412153474111404,0.40233851684142996,0.46731289054204206,0.4406838267946307,0.20199641655326572
0.29155325824043227,0.08378088992844347,0.4103957865746187,0.4426234486536311,0.3819393189256137,0.4558557481830887,0.42582566410450773,0.2101445511382412
0.279307242620153,0.070410284189529,0.37615850924602423,0.41395469663496004,0.32825806443628547,0.40350743670751155,0.354860033656358,0.16897506472310708
0.21907725025364683,0.08175626212859426,0.2992243910525776,0.3343825628198487,0.24881649969586855,0.28686675780006987,0.28432432738470376,0.0698041365939472
0.20383205941771565,0.05488134499573913,0.27848247059668124,0.3094480800708549,0.24496748349927078,0.3001003426703067,0.24652869080953288,0.10983466126875593
0.27528430358901623,0.054855138751858504,0.38771118835520163,0.45389009897398175,0.42122355589511684,0.48879317710691955,0.4592258807783839,0.24873925766725868
0.2620868041070743,0.007676853906482811,0.3758254125833721,0.4301650130771916,0.4046237864896025,0.46937109122245146,0.43841349078270264,0.266978379823423
0.23359203773087506,-0.020880948904395465,0.31721144074635127,0.380597211322542,0.3638856818768211,0.41610910375558885,0.3709070111048845,0.23677763615998915
0.1678494403012813,-0.07380520491534533,0.24062138997689872,0.29390729382626757,0.2746667877120593,0.29842300854163617,0.28448983946769846,0.20171531463444803
0.09978024574498474,-0.15380559469986477,0.15724395300569094,0.2052688784611605,0.21676335151214837,0.21101468791979866,0.22515131505530642,0.1538189572982466
0.167968095017148,-0.13934237442623087,0.26342292561491737,0.33468735285842816,0.3936251198856453,0.4534111863272279,0.4328897664269087,0.3117816926289759
0.1796283944160525,-0.14773503029637153,0.29083283687600187,0.35948438252818865,0.3877728692034888,0.454891520556063,0.45377449476865034,0.3381846927136295
0.17414134899269512,-0.1550991092925154,0.26324938668134235,0.32750201355069797,0.38465774345272713,0.43466582742345433,0.4038438107873243,0.32881636646563894
0.1352410264444684,-0.14756168244742743,0.2274840539855137,0.267806214899846,0.3008427314324286,0.3497775390906328,0.3435001132346735,0.24738763441764972
0.09783460748502247,-0.16111172231657897,0.16264520276648137,0.21433395480990225,0.27784308720730605,0.28725798845457995,0.28610554303924063,0.23578751668493725
0.18677040052454308,-0.09371155484767978,0.3025134654948781,0.36668754932870484,0.4280102478208731,0.4911532353330318,0.46514510922909647,0.2997302328518193
0.20775486507359153,-0.06643843944147598,0.3309956717670343,0.38248859926444345,0.3931684787529328,0.46695449769815783,0.44520588183960574,0.2999291467470636
0.18954873361321214,-0.09183348248771099,0.29267728433220297,0.3475587424997548,0.36391672535730496,0.45019375508250115,0.39199934462816927,0.31493983634935097
0.12830838001621975,-0.10513690252689012,0.21334504581839747,0.2665025447715669,0.2809128231988044,0.3237811188687151,0.31695580868765866,0.2539323922319314
0.09858380031251196,-0.12123330529619739,0.17445769729814842,0.21491029848804435,0.26751033158095405,0.3094531960904542,0.2847436893650746,0.22572714118999054
0.18634862503117322,-0.09243444010818376,0.3080904605205542,0.36863686534707263,0.4064938536485878,0.4916491662470728,0.47673049264614986,0.31183307484004186
0.175064046498642,-0.10657648255877322,0.3061530495085028,0.3632373323235164,0.40137980753632474,0.45967332891591106,0.45038899002983923,0.3295566900531516
0.15906257238385424,-0.07345614355306301,0.2680404692044976,0.32303562077041126,0.3408290447672699,0.40812829332483147,0.38121832957846574,0.2684725435167429
0.11282490669272603,-0.10557915592041456,0.19175071366373864,0.24000619223813893,0.2404966148283046,0.3117378820757357,0.2907242796557099,0.20812910692667178
0.106491177865369,-0.12490763833868607,0.18235046256152457,0.23807246754272396,0.2848731837905605,0.35423320348186,0.3306010585540212,0.24306503432970084
0.17284662323969893,-0.08517412252686998,0.3140597495350631,0.3667731834151429,0.3878851322542622,0.46921004564023244,0.4579801011953336,0.3233205278599606
0.16404054915158206,-0.10243731030665694,0.288574767088912,0.3370606319717947,0.36084664713068526,0.4457935281993372,0.409569876702701,0.2749684609882952
0.12836949988359397,-0.09242871052628866,0.23944105528449516,0.2871136891676247,0.30202307456717425,0.36653074417092757,0.33556750026632043,0.2241683538109079
0.061211435147370624,-0.11368362139586734,0.14681603276613095,0.19611616954090258,0.2078650437206817,0.2552583519418894,0.2244312307126366,0.15243709548022527
0.10250051762834947,-0.11254911845330107,0.2197053879887287,0.26429495422718385,0.31340572313757326,0.3875836299803411,0.3630663957151974,0.22553745762283964
0.17378672114134752,-0.09249131630585387,0.30395960950583994,0.36406380934469074,0.39963927000964916,0.49912701176918794,0.46714742905147133,0.3093177670169065
0.16104274829494397,-0.0732212936955319,0.29497742482108535,0.33437507499557306,0.3704265240615243,0.45170970303003144,0.4411992476654091,0.27511983921520883
0.1375194654591131,-0.0976692576582911,0.22802974807389045,0.28418851026597686,0.31853293169091723,0.3671684911974945,0.36041048971331235,0.2893787440793054
0.07989407583788558,-0.12177204070761387,0.15779868254143048,0.18902132906215346,0.23883571439581713,0.2858048490406051,0.24382657322329868,0.21815641636187044
0.08546529735035749,-0.10848608112222635,0.17471417690631283,0.22514247438373916,0.2715180029259766,0.345075479808515,0.3213073218456598,0.23244104070970026
0.17084602857933567,-0.08847604258408467,0.2975216792521047,0.33999660528166564,0.4125122673924598,0.48613096517908355,0.4593915128401091,0.32310447968978806
0.1623493714120936,-0.07997700364458028,0.2716642213618026,0.3238472874672217,0.3754083019032753,0.43189472031680953,0.37620606004901724,0.3276957367576089
0.13993899765396386,-0.07970133632786411,0.23480808131595599,0.27101027379034787,0.2907985150537601,0.3524778053767168,0.3310623816865151,0.25860311168289807
0.07111795397914089,-0.11833800119883245,0.13697979686906206,0.17951821535990037,0.21276777462757412,0.22088908784846617,0.21721510871054656,0.1821109332997307
0.02569888798364113,-0.1433663523480363,0.07735321115796678,0.09747421849162985,0.1362185443693672,0.15750088176078003,0.12958493850947314,0.13607818913059244
0.12507027216156014,-0.11982569055541487,0.22372890477573382,0.25926865024505097,0.3240105558769535,0.37771407356320086,0.3748961811164309,0.23257871348040804
0.1335605348820576,-0.10831255099043503,0.2248547465038059,0.28288365581403174,0.3329821268013665,0.3707909712846764,0.35577307628959876,0.2784935253221718
0.1230595541559142,-0.1289554961030881,0.2179758118476922,0.2437150893260615,0.27905713415355565,0.33795253167079364,0.33278780159036825,0.22955779635553922
0.06099005027756571,-0.14760041432267196,0.12183698388262658,0.16649641102955665,0.220307036724952,0.24676626981473243,0.2153373412612774,0.18596124511437384
0.020706997183729203,-0.17509199091011776,0.06166581925319278,0.08563621095791837,0.15749920873797343,0.18323457342590407,0.15164974260345102,0.14999172770896316
0.11533155735953458,-0.13701209575388795,0.2138412841549306,0.24462475613886628,0.32567236731928867,0.40307679880913316,0.3810672725699308,0.2739570942137046
0.12923613631840866,-0.10721431542646834,0.23958184347094266,0.2725529710276474,0.31667063865952444,0.37896746742588716,0.34103512642814904,0.2330174205333767
0.13424614470573099,-0.11216298670369083,0.20279117580575304,0.24392945734238416,0.28947140051535036,0.33326710983410496,0.3171279538194113,0.2447369380323154
0.07403566308105736,-0.123770353904722,0.12790727898343351,0.14752541507183398,0.19246389885690754,0.22679310873847178,0.18694695834189823,0.20419888432552144
0.02142090599576167,-0.14132054172865516,0.04843054508291489,0.06554099099843066,0.13744045895921297,0.12189649437948892,0.1137122570862163,0.18687655869710665
0.10101122443098273,-0.09934633038057211,0.18969483852461247,0.22748562150591115,0.3159668007520645,0.34198440353426446,0.33761508669159823,0.287326399237737
0.14316144902946104,-0.059142296078693854,0.24735523038422397,0.277037543021732,0.3026177266246777,0.3714692819444977,0.3464376154634208,0.26151962965647824
0.12811024600141088,-0.06653082729133428,0.20994713699040796,0.24482152204372984,0.251549392888639,0.3078368878489437,0.2777596809914106,0.21486557006915064
0.07653284128071414,-0.04415460833201592,0.12888910035863593,0.14684525706372403,0.15851943230903554,0.20111662093011196,0.1770017638138987,0.1255649062944526
-0.0018820979545500355,-0.09039509538379714,0.03410150006916057,0.04712051677000598,0.07515351364549866,0.043477577036511554,0.048195168058342924,0.047618918304821164
0.05158316117504731,-0.07749442352825377,0.10121617291061881,0.1313209544325243,0.20010415793533812,0.20828254743062188,0.2140764170570097,0.14476156524054676
0.11614685992188468,-0.09301445939027658,0.17875001294807963,0.22837257546188056,0.2645965790786542,0.3129878617320342,0.306194764016016,0.24397674370533473
