0.1344494226357026,0.10176717416824475,0.11517645774320914,0.12245869706786754,0.027774740385584498,0.04010495870177089,0.07275772172426191,-0.15689075260938265
0.1734623325163201,0.13750500405886354,0.16143388031840641,0.1690567506156488,-3.412674167093586E-4,0.03483741397562201,0.07224112624782873,-0.19396149363539572
0.17960943418423433,0.14442691668505842,0.15756769754679492,0.1657774371173165,-0.003258992934649813,0.01938768418663861,0.05489184336166554,-0.21958596847475662
0.1781816435950239,0.1317507068318316,0.13701804051020208,0.14150321294467494,-0.005008300718377711,0.010826644097196407,0.041395515173378764,-0.2251983112295456
0.17632774643202678,0.12853409875037233,0.1351576856214341,0.1336496126249351,0.010551483012254042,0.013008508637453679,0.04028189095278816,-0.22186490770962236
0.17880528365613377,0.13762347264371932,0.1316162043619111,0.13116788107659938,0.011540166725367652,0.01628911786875433,0.02677654574550103,-0.2179311355367909
0.18551763948185748,0.1427979246336345,0.12785321168967775,0.12169398985980955,0.008392029959327384,0.011129882859848474,0.027686169814690447,-0.23055739979620707
0.18700464287604246,0.14633491669353108,0.13056786280701224,0.11898903539877145,0.008330554916989696,0.003009631440061202,0.019009631496364535,-0.23119095896274403
0.188909878313493,0.14143787560514454,0.1276860890488966,0.11336064646996609,0.008092279281654026,0.003126968759814786,0.019591869857598577,-0.22716993046663267
0.19624744265088,0.1512870972448757,0.1297492048179684,0.11081644461933514,0.007238611710812019,0.005305205633622704,0.022848821662329127,-0.20304633975394806
0.19482001954382475,0.15214063020162386,0.12942913433084244,0.10788605033973553,0.010399509230809916,0.0028786034227771657,0.026449847254501876,-0.22061360956226703
0.1971828149563165,0.15214808479255193,0.12455952500414012,0.11027441656227728,0.013793115477245713,-1.7050223863312195E-4,0.013357478973550642,-0.2176674473865486
0.19570910913919837,0.14714090807279986,0.1244487402454165,0.10648152913179718,0.005734432562191446,-0.0026026163895388993,0.015475591241433537,-0.2164423044580467
0.2069291391718791,0.15187594929725326,0.12414069370071387,0.10969574801697221,0.009253589829157938,-8.523638326839295E-4,0.01299582368777349,-0.22813327579978318
0.20872902040357263,0.16203145441983055,0.12834929163482553,0.10217312758849274,-1.9665039717501316E-4,4.692211576698892E-4,0.012427902244092898,-0.22219109236947077
0.21547848026220182,0.16673334406154933,0.12210280050405868,0.0984571022114986,-0.0025192447101446123,-5.113804779574582E-4,0.01130184396818178,-0.239658689431241
0.2084578059281934,0.1573467847541197,0.11835026762345936,0.09087749887236378,-0.004044937765072543,-0.0071949744109772685,0.010821981585516623,-0.23192601808147076
0.21005900515016326,0.15213591965915893,0.11669225228455087,0.09227025406678419,-0.010081178947863218,-0.00816838321095966,0.0028461918676403217,-0.24093640083449772
0.20944636045937315,0.15720520788085976,0.11540925243991022,0.09244294685759015,-0.008134662299627626,-0.0032692869572219854,0.01108252777772416,-0.21719220413486987
0.20775339705395712,0.15682968803371058,0.1112371857012931,0.08274116809352217,-0.004953917463275127,-0.010806911230424718,0.007580168235905982,-0.2252131496107828
0.2017523451396913,0.15465761848820914,0.10479696371460716,0.08211050153855792,-0.012626888799386851,-0.007661199058107952,-3.7890460797339694E-4,-0.2285701216826291
0.19888222182983054,0.14662867557209677,0.09963504947340723,0.07521052650669353,-0.011853056139325342,-0.007126451380992747,0.005118103851263359,-0.23775791767089455
0.19929775526149546,0.14527240539305375,0.09722832790716142,0.07505892020675005,-0.013921800273073551,-0.009696166984431868,0.007055047988326344,-0.22141584451454
0.19686308503539218,0.1459372771391643,0.09416210873319979,0.06904795611338682,-0.009897569577667227,-0.005698222100075504,0.0032151237554221093,-0.2236358510044676
0.19120712510279703,0.13999546557492568,0.08918351882473738,0.06567617161982087,-0.009665208717177536,-0.007700267596662974,0.002548019096518891,-0.23688178515641767
0.18558890035645412,0.13583165648937529,0.09052672468161019,0.06795749268866698,-0.015027475273674889,-0.013790776194749459,-0.010918621886050597,-0.22670291214940116
0.16746902842438308,0.11931913907572844,0.08532064781442195,0.06808174913820399,-0.007896667852247047,-0.007966354353562409,-0.019624978771905475,-0.21054981571805376
0.1490596812755484,0.10798368106249734,0.06558955804765851,0.05334046876165134,-1.9805483802916326E-4,-0.008111247924658269,-0.021650701637064833,-0.19355559916549916
0.1260386183877079,0.08584405241677652,0.04582789775759235,0.03605690762284064,-0.002465310466886139,-0.010584844800181141,-0.025438382481686166,-0.1918045065422488
0.10898871041739057,0.061019821869461865,0.026754757841297473,0.011677681741651959,0.004161414884729971,-0.01233772761189923,-0.02322562244474811,-0.19866261964365528
0.09051477474930392,0.03604393902515459,0.009647886381712692,0.0017029454968963552,-0.006355714689429723,-0.012238690867673223,-0.023976413526903176,-0.18899835599079018
0.07522312868516891,0.029525826111366883,0.001659095411316571,-0.011554292240564323,0.006011260052701384,-0.0021882953481901562,-0.015000662821683212,-0.1697994646005433
0.06932469298107219,0.012085835786386936,-0.008841503116228435,-0.023338321017680252,0.003154900163682709,-0.009313806957531848,-0.015952562741043834,-0.1728403964046763
0.053103719628192776,0.0039171227423171065,-0.020420208778454314,-0.026637910109616584,0.0030775099998324304,-0.007964817571372004,-0.024537029963273758,-0.15782369481589134
0.041663343944161255,-0.014933914085740092,-0.030282558626860887,-0.036193100878061546,0.009596157902331679,-0.007805810863635365,-0.013221421625453847,-0.16417001655186828
0.03682125808816741,-0.027702892135936286,-0.03867275759863367,-0.0403926136398936,0.010401154060569026,-0.0031956403625278966,7.494154297991606E-4,-0.16774220330677866
0.02452428518223927,-0.039635877003044495,-0.048903628113264916,-0.050806831823359544,0.0074352801572360174,6.071978365297549E-4,0.0028816598742238742,-0.18435741637417552
0.018427139191964103,-0.0572108946257879,-0.060407920602415316,-0.061538802828474716,8.788888655779627E-5,-5.808962978473542E-4,0.008405679573503804,-0.22083130825666117
0.012699350111836809,-0.062779640868927,-0.06468557549642091,-0.06270071381683924,-0.010316168755805467,-0.0058363533585815185,0.013602136077685009,-0.21702671393996953
0.01707318607357825,-0.05922086647299987,-0.06342536964639665,-0.06487487861137194,-0.01870815034604024,-0.0029393617447506866,0.010865359918428914,-0.230150332294584
0.033059264855663004,-0.02941039680965966,-0.04609113781924806,-0.054578076960176594,-0.02219698033142398,-0.0037831604154387683,0.019928266888035097,-0.22677693035731597
0.047294727212115,-0.022782711293175426,-0.038173732273276924,-0.04881090133475234,-0.030118727862113455,-0.0030788783240670247,0.01792603244998954,-0.2318790704242529
0.04768698049490381,-0.01725926763336919,-0.03599461832485209,-0.0459091765365251,-0.025896141377385197,-0.006761808638238355,0.01669913157643587,-0.24151284900092057
0.054063193036280766,-0.00869047655314191,-0.030830758440045385,-0.03848535738308109,-0.032622943748823637,-0.0010984849699180385,0.02022588118215116,-0.24377844807504595
0.07119985011366907,0.015297461727318938,-0.00818063218946911,-0.01171201911788347,-0.024250374758608476,0.007721415896766891,0.028650150239647405,-0.23126936212472493
0.08957799469433222,0.08203425683223445,0.0622373842239465,0.07270616267572523,-0.03403463388474244,0.001177270834003465,0.023802834731734796,-0.23638803563963295
0.038236916140094945,0.03840197076669801,0.03531241680890584,0.06136311411063712,-0.03746358831840089,-0.007979778574235414,-0.012522112139754496,-0.20983193349147009
-0.005023762420496234,-0.023658443669070158,-0.002478977871962001,0.02587958118134259,-0.04335113195119589,-0.014688192839102672,-0.020260938755473773,-0.1829109291777792
-0.026327962528293124,-0.045383292820256806,-0.018093270578081907,0.015540781785139245,-0.03443205059547314,-0.0012119878885889844,-0.00859473296456457,-0.16586660384965032
-0.03926878319992215,-0.05384079771971471,-0.0227977208107502,0.0036665207282168604,-0.032523221885126595,-0.0017990382556040256,-0.001989931431120355,-0.13893260933724902
-0.04074923809078512,-0.06554967866989024,-0.028721965376881504,0.003903798319919354,-0.024930416460930662,0.0032466114866077,-0.0016174165536034669,-0.14499559707982496
-0.04700865044735735,-0.06574031052516037,-0.02884293145750196,9.292557106410099E-4,-0.025511101991117342,0.0016630498677216259,0.001898624120292639,-0.16098290622780126
-0.048260432727372474,-0.07633149974877862,-0.027786319547716837,1.820258453483787E-4,-0.02817618192480108,9.817304923622502E-4,0.0015067946660870604,-0.14968732857127268
-0.04800170282155037,-0.06263693558747047,-0.02887301173471291,0.002229352699940964,-0.01124504033889375,0.009439285945335479,0.00787873985300475,-0.13413339638622196
-0.04986773392789012,-0.06552317897752671,-0.027223144685001487,1.0937145287726827E-5,-0.014181201582929534,0.00909235272469385,0.01485676666308812,-0.13761676619195126
-0.04791217208712911,-0.07238642656077826,-0.030466145175405558,-2.2408868088473444E-4,-0.010545820405867561,0.01069599851419195,0.017119211064486457,-0.1373069157520882
-0.051299421325280835,-0.09203530155135588,-0.05396670581500846,-0.03188987615350909,-0.0021088490498043745,0.011722821678926137,0.029057790555445967,-0.16304770003854088
-0.03593341147702695,-0.11493493730620942,-0.077149856858535,-0.06541917151963338,-0.014408628805380587,0.019003522817112806,0.053453822342733374,-0.20217168082528822
-0.021259204997284366,-0.10049011711879612,-0.07532133706781721,-0.06826616475205159,-0.012273032927607428,0.031308120587531,0.07156814218918899,-0.1994530606532389
-0.015052669151826223,-0.09508873739992837,-0.0688266591369577,-0.0640545736078768,-0.00865495111221615,0.03206880833148692,0.07496374269961438,-0.22148779851670197
-0.016550250999256323,-0.09599260833338784,-0.06519689830449647,-0.053277491298241296,-0.010671845665576166,0.03424402081372538,0.066858055868398,-0.22034217809680126
-0.007648459923714776,-0.09069616494369456,-0.060038088049575965,-0.05089852453795862,-0.008362159302016206,0.02560423937329952,0.06491063935665678,-0.2279340418926109
-0.011330064837871124,-0.0841826876525553,-0.05173689159886834,-0.04010405116144029,-0.007361525617788649,0.029147408182347134,0.06253975612528054,-0.23155296645200166
-0.002417166368917929,-0.06692718498222575,-0.042807436415946545,-0.03725067351058398,-0.006756973445421539,0.03130249195059644,0.06449154631400135,-0.2084933454983942
0.008757983098672066,-0.06091623449169101,-0.037453469289375124,-0.032033441794387274,-0.012227142939663241,0.03061961319917757,0.057509718962881054,-0.20582038343710035
0.009888652581198781,-0.05548654692103503,-0.03546756901124384,-0.028780079780740472,-0.00844452181357545,0.019454102661713803,0.052418199751271266,-0.20233959809240945
0.014893717671855506,-0.05483032446645098,-0.03107338127510775,-0.025393734370406585,-0.01202904902236248,0.0237528744948153,0.04888668646206632,-0.21251498672959965
0.021083610499885958,-0.04831585962345489,-0.023710972500328713,-0.018622813179494033,-0.008687687388366679,0.028087669456015346,0.056646593057208657,-0.2143488866289744
0.026032441585262543,-0.031714761357828095,-0.023810243313862205,-0.017245660097205275,-0.007024136561167518,0.025101140497279836,0.053715342851726675,-0.2040588545490344
0.026970956123486392,-0.027564382962945354,-0.018530151259899857,-0.011836545173284117,-0.003762484487808829,0.023305667885978803,0.060733711893276435,-0.1940912092999262
0.03148977650933366,-0.027253732714427072,-0.014843348356744524,-0.009746220936521452,-0.015148188961257202,0.01917298469103451,0.04805540332989896,-0.21128909017070943
0.03821728130188652,-0.01905231780799308,-0.0046647737838204405,-0.006062982160572285,-0.0030893137090379145,0.022192237036792194,0.05484911898958307,-0.20545662931108882
0.04318320565724363,-0.010032434084691025,-0.005180251230039064,-0.0010508829406012418,-0.0012318561587079638,0.03309376453817009,0.06450552573940359,-0.18660592107535567
0.042043828719513926,-0.011072998234324317,-0.0027184857179733284,3.097429433680125E-4,-0.0023214198769485085,0.022659964585342647,0.05435066582011756,-0.19643675888292672
0.046265740986574974,-0.010611519390477634,-0.0025095634948932013,0.0035607003597280026,-0.002905275816090552,0.027297043336926126,0.056494032935821024,-0.19723674886807857
0.046971998698187696,-0.013781922547444782,-0.001344774764071892,0.005268585688064271,7.892520600427478E-4,0.025907125871758672,0.05272102350740884,-0.20096106331771607
0.04746770368338372,-0.005749876890940918,0.0032058805600976956,0.010288149019331465,0.0077381273550058485,0.0368601412836977,0.05848485950780922,-0.19627063095054198
0.046799811396089,0.003175138479142657,2.2562942541695953E-4,0.004331702321705833,0.003909041412267594,0.030747732198637516,0.05495013696205633,-0.18118101169664405
0.044280201734516404,-0.0019951228191504517,-6.547241489043811E-4,0.006800275147200844,0.007463197781370221,0.02796290120408189,0.043778349948395134,-0.17724246097362767
0.04997567688216562,-0.005655593933250398,2.0871548502463623E-4,0.0058761622531555814,0.004369583924654163,0.02847871809405458,0.04889691196640953,-0.19267311641591375
0.056717589856524774,0.0018982433800520829,0.004569454612796062,0.010355147628728528,0.007850824656369737,0.030109624025944137,0.04934977196435,-0.18436972918642333
0.05060074940426994,-6.635316166752028E-4,0.003923817553285412,0.006845760466715434,0.011722580225076407,0.026196593206148647,0.03972650716060973,-0.17447479100634142
0.04790731661889297,-0.0016984991857095545,0.0012195142405407862,0.005042546701399464,0.009437142741292549,0.027441529036212085,0.037703881457883844,-0.1799379731022896
0.05234488894701772,-2.5285538440410703E-4,-0.0023496613584485784,0.003388044338300064,0.01103194701758746,0.027488331615847784,0.03852265066848815,-0.16489730488902496
0.051145260426394765,-6.422107287607711E-4,-0.0010325099035558055,0.003939415322201211,0.02258177604779616,0.033489407629413416,0.040475187303181705,-0.16656388107156156
0.045522151114244985,-0.007567424894449223,-0.005577644172783625,-0.005085434110218902,0.01767333735016754,0.029400675609581067,0.03795119127375573,-0.17007673603639012
0.04743916779378913,-0.009872682569681823,-0.009180464701822787,-0.006100369672339293,0.02410679919530889,0.022014875331921285,0.03965130719818561,-0.17324692497067098
0.04530959461786204,-0.01597636546572483,-0.013677363657772793,-0.011106430518263006,0.02070878622345365,0.024541699293712346,0.03962751247601958,-0.18996777974613852
0.04351643978932227,-0.012070368656824697,-0.011905117927499658,-0.0149951533349377,0.020096006287908016,0.02949824756775816,0.04337604493025529,-0.17406695960231422
0.03708885401657399,-0.01634740232262945,-0.02114933197578761,-0.02503030591553835,0.029107655499070857,0.02727420022478148,0.04421022379427823,-0.17364698888028202
0.041679646321216325,-0.02185375083215298,-0.029322618668138133,-0.03593128607034292,0.028521670097692218,0.01892365641633254,0.03466527004994104,-0.1734178517205379
0.04021979190355106,-0.03345807674848849,-0.03424206245136009,-0.03846479250914639,0.018888820584431303,0.01772930157248131,0.034076981188524126,-0.18229223483812346
0.03973772946331236,-0.03536404562980822,-0.03784543713425902,-0.036004416021794924,0.02336762564690359,0.023082424203521548,0.04147608918166895,-0.18323608961253474
0.03627218976682979,-0.03585937980818883,-0.03844226563692513,-0.04887047963264818,0.02184156086634784,0.01711371927753248,0.0399527446313492,-0.17360654335637665
0.03679802052661414,-0.02897021802070073,-0.040595432146443254,-0.049159183813245515,0.01720871229093356,0.014319438942003809,0.03087460482004205,-0.17046867310240876
0.032386956966702754,-0.04438389050651195,-0.05012535544253245,-0.060506834084607344,0.012168738275139507,0.013241673563691367,0.02785872487611572,-0.18161204453189847
0.0332259161937842,-0.05197784548602733,-0.059099331445740394,-0.06811151347444266,0.021172576431606163,0.015266945961737414,0.03227121510148041,-0.19021138412436095
0.029842743045093052,-0.054602611949199,-0.05871714477055344,-0.07930615087439985,0.010218602568063092,0.014965928954491522,0.03567619651020256,-0.18546834519871105
0.03580903034990714,-0.06387176335577442,-0.06547255855725233,-0.08315961683978441,0.009583139658546899,0.019923944145107324,0.026125566092806772,-0.20371930147538453
0.036058475451930916,-0.05962100459285459,-0.06122042435241409,-0.08062116109908887,0.013726806017030581,0.0074123738531405,0.02842376346025752,-0.22830336790739725
0.04015195427480549,-0.0655548196597075,-0.0635388194193737,-0.08132564167217109,0.01353974841113413,0.009014187329722314,0.01925727096393985,-0.209674688293146
0.03634662283583047,-0.05281766081538198,-0.06619626056560228,-0.08403539944821052,0.015049972086046453,0.014347184945384579,0.025814078778142745,-0.21247553442803077
0.028784520693972415,-0.056154152400509826,-0.06991806164318648,-0.08836722984603625,0.012782645185883516,0.012284581025118061,0.016879923483034288,-0.22267963331500837
0.029015858153137664,-0.06560346016591308,-0.07448564116203818,-0.0884900448378359,0.009233064898446906,0.005328734158755463,0.018579015962968064,-0.21860741087162947
0.030442353915699823,-0.06670982708184374,-0.07409898867616482,-0.0915755205672552,0.0021894299619991133,0.003389239118399414,0.016087265999718638,-0.22111067966521739
0.03123593807463355,-0.06554371179538383,-0.0683822060746992,-0.08795085720790355,0.011196524925646954,0.009227543788597652,0.010857803519508992,-0.21550668278562113
0.025383568370410996,-0.05961647179375538,-0.06991409108882789,-0.0925485325400566,0.007148323528180436,0.004733719589860577,0.01285674020807469,-0.2194669638352609
0.03350090555929401,-0.0629296125725995,-0.07280371362738677,-0.09477590058171338,0.006965562584995095,0.0018212262771191365,0.008788677349960755,-0.2224117805733276
0.03011316081064265,-0.06481872107002964,-0.07274634874284497,-0.09223852308254477,0.00658455056116041,0.0015853621360524958,0.011296170724141689,-0.2209817260579658
0.02980142456765559,-0.060671163612743065,-0.07307100322441301,-0.08593561801859666,0.008416908280916383,0.006642269845521341,0.024384652568048507,-0.21299435958651988
0.026735982218815683,-0.06777433199466502,-0.07091060540561372,-0.09251238956576557,0.0032748960212915677,0.007495968869359311,0.017467062434188257,-0.22248949657234204
0.0287714837088682,-0.06267979714684213,-0.07235739367465027,-0.08668796014056786,5.152594461820293E-4,0.0046874346404046875,0.016428955595350264,-0.20920620578551885
0.02466597902153442,-0.06346705673885357,-0.07192652159352157,-0.09197111105427429,0.006570262848689436,0.006197202716733303,0.01357917149011327,-0.22049650035593982
0.027854283077167866,-0.05941832180745272,-0.06807642592364066,-0.08629189038561746,0.007450560915114536,0.007616902855515801,0.021906142275107485,-0.21352747805562894
0.02801458940839887,-0.06965249843436097,-0.07129805198622946,-0.09135138339987738,0.0027179387866569015,0.008837562775463475,0.02646681877987761,-0.21130889915123469
0.026464360266805646,-0.06722567597951142,-0.07239656966636485,-0.08736373658386877,0.012961255011648815,0.006620228542930643,0.028362040351695202,-0.23269514555040638
0.021997857914531557,-0.07142126353085361,-0.07399080279511883,-0.08672701492377585,0.002284627545026791,0.005325181764321643,0.02097820937363935,-0.21778970214130458
0.02899401288330846,-0.07070736109257546,-0.06916500560119825,-0.08340078958022967,0.014088889914714315,0.014834537182660047,0.02250031175905756,-0.21156405410074453
0.031197279066129867,-0.06509701847361128,-0.06833426953603199,-0.08375733251764335,0.003338793605155868,0.009574019774122401,0.02612488356305694,-0.2121195778425828
0.024004638467807718,-0.07082031804367286,-0.06799379042575603,-0.07814716162045654,0.004289428414605361,0.010542893013478216,0.02616310969595204,-0.22025826459364845
0.027122135425298163,-0.07853729824876592,-0.07077467956378612,-0.08381686570920621,0.005702530974857501,0.007456470152349298,0.027771432155659925,-0.21316091487395064
0.025850644922464153,-0.07562450388402187,-0.07180166818647259,-0.08415076857875052,0.011158824211436684,0.014599892027957456,0.030149809201359228,-0.20327824031452055
0.02113195735625293,-0.07534657427369677,-0.07462122212026483,-0.08699499033884417,0.006737172288768926,0.020507638374892407,0.029627459056321342,-0.21514461274984442
0.021112727073261454,-0.08020411982044383,-0.07412071732329453,-0.08997620732062245,0.0033809036799602077,0.01683709181878483,0.032346352523152336,-0.21947133625166
0.023963360084501648,-0.08469395247452283,-0.07590416976453186,-0.0880353957122336,0.004924350491716942,0.01597022483193586,0.029147746101277856,-0.20952717335654228
0.023991569907153662,-0.07981507134523706,-0.06874748099100852,-0.0856364600767623,0.013787963153000744,0.019468933357853636,0.04282648912859707,-0.2126341377584327
0.019937139206544205,-0.07540389608991047,-0.07036555107335787,-0.08247089325607616,0.005646281587343479,0.025161646306634863,0.03103497552432593,-0.2147144099729045
0.02486959517707559,-0.07624118715659214,-0.06638730730097188,-0.08400207559214247,0.010888915670851047,0.020825483781218325,0.04164918469895855,-0.2250798750790318
0.026375770740364655,-0.07534327100414888,-0.06794998773650371,-0.08023022769334243,0.0072436690119308585,0.02158972463076897,0.04898182985331336,-0.21819348547176015
0.030346520973756622,-0.06720032859509283,-0.06410790081268479,-0.08136955512571663,0.009078827237850072,0.027500207388684503,0.042741031037358775,-0.207071910377944
0.031225914312868554,-0.0649234229525747,-0.06690591782509024,-0.08095274979201175,0.01161469482683724,0.018515362467812317,0.049226839082374275,-0.22249662473243584
0.03210206893133785,-0.06666990054506233,-0.06265346841683564,-0.07814530805794341,0.003687862027655779,0.02038227495132265,0.04262970295784796,-0.21436775402409217
0.03294940061473042,-0.05563493718965873,-0.05951965943288284,-0.07711315029696085,0.008062510888933417,0.027104509534805987,0.05075492904162957,-0.22280894833740725
0.03647935599208434,-0.04753523485047556,-0.05409145449046284,-0.07074744798658561,0.01489491668951461,0.027681231283324198,0.055563982000864355,-0.21251769202617746
0.044819313843772184,-0.052339331613066066,-0.0530703036241902,-0.06867256099174479,0.008983720820047832,0.030197594696038835,0.05628499905810034,-0.21392712253722698
0.04013027941162526,-0.050338512294392554,-0.05260587489558461,-0.06653491759266399,0.008301953183744068,0.028933126767262226,0.04843696904302806,-0.22538710511984186
0.03820845905087607,-0.04333905855308631,-0.047261973467382125,-0.06269037148937988,0.009828530382747752,0.03238698747760186,0.05797435910268763,-0.22462265207502727
0.04504761222980249,-0.033939730532464095,-0.04438071635311394,-0.05831596931555397,0.013443633266809307,0.027851380357528165,0.05710637026284038,-0.21008248961883408
0.03664394056878764,-0.04498635425722951,-0.046372831201022584,-0.05557343394272557,0.01253876282847882,0.03195293864060848,0.0516363868590453,-0.21289463551341165
0.04287705796555541,-0.04448015024430624,-0.05001037006977736,-0.06046713204367941,0.01136601473854972,0.028096432540582368,0.05843313449668928,-0.21934851255647939
0.04229590624980763,-0.044993846419176295,-0.0474436319440858,-0.06219866589628299,0.016325768896342435,0.03744407626047686,0.0538207220479447,-0.2192770369939369
0.04009469933741382,-0.044478410252788106,-0.04636708174653825,-0.0609973702633794,0.017551426666429594,0.039350873230604176,0.04950953613134264,-0.2021792347205278
0.0398743353305642,-0.04562708595085151,-0.052281738486697815,-0.06338220910118982,0.016222915286722983,0.03253487027287495,0.05828649852450647,-0.21116531972183225
0.037352887411525516,-0.048008019714853294,-0.04898781010677884,-0.06299024109763449,0.0223056318144494,0.03461856239906261,0.05806889182776526,-0.1998611398170367
0.03504749332772623,-0.04432581594119579,-0.053113098678117726,-0.0641746277240429,0.020298876503412718,0.032264240051430665,0.05731247284489612,-0.19518124130093603
0.029532397118806158,-0.05748272839775046,-0.05533293385220936,-0.06314606327790033,0.021735387005786998,0.03220034919610017,0.057156581460519884,-0.19124083502923356
0.030378099864371334,-0.05579883394713936,-0.05498470626902078,-0.0669329614376325,0.01994171014844368,0.02687974178233503,0.050606506879821614,-0.19616004000260698
0.024507535421102785,-0.05799556487297398,-0.05816435290628292,-0.06835645595955465,0.021394600223422315,0.030970226498635577,0.055102212739590074,-0.19768757017457017
0.026255471207336078,-0.05781818307245289,-0.061050936008574995,-0.07382344990797039,0.02079763928316865,0.028924587938108457,0.04676987141682498,-0.18284079827837812
0.021045725592468797,-0.06504866006997512,-0.06480915723394591,-0.0784434797274605,0.023505021752260654,0.02458231101116698,0.04467798179998771,-0.1918387328344257
0.023244246350911383,-0.06313579618358382,-0.06316263992787131,-0.07574297514667602,0.022607725882054987,0.025517431762415756,0.05364386139275377,-0.19521397843965943
0.027674189363231166,-0.05754425705066638,-0.06486288018970152,-0.07682289650733905,0.014310876597542672,0.023111773696945257,0.03865380335885979,-0.18916616286649643
0.02945546361421759,-0.06226568882393405,-0.06430937191078184,-0.08215876207864793,0.014702637765635709,0.02618620462248031,0.0425049692598908,-0.17634400387828622
0.028127643338312906,-0.06447954659278794,-0.06447069577272152,-0.08073957810749263,0.01676406930146216,0.025330367285690956,0.03667676270200183,-0.18688079498249197
0.026465847777186233,-0.05735298927050837,-0.061999578772985335,-0.07911410067773549,0.01703040121701676,0.022054640604593695,0.0380901242308756,-0.17300652751275164
0.03025386354514033,-0.04870340607453732,-0.06001032676808368,-0.08166670253551758,0.023055944921890906,0.021637771691465777,0.03228529883951401,-0.19604216402414032
0.03341277863678638,-0.05911997067767298,-0.06021165244730234,-0.07436229152837,0.018249574017551513,0.021121780190744573,0.03251156368077349,-0.17173147858104867
0.02780708358406078,-0.056142364734600124,-0.05940681579483753,-0.07539098780565298,0.022891891754209057,0.026165116159086968,0.03196628902411719,-0.1920315440318551
0.02755875257715493,-0.05102944066867146,-0.058510453446161015,-0.07401142885883663,0.02607277441741806,0.02321407602185175,0.023568838058962913,-0.19354023393959233
0.02625360222413322,-0.05508867506133557,-0.06095504421424498,-0.08138680442336456,0.02669078229910311,0.020939490635253903,0.024944231077994393,-0.17964857426815334
0.02905811236982249,-0.05608792778946123,-0.06204120817961353,-0.08145322355117587,0.02078109843194788,0.01622906623809505,0.020438922224312275,-0.19106591866471687
0.02292119154309746,-0.05741243537294361,-0.06691910073595843,-0.07866831684583918,0.026001868850401,0.019280073249441268,0.017960463607820498,-0.1895641867780879
0.023707557766233383,-0.05615416514145319,-0.06549800532492632,-0.08850510597002485,0.026051145061529786,0.01477035226280471,0.021311750530748016,-0.1637440141304448
0.020741681027999035,-0.06477545478281549,-0.06997598941137717,-0.08730995078164057,0.02313973289247688,0.012758625091852696,0.014980555316482925,-0.18148248452720034
0.021950407380943653,-0.05958827209287194,-0.06865855628788364,-0.08781107317651841,0.024757721533308668,0.011186710269010774,0.011262763756989223,-0.18037680426000613
0.018851334476867505,-0.06602812143446753,-0.06609160685723298,-0.08832393877146952,0.028270879281466012,0.009733695578417828,0.013206549910659155,-0.19439000448342286
0.01656515178269509,-0.0623316858871231,-0.06554786665202585,-0.08243847136986182,0.026087514493741158,0.010439563680507878,0.016732366711852943,-0.17545870412698414
0.01985682478128736,-0.0656683603162745,-0.06596668779184665,-0.07953501688822895,0.03356963243757967,0.017826535808795074,0.006180113021755445,-0.18733882940440214
0.0187257547425923,-0.06656192549115758,-0.06456264567755393,-0.07698614947007378,0.025185504177551613,0.00947253491621142,0.017138474576164853,-0.1779147227607561
0.016318576856683944,-0.06717129586766662,-0.06395847522364101,-0.07774638698527854,0.027267139431281694,0.01295822597139663,0.014560347032070937,-0.19860016173304706
0.01958247174968457,-0.06060195017484126,-0.06131661619019696,-0.07127853627277406,0.03183340899274532,0.022478406582479203,0.019997793967739385,-0.1822683887661367
0.007332272619769907,-0.06278185175873388,-0.061782448818953825,-0.07400115227127907,0.03427527282095461,0.017843702657656408,0.012340808861689178,-0.1736830371311883
0.009185136534515912,-0.07276489837210302,-0.06598009599557116,-0.07843546891135825,0.03074130168932764,0.01857578267374992,0.014686789005407203,-0.17347098470418099
0.011521411261659863,-0.07324337630518317,-0.0700372097357153,-0.08142420001160296,0.03135147854337537,0.020014424563078725,0.01818010437810736,-0.18406753113192142
0.017951786007978414,-0.0771237908678558,-0.06327789131363512,-0.0773870137956538,0.027553527174799974,0.02261295918028353,0.02735175842664858,-0.16679444442579422
0.022154447501338062,-0.07514592510172317,-0.06364412567131271,-0.07699453427970869,0.03367723648848484,0.02142300180246551,0.029749902232697124,-0.17985096183658708
0.02488470243009713,-0.07592175319513775,-0.06079702792463497,-0.07008799055298459,0.03691966714555584,0.0234963488820123,0.030996188145929346,-0.17780256134648836
0.02973972368476991,-0.07264742024095348,-0.055198761011746894,-0.06144130159300471,0.03428067731925828,0.02563065839780534,0.037029420626768936,-0.17470229968523648
0.029806064971267872,-0.06168909008958669,-0.05013569810152694,-0.05793421856383631,0.03553132814072129,0.028019933874571374,0.037992518267506305,-0.17601512514861692
0.026099984200126058,-0.06108697409883999,-0.04669704903316616,-0.05661362161074335,0.036262840107951555,0.028268473385088883,0.036471597115821125,-0.16883395905769755
0.027921934174675485,-0.06651462436402031,-0.046139157574129286,-0.05667217023828834,0.03743997011024508,0.02926445892824553,0.03814273727576082,-0.181155652501307
0.02678529970069554,-0.06079534244117844,-0.04709191082956003,-0.05390620089750716,0.0378379018003739,0.02470377574137218,0.037700723630048956,-0.17741153429591022
0.021547889885912483,-0.06343061752391466,-0.047122229681910904,-0.05278301181086845,0.03171953833139724,0.029571476744835873,0.04579608092282284,-0.1751674904491556
0.02129294581220825,-0.06729724455438602,-0.04747464626681453,-0.05261960913852856,0.030331018283218422,0.030007997743760693,0.0449748564774127,-0.17891176039571685
0.027985866883636527,-0.0689981267466354,-0.050657727977681366,-0.054582192552420125,0.027764498289904016,0.025614770109642606,0.04313612506550475,-0.18246739137722823
0.02526177608082992,-0.0637544712674599,-0.04979959198029331,-0.05569853968312617,0.026017646170631133,0.027619135659731144,0.05043042229745024,-0.178852905548703
0.029046678391975354,-0.06116248941629942,-0.046351634458109164,-0.05032285738142845,0.025482706993232723,0.028863319821684708,0.048244955831082834,-0.18808463404467587
0.02552942986253072,-0.06550984553970526,-0.048364551719935055,-0.05251715231286821,0.023137312935616036,0.025780603211022973,0.037020705409552705,-0.1877224136941453
0.02274161906815129,-0.05824810978035143,-0.04644283550667505,-0.05308967941950927,0.024701251963541986,0.026924938174896156,0.039361477023385084,-0.1648522866117688
0.02073787891377605,-0.05812107641766848,-0.045868765846771194,-0.052313657724159426,0.022960061003998507,0.024884181768422456,0.04019732822252784,-0.18214242812665377
0.01903523303784481,-0.06423610708587653,-0.050487994319385,-0.05235611928162717,0.02673799091387038,0.027318391599577434,0.04038170453719826,-0.1812930768241885
0.016652155805351305,-0.06632501189748319,-0.054209016714787735,-0.05510357951276162,0.024607191461335328,0.027563226205463615,0.035449855420967784,-0.18821419055577038
0.01424159956074013,-0.06786935916154754,-0.05157631870210483,-0.058849631855115415,0.02046084655703292,0.02874188316500489,0.04107961131359755,-0.18479184468932164
0.01620331495677875,-0.07399842477572728,-0.06151798081876705,-0.06869333960635872,0.02318967368690343,0.025276602232586997,0.03744876322448562,-0.1749971123127332
0.015002906367500107,-0.0725423295802207,-0.06523924149436103,-0.07358164535979786,0.011140682645864769,0.0231120741182981,0.047302474490716055,-0.1736251599117516
0.015364905720661312,-0.0763433347962445,-0.06479273136559557,-0.06930147368343642,0.009510280514080172,0.019149690374056023,0.03959451931150533,-0.18097861344521513
0.01925558942838585,-0.07283795192670102,-0.06306723748279369,-0.06772046109402437,0.015467903970777866,0.021278717827067896,0.0336370395917763,-0.15746069686298017
0.022281070712238008,-0.0764451666606522,-0.06021666198542544,-0.06988321200850608,0.012794423392772645,0.01604957789614606,0.03435998313793185,-0.1533617144959893
0.017908759743754686,-0.08331255455530306,-0.06537079878209875,-0.07172584352263452,0.011888885552752509,0.019840016480463307,0.031628675379156694,-0.15950414497002818
0.01736615984825884,-0.07752101554616048,-0.06654945026548226,-0.0679381202723426,0.005639081805364693,0.017388600537553894,0.02990642332560659,-0.16038478290247865
0.016740111861008003,-0.07464712999054898,-0.06733558400819897,-0.07510099776714695,0.007179787670741374,0.01657137682930261,0.025917550323947547,-0.16140683973338896
0.009555465665965839,-0.0724987206061196,-0.06599662495088766,-0.07547377451643277,0.008377231881070382,0.01374157848004943,0.02673419317022274,-0.17743798520440546
0.010416654277987525,-0.08228727203718006,-0.07046068278038344,-0.07833032841154114,0.011470866132076544,0.014073070471622706,0.02687262919283688,-0.19427481895572335
0.0122818998999724,-0.07586122639795517,-0.06930255611174566,-0.07755132535475899,0.010939586691048607,0.0179366788162541,0.03449559515784154,-0.19235890318555235
0.012298751356115387,-0.07432472763308275,-0.0700692378312742,-0.07713357178807576,0.004574120336271056,0.015267217970209291,0.024323899542377604,-0.1831976267065956
0.012480876283407983,-0.07944413768839044,-0.07111365029397655,-0.08089439812726025,0.014683945637659113,0.010982268808235158,0.034070400431727085,-0.1901839787949852
0.010407155624854206,-0.08591325470486559,-0.07386265246426973,-0.0836678271033124,0.01095454762478896,0.017022747014592398,0.025325442879671204,-0.1863766983755045
0.007480883257315231,-0.08025640913960871,-0.07413453275001869,-0.0827029798984619,0.011967673039871434,0.015561201101384182,0.02846153123625792,-0.19413794102151968
0.006190998682506469,-0.07693136759617013,-0.07904969542759706,-0.09134110833353382,0.011480390030855261,0.010179230852114805,0.026716378141432028,-0.22483107234811756
0.003745397467840733,-0.08922309440643691,-0.0862323410353788,-0.09741759341771052,0.006573498987014805,0.009970564671206269,0.03140084908767347,-0.25125965668764955
-0.003398064628718173,-0.09215680552301848,-0.08473243794957178,-0.1002917814405029,0.003921314173529173,0.01094857167102628,0.02822832658635049,-0.26129374602927613
-0.0022847865403359097,-0.0875321018727896,-0.08686127847827727,-0.09328297935076489,0.006712863324156106,0.00908108196348623,0.02869513129755917,-0.2756505196747151
5.299670507400256E-4,-0.09583924349408313,-0.08626835391565249,-0.1005320493637624,-9.189716126538135E-4,0.009039501451131762,0.031211356923633887,-0.266951900035097
0.002504526705849452,-0.09957254756753631,-0.08489941857653656,-0.09442039532671591,0.004514254782687378,0.01018030936702044,0.024117000212441318,-0.28360674377286266
0.0021812008640253494,-0.08952414545496772,-0.08353169267267198,-0.09349546592646546,0.0033621803951827843,0.01187035070981719,0.025670171103951544,-0.263456129831796
9.789807770795242E-4,-0.08732780306457337,-0.08086652405139132,-0.0939303899005863,-0.001682359927678206,0.006878590913793219,0.025326769242768967,-0.2532856532022653
-0.0017487497708707726,-0.0895963116128188,-0.0833911058534798,-0.0911977099287236,-0.003127831178789478,0.00794387536890487,0.020082489576489497,-0.23837184306228437
0.006428974396177871,-0.08898370746152183,-0.07713346172257117,-0.09192602600887476,7.749975605994884E-4,0.008447701077937584,0.025533119855116266,-0.24223952078261543
0.002618200546140672,-0.081960266067715,-0.07812740094593765,-0.09203057299761169,0.0030512001646425717,0.007842935634289496,0.021248975593398306,-0.22246799254953387
0.0028885435996526968,-0.0829573202696961,-0.08215606873761522,-0.09572854498790498,-0.005306114909528795,0.0075534663164028215,0.03241258535974488,-0.1987778190776342
1.5598748304200956E-4,-0.08614192543658102,-0.08368169762328478,-0.08828666022569658,-0.002526855355946804,0.007111555396758484,0.020161323744151034,-0.20645103827838254
0.0015094872325808824,-0.08843126896586248,-0.08072032765480067,-0.09242639098377546,0.00691256835355059,0.016411524791725238,0.027084435370858233,-0.19080521267078332
0.004753709796110868,-0.08970416813545447,-0.08181161596329747,-0.09279566177315995,-0.003497052765132186,0.00811649745204286,0.02772910554841868,-0.16839160153886518
0.0028001540917215826,-0.08522378060755777,-0.07842377658067712,-0.08975327862822367,-0.0020927838491087342,0.012218712757106108,0.018735990408857345,-0.16826416849212925
-0.005296334251646533,-0.08991152954724352,-0.08003769786631035,-0.08755717863032483,0.0034706040327236393,0.008727003578288721,0.016822372587581676,-0.17732214471842592
-0.0034527739312382208,-0.08221816679417744,-0.07084804621019643,-0.07909692126768389,-0.002240637823013026,0.009694491873657918,0.011026495740762325,-0.1687823183806761
-0.00852318876309259,-0.07877905564364471,-0.07221901605901285,-0.07568946517102562,0.013091681251120037,0.006693213718253409,0.010905540765733343,-0.16621371574717014
-0.017649106950185487,-0.07895919121647295,-0.07902161446329567,-0.0839645372933457,0.005095367827070196,0.0045955789046231285,0.010231788573556649,-0.16888593693216764
-0.024788195619288918,-0.0959761298403187,-0.0887125035519621,-0.09401280589799928,0.0034936088603436445,-0.0028470188488956836,0.008805873881620442,-0.19011011371051592
-0.026354702597913785,-0.09729773406046548,-0.09407360885357781,-0.09315616737980333,0.004996987956479193,0.001067063336219853,0.00458748967144514,-0.20483790673482857
-0.03367472821044219,-0.09709338483864116,-0.09523103620543676,-0.09904696139383035,0.007299616466568301,0.005610776097861031,0.014232442865422709,-0.19980041493068668
-0.02939476472946318,-0.09769697298394286,-0.09934055265982589,-0.1057256756352291,0.002510559396546354,0.007024550210077036,0.013537697520603069,-0.21545191925731366
-0.03107055675633271,-0.10288601433816139,-0.0990224345578156,-0.09918255038596585,0.007178848023232595,0.004826989840703029,0.015155125281615417,-0.21144772540015114
-0.03238307416953236,-0.10066581114148065,-0.09386066034170994,-0.09574772664507016,0.004630526115741534,0.006468123175168918,0.015643274268056735,-0.2154453335858642
-0.03133728176893669,-0.08730697580850097,-0.09306296563192788,-0.09348848746841291,0.0019025307515505869,0.010983434188143106,0.007463811955533021,-0.20277064971456116
-0.030121478378245314,-0.09770524639298674,-0.094247199674586,-0.0952358464238125,-7.682702642372538E-4,0.009021101721073396,0.018330254045611945,-0.2321547934610333
-0.03562376137941431,-0.09856115109371534,-0.09659923388173954,-0.09634991336946833,0.0011335430439499243,0.00489848687669766,0.014969316934726088,-0.21864883749369493
-0.037056506796782296,-0.11455714809398312,-0.10074197136944125,-0.10942091854461876,0.003602444001977149,0.010021551711191262,0.023768201657740306,-0.2071318905210928
-0.030824070719611133,-0.10683422335556593,-0.09901080882920293,-0.10494603685158745,0.004542075235169139,0.011224765290176497,0.02596919074425306,-0.2083766614107128
-0.031010410323691187,-0.09886020933067008,-0.09082891876901832,-0.09584750748282386,0.0027561281339423442,0.008583078950495867,0.02832049781596106,-0.2030301410727627
-0.02815755805422284,-0.09390950585090818,-0.09305923425030939,-0.09274092465994906,-0.0019429484192551522,0.0109711338988994,0.022350321580279275,-0.20275832426252674
-0.0324149522746166,-0.1016051143083354,-0.08858138528983402,-0.09660561119898524,-0.0015325087570320559,0.014403907951797886,0.024270201084645997,-0.2037388361050629
-0.03311338762145579,-0.10073823946475378,-0.09007281859633405,-0.09442901766678559,-0.0018515554746975293,0.01900191127317942,0.0301403155575402,-0.20480591353478023
-0.033567871657155225,-0.09736993122284007,-0.08846899643967271,-0.09139529275433686,-0.002067878672584586,0.016175040250530192,0.029965104791684898,-0.21222602176865638
-0.027712789349632,-0.09461719387286054,-0.0833250767048335,-0.08541115647999013,-0.0017399952084007585,0.011830493987873298,0.025676507866399554,-0.208379478921492
-0.026697710876772106,-0.09507332312118304,-0.08037213719326136,-0.07940565717865822,-0.003826755357610122,0.012784278186294674,0.02440407177577898,-0.20682122543212583
-0.031047593949549326,-0.09097133661015577,-0.07848777226269836,-0.07930502816396702,4.894662044515936E-4,0.018098315174808633,0.03262596866509526,-0.20409852239090437
-0.03205574428369112,-0.0998504938055761,-0.08733261810368789,-0.08594592192021464,0.0035937419940561977,0.010759648702088419,0.03338773172604417,-0.21303554572321276
-0.03163358045677395,-0.10461423419519283,-0.09078372676255295,-0.08821877873907695,9.743601221973869E-4,0.014489042950080102,0.03244698491623473,-0.2310559402909078
-0.03701960987881462,-0.10308462281351674,-0.08845367721318372,-0.09136816410188879,3.593536836416305E-5,0.016549040075777535,0.03361664420450331,-0.23748090318251908
-0.032149088178173864,-0.10021604912228674,-0.08795618473029354,-0.0848800008412524,0.008837842150833438,0.019659053004952323,0.04214183743575783,-0.20583140749823836
-0.022297838512515357,-0.08749784717062337,-0.07584991155742117,-0.07406447274364364,-0.001510600739940456,0.015913839998346703,0.03309369406251306,-0.2138636235285552
-0.034455351792465574,-0.0876582041634627,-0.07147595731735158,-0.0689763099090216,-0.0013912334837100793,0.016030365624146586,0.03387891191248232,-0.2235446722928026
-0.037841911028951174,-0.10394168938804407,-0.08681037830233299,-0.08320428577045609,-0.006172289509173845,0.015015686915589885,0.03898806556172812,-0.2097419276738719
-0.04237982230752813,-0.10602217932300569,-0.09029653174367587,-0.08723945441748711,0.00884592954546267,0.018403484031075692,0.03924262470951568,-0.20346034869133606
-0.034849643913119,-0.1106797397786637,-0.09496210713196733,-0.09769839746087765,-0.0028503701252847796,0.02184872654043737,0.04703073466645903,-0.2165402847346714
-0.03478504829254833,-0.10485934916972922,-0.09394490569594016,-0.09038823694794662,0.004447942659024396,0.01119070882881475,0.04333095381909687,-0.2012331974089592
-0.03369755785566728,-0.10519228252103456,-0.08541935505329697,-0.08545945676701797,-4.6963986129904656E-4,0.01998051868773404,0.03991253627269518,-0.20199962114799996
-0.02479818224279736,-0.09955755396945636,-0.07966257613884313,-0.07964431137917385,-2.183332653549851E-4,0.022249259852452904,0.03511746927133202,-0.18506811853145105
-0.025868700229288204,-0.09890646972206092,-0.08258673594305246,-0.08613478599908067,-0.0018513631974140497,0.014529523907794164,0.03732062166500633,-0.17680027953614638
-0.026924384218929915,-0.10322574700742737,-0.08859285254579814,-0.09019446793054964,-0.008633908533477196,0.014201398287918722,0.041034668684580076,-0.1802848309433579
-0.026100437617809703,-0.10303409644240488,-0.08676430868027786,-0.09500710754927838,-0.020318673973435595,0.015252404206776787,0.04648201865901862,-0.20599737458205367
-0.02586070292259295,-0.08953499509998851,-0.08292674905200385,-0.09029410419849232,-0.013957308189538326,0.014295441157387411,0.04927065054040639,-0.19138813321818524
-0.01857883793131779,-0.08720176796964378,-0.08421484795909495,-0.08839222897127005,-0.019621046068292836,0.015427441906809232,0.03851776628717238,-0.19584817138990496
-0.014579354035860822,-0.08351969249185708,-0.07331738787180014,-0.07890031213467667,-0.011378391285055611,0.010382546950389052,0.039570620625421944,-0.20343186940259783
-0.007951686231416956,-0.07431763806971815,-0.06493064776042332,-0.07098624124498244,-0.0065705515299884,0.015100818438452603,0.038984643148644776,-0.1944487611142911
-0.008380365067706258,-0.07163575295848029,-0.06918719882595473,-0.07370207597091111,-0.0038820399740060302,0.022006972945695723,0.04296709091283398,-0.18257907477955965
-0.017822071545170588,-0.09615273202338234,-0.08299044740176698,-0.08906546937555793,-0.011594005053599699,0.0158611625789891,0.04539014798973236,-0.19006215745939534
-0.021764495188788386,-0.09251257112905908,-0.0805997912969597,-0.08481107421026363,-0.010283138528640287,0.017444250811796097,0.03862694555730462,-0.18247108667080872
-0.0037882586488204566,-0.07904382473720928,-0.067303176644843,-0.07100966730245847,-0.004184116511300684,0.020164597588665758,0.047625281057661166,-0.16299343702278798
-0.0031914250767759622,-0.058720731613204964,-0.05599227677403106,-0.05439974927750516,-0.0022532549047093895,0.01852446579287315,0.040385683798506496,-0.1742200431749933
-0.004622935915302709,-0.05517254469468946,-0.04710081610885957,-0.045324686073655314,0.0022887552082974114,0.018059743527820738,0.02401457178076081,-0.16307376333790025
-0.009745595348374648,-0.05703632893581942,-0.04863319802123067,-0.04634282253274541,0.0036008813964571447,0.011351654157213105,0.02488630606376205,-0.17330876061914194
-0.016199346651095903,-0.07023195613436528,-0.0522459571816451,-0.052356717810205414,0.0084081305124966,0.019283664847820764,0.028498529741414935,-0.13866540891327783
-0.02298960899872869,-0.069374150509424,-0.058089224056833144,-0.0542026862768337,0.010863878865209052,0.018239393097479854,0.02553625616047712,-0.17279682955393247
-0.022223629297998163,-0.08374743717213808,-0.06088976937154689,-0.05573816438337738,0.009769182174663521,0.01608945838638709,0.035749049090215944,-0.19247645487737333
0.010463870462438215,-0.04257459570319053,-0.01467626217795408,-0.002055070018775489,-0.024956206023737746,0.015596923794132581,0.06205097225648588,-0.24117798946101318
0.002820631731958987,-0.06634815227201109,-0.044431507390200554,-0.03340772457075975,-0.04841251416309708,-9.561484326313472E-4,0.045343720463515924,-0.2745863079392627
-0.016625789383167687,-0.10117101098195672,-0.08245048282143545,-0.07501558543780155,-0.05215485390551824,-0.004160618446531103,0.03680968102358141,-0.2643022155548646
-0.04153468619380394,-0.12589157652054775,-0.09747272320695458,-0.09436792901188959,-0.05149472454298177,-0.006003189881697333,0.03063847170002474,-0.2790474033587034
-0.037659717739940986,-0.13615849079506664,-0.10298959997185184,-0.09769222072723313,-0.04199544874845643,-0.008079417607649252,0.018801651495984097,-0.2633188462790481
-0.037447715495172326,-0.12241971235428037,-0.0988147946840678,-0.09872037737513197,-0.03737184238906561,-0.010919998688757725,0.01408487930173698,-0.26714572577274487
-0.029875332375423464,-0.1272503845491664,-0.09996694149113637,-0.1007812277564175,-0.03306325416684796,-0.012371595979940388,0.008622663507994944,-0.26550979047630113
-0.03784683537066922,-0.12700076114337347,-0.0980893237546549,-0.1029793368858081,-0.035895010429387746,-0.012162214836124717,0.01015423646077129,-0.26953103229789394
-0.03616148382320825,-0.11878248296599297,-0.09589920377244512,-0.09529577951865519,-0.032116397094146265,-0.003653301947135243,0.02052620005846732,-0.25314145556544826
-0.036996760279302,-0.10524333371751295,-0.08814046573194668,-0.08971319046945941,-0.033970617934371033,-0.0017374048518763955,0.003918193190959507,-0.24753534242031153
-0.03701553297232086,-0.10761667885090408,-0.08702241385061357,-0.08926801708682935,-0.03228849037656595,-0.014614909143561783,0.003329651133442517,-0.2515140946376444
-0.03324505463264883,-0.10947483054741226,-0.08734441937265748,-0.08980415967509713,-0.02700548030057399,-0.008210599399884569,-0.0011249016130127657,-0.23956861591943718
-0.03581046604240612,-0.09679469658861684,-0.08689898364813202,-0.08711008566030909,-0.030910729819365768,-0.007888816451330136,0.007511124642089663,-0.22198867197017264
-0.03644850449866319,-0.098703592358251,-0.08689629977009038,-0.0890743572982432,-0.027341893793520616,-0.009406158922470084,-4.0794516460408606E-4,-0.21659382663257387
-0.03868141023573973,-0.09902015116579428,-0.09395783198623552,-0.0973069616542233,-0.025178168155719296,-0.0051252385553295695,9.097190794215684E-4,-0.23278016270286034
-0.04094587160875181,-0.11345735304532374,-0.09713847527135554,-0.09779515439241872,-0.026623551184470063,-0.010738235317112306,-0.0028145483567570996,-0.24205948071745978
-0.03806710223697899,-0.1088684929426728,-0.09485397210396133,-0.10058405868823017,-0.01862769182839047,-0.0084496162475189,0.007308711133876155,-0.21240377197286434
-0.04086559399282331,-0.10749635099594723,-0.09976392265349643,-0.11056608702620355,-0.014623954109800765,-0.009767965835037733,-2.052119027163513E-4,-0.2258347718471208
-0.03716346103021968,-0.10873716651840566,-0.10452779239636018,-0.11226492409920898,-0.018968110867118793,-0.010689590049021449,1.935995408986814E-4,-0.22411790812585985
-0.03511183048187723,-0.11813624798392937,-0.10477376700083013,-0.11228181523160746,-0.016132027373240106,-0.009193577053531228,-0.0023435166468161006,-0.22844277253577344
-0.0389824792781238,-0.1090058645792336,-0.10107643108184519,-0.10220979323010798,-0.017187463416293073,-0.005078286587051515,0.003543765584411495,-0.2228324765011027
-0.03492256995110683,-0.10381952782438458,-0.09799316608968044,-0.10681374389799497,-0.004245470277603785,-0.0019051237338436639,0.01180985817944708,-0.21603497805577843
-0.03784461001632086,-0.11348468520899214,-0.09787269120178059,-0.1065853985397976,-0.0076731720341006535,-0.007257692330202256,0.004103813505263038,-0.2125024114125014
-0.03560786726870064,-0.1132161228530111,-0.10286783818766303,-0.11348429098007964,-0.011080645053874929,-0.007851683852663872,0.0012596878022729339,-0.21615175835392755
-0.0317496583234866,-0.11228540873559767,-0.10048694544203135,-0.11257202997830719,-0.008065198303899896,-0.00600059036167706,0.007238488756355087,-0.22487260207805362
-0.03439733488970287,-0.10512770547647213,-0.09935692550158504,-0.11437874694054552,-0.00633789865095047,-0.003848889967668523,0.01353945383665095,-0.20655194402958604
-0.03366124634157034,-0.11070389721324113,-0.10268422279586603,-0.11607561153016019,-1.8653699862655973E-4,-0.0029280467482745466,0.010966744938969038,-0.21577264295369086
-0.0399288720607081,-0.1114128075886958,-0.10260657036306677,-0.11242307324949147,-0.00417514306574055,-0.003927329350372575,0.010441716175286744,-0.22190528462025963
-0.04008586609886064,-0.11136675911436625,-0.10115675118421771,-0.11172050959879566,-0.0021157275017762768,-0.0023418839877301476,0.003088707820112986,-0.21483598249694608
-0.03038702187819395,-0.10428160357343826,-0.10289897381198984,-0.11021227337158956,-0.0013363809828096746,0.0035765846719275265,0.011312098802651046,-0.20774220954499903
-0.030427655614790453,-0.10715556765938536,-0.10519153075506595,-0.11294490065327514,0.0035870873253147136,-0.0015192551568230736,0.005455716161010258,-0.1898964607354201
-0.035689460081072634,-0.1115111835771608,-0.10037775175613192,-0.10916500117504435,-0.003080479290190771,0.0013317538957815915,0.016821488187275427,-0.20582991140661905
-0.03754065972940905,-0.11020537557305368,-0.10328401197653726,-0.10984538446277865,0.0055400494471674645,-0.0012825167500003906,0.008236808010705449,-0.2227136447942838
-0.03317347239785151,-0.1103909086285685,-0.1023508448499187,-0.10362760199136074,0.007621289076039862,0.005140575988518854,0.021662142103230114,-0.20426743099324784
-0.03644272786631683,-0.10836975831989923,-0.10044165738337864,-0.10225393782884654,0.004234214879133576,0.0024739566579961396,0.015697039486095198,-0.20096222747333373
-0.030461536518415024,-0.11173170443156127,-0.0989660151970831,-0.10277731745496844,0.0013062636184362926,8.872995861582765E-5,0.015174511025239184,-0.20274950496944444
-0.03331243766924346,-0.10936118032105258,-0.09950228293924336,-0.10597830980145453,0.00310617637925885,0.006399970344783532,0.014940635319102587,-0.20872979739622127
-0.0330671315435426,-0.1127916592291658,-0.09346422078110879,-0.10114257781019188,-8.683995840105357E-5,0.002035350580193937,0.01582879148110883,-0.20748541259871459
-0.03499670186326188,-0.10588180309008864,-0.09277957095266698,-0.09690554513346847,0.004166920428823717,0.014213509912073645,0.019157480907184724,-0.1834335419288655
-0.0256655058280282,-0.09687988388649496,-0.08725790203065635,-0.08904526612051218,0.0038970870229136268,0.0120834074477151,0.02166845287946433,-0.19009948348928615
-0.028157254032686478,-0.09722681854502148,-0.08226096406423444,-0.0833810047861591,0.0014752528514092509,0.009801414545316911,0.019959165041731616,-0.1816741697656903
-0.03313433130520821,-0.09917305084656032,-0.07990765264385677,-0.08049383007270783,0.006562012424614237,0.011073208005761705,0.014214764178759753,-0.1835458309697582
-0.0274871705436133,-0.08018584904653013,-0.07555007829049702,-0.07505425708101802,0.0034517492720051437,0.01502440290212767,0.026332804055230773,-0.1563233377549487
-0.026827965237035387,-0.0735759992632982,-0.07264352262396656,-0.07753236888635155,0.006651479425689847,0.011227201982796267,0.028105805628251393,-0.15204281135949446
-0.014794754726678728,-0.0711793997450174,-0.06661476799443902,-0.07571438595497472,0.009523580903742094,0.009534093515979102,0.023362164597550014,-0.1610965269242581
-0.011099544817403965,-0.06601354815191582,-0.060995277932744375,-0.06550088218779017,-4.0451784549500405E-4,0.015841257855647297,0.03427490509278178,-0.17459605573557033
-0.0018035329034445248,-0.05835211341440449,-0.053889378379293786,-0.05767755329842942,-0.0020665651597111387,0.017987437756176193,0.027779338324003457,-0.15461052840179348
-0.0043298920003526165,-0.05092461123481313,-0.05491945821088099,-0.060420278627327205,0.009552667022276922,0.021265188936574933,0.027532161264595446,-0.16704004861739202
0.0035766640939212647,-0.05204847036286109,-0.05480295249534305,-0.06423903329448932,0.0054318126241133325,0.020171283932971365,0.035285869976124276,-0.15787608080189597
0.011986250599093145,-0.04455708142088701,-0.05102724327392321,-0.05884347976768386,-0.004059559185377752,0.013454783968229462,0.035064266477925696,-0.16971523285682838
0.012661998282517593,-0.04093775136435158,-0.04941721906223831,-0.06344419362067302,0.0031256185424550346,0.015070561510585266,0.03918310814713805,-0.16299292438899796
0.021611277844450515,-0.03158742067032338,-0.042278334640471274,-0.05668377379270384,0.004109168627326696,0.017929103700044274,0.032995698873578665,-0.17256957481841434
0.027006282490460966,-0.02559327660562711,-0.042448214000070095,-0.053900717777055254,0.0030585490194136224,0.017834034645410224,0.026872865419051067,-0.17769097494470282
0.0301600499402433,-0.022475736773871508,-0.03530125476920563,-0.05494506670524383,0.010351035307708902,0.012618310094552996,0.025363903566590712,-0.17879310282468538
0.03414910629214144,-0.02004968283529284,-0.031531146740793346,-0.04551275046585845,0.010137391825864888,0.021200032021199397,0.02862461979346257,-0.17075398887167698
0.042000318280894754,-0.010652998727099508,-0.027149022889543132,-0.05068932397493537,0.010889951954407177,0.024073415416799488,0.03292699142845177,-0.16729089970223102
0.04540329186650795,-0.0074281845535877425,-0.0284142695600506,-0.046681457802682284,0.012422204577323456,0.020482967541540244,0.028821321709865844,-0.1713648710114635
0.045885389961269354,-0.007483612953886918,-0.022421402451713944,-0.04348435232551613,0.013294208002821542,0.017848099627954275,0.03231211471623272,-0.16646919172497324
0.05521673535883716,-0.0023037338697720184,-0.022517617703837752,-0.038985889442028084,0.019835242380793185,0.02242897302492566,0.03607179218346115,-0.15609721237849614
0.055978318908473594,0.004565790262711795,-0.021867204302981506,-0.03719634560245867,0.020403685134538226,0.020684248486436237,0.04209680175305403,-0.15776710063438876
0.05830233794139086,0.00833800282304693,-0.016106872755421803,-0.03567553996035536,0.016956242553392953,0.023819031428444663,0.03381482177847634,-0.1520696317815642
0.06717780070537907,0.0192008106284029,4.339474559897764E-4,-0.020189678945502398,0.025792179003752965,0.023501494128411366,0.026298077885957144,-0.15916578598424133
0.06546181335182996,0.026369952204154046,0.012555504770084946,-0.0012397187528275894,0.019071965494811962,0.02289822053158946,0.011888224042083818,-0.12557142158891083
0.06077524829131945,0.028035503381969366,0.009519849143659106,-0.0033375336168235585,0.028199115659950674,0.027585784781528754,0.014746880034051148,-0.11894448366339318
0.05189282662545906,0.021520804357116542,0.0021955882248918274,-0.009976199573050298,0.02629062476831748,0.02139033029804279,0.011024492149830173,-0.12032275487661427
0.05070652153073216,0.011202642569651495,-0.004023610850515142,-0.01419250131765223,0.028471740060928348,0.019557517537636928,0.016884138400686005,-0.13281960040315233
0.04012075545167676,0.011638149103774476,-0.007443132713932741,-0.011667618277903484,0.03077813772653843,0.02115482062238391,0.017953869009799516,-0.11452727540026489
0.03005609678169944,0.004242089442279282,-0.009871136803199072,-0.01684096890346273,0.034800781929691965,0.02055404750704102,0.015357604835928886,-0.10654210546835804
0.021661227793578878,-0.00472166224532085,-0.018046781871417936,-0.03061519734496539,0.03741174937047236,0.021249064789641562,0.016391104620076077,-0.11116592667507373
0.021716956607055048,-0.013950193199699932,-0.027698943619435295,-0.03438600419730796,0.02958685078822677,0.021709136264019293,0.0157833498357748,-0.12600191720679627
0.023921726696153382,-0.018759439554371232,-0.02758223693018997,-0.03469033943768232,0.03398761333209756,0.0260149010392344,0.02271819286736562,-0.12866513771732876
0.023553634700557415,-0.018746917851939136,-0.03341911497227691,-0.04247028478550616,0.03802100757226217,0.025024589245964946,0.022799815294423084,-0.11379138444418148
0.02145940113423279,-0.020974260686656955,-0.04009414481149097,-0.053342098265085174,0.033913813736140705,0.031292497029730755,0.019359335009562707,-0.13019390594115374
0.014983014997839834,-0.025462937846576064,-0.04234088200216162,-0.05506014447327755,0.03709354239642423,0.028752172864641674,0.025213539465464008,-0.13104652312410364
0.017513353666323787,-0.034063231156146616,-0.04236646615594347,-0.05933305880128424,0.039564671803870265,0.030478971575527692,0.03246035498565002,-0.1347065502414464
0.018727636670166,-0.024071903257568025,-0.04542425148162883,-0.058204439801414536,0.03848281185876694,0.03599337675800739,0.03263362763523503,-0.12818183189342508
0.013777014816054887,-0.031557292003933445,-0.04774789425050504,-0.06301040217451087,0.0532325837164067,0.035637116654837736,0.039172284902852704,-0.12923360725821256
0.021270981054851475,-0.03592000417042725,-0.048300535208101396,-0.06955788678678362,0.04080113694603856,0.02735899160501812,0.03472121189654235,-0.12950237515788077
0.014911829939567106,-0.0352147953644587,-0.05044145879243069,-0.06852584716169721,0.044096708315771185,0.03694986276265299,0.041730336808211074,-0.13848229696250078
0.018725313542537585,-0.026970581144989816,-0.04742028172257083,-0.07129557629983807,0.04373001985380744,0.03673761227775317,0.043825369438503146,-0.13053511967137765
0.0221873673956141,-0.03167217514304573,-0.051483052392887696,-0.07365990865953845,0.043627436935649584,0.034893449973699295,0.03837733199054347,-0.12196243405605015
0.02299690985443487,-0.036840487500572325,-0.05189757359128137,-0.07273117717890673,0.04629078918667789,0.03079513651193357,0.034103927383741406,-0.14060888711037323
0.02280964707983162,-0.03493932135738753,-0.051108758607600537,-0.07383188121853687,0.04751070035510252,0.03220293934944925,0.04064643750977539,-0.1477564255891228
0.025496735092870922,-0.02581684339832796,-0.050284888723712784,-0.07062709455472767,0.04377364376760982,0.03623549143650358,0.04258420213101644,-0.1269309713790721
0.029153692731403825,-0.01861289447615268,-0.045037415693638935,-0.07228865335866988,0.033018825627066185,0.034270798813948726,0.043311106117323535,-0.14009279571166194
0.024380869232490377,-0.028091312816602716,-0.055808010997704896,-0.086410746912109,0.03714054939880285,0.03139657610541438,0.043082078302963935,-0.15661410562971473
0.02185679741883853,-0.04000739363404055,-0.06459459953526299,-0.08888519133359293,0.033847124802561766,0.03087159043775613,0.040428858271250534,-0.17256718390810075
0.02718980542525112,-0.031055911653117798,-0.05956872006836363,-0.08574475158184441,0.037157658736412226,0.036534116486249726,0.05705599885498447,-0.16335578052088945
0.030681034526210994,-0.034313097630889224,-0.060923889641310604,-0.08734992357369195,0.02866945748283987,0.034740685291584014,0.04511730307435771,-0.15238657731936742
0.032080552981163496,-0.0335605046399018,-0.05842789864832108,-0.08041963063211627,0.0332038361885598,0.028551705680826885,0.045730888559490035,-0.16717367734774985
0.035599780723123677,-0.021309467521927705,-0.04923792981107012,-0.07026735460934724,0.0327888452774936,0.035151270403767976,0.04440698894106662,-0.15276599860819084
0.044515725439050705,-0.00748311147251353,-0.03278650815407,-0.048666401620493994,0.035428749402094666,0.029086875639204025,0.033261552394363555,-0.15940866857439315
0.04065052001222062,-0.008859207900171188,-0.029783645480869106,-0.052966405114035484,0.03830912173769325,0.03562935703759342,0.028688124574948903,-0.13807359156070056
0.02931541421403096,-0.009580512897061216,-0.035083707913186456,-0.05117294542436613,0.03261738961333026,0.02635489415747294,0.01443955444505029,-0.13422921175228295
0.02065260744480423,-0.02033890350542337,-0.04167911100503544,-0.06240767463922029,0.03540559642237336,0.027761987376297308,0.023847478294318616,-0.12954930980096602
0.01780127388087881,-0.02849310411203468,-0.04688781753085658,-0.06210331692645961,0.03565157609626799,0.030496987872844675,0.02381826944986747,-0.12830334703158636
0.01182414430365644,-0.03179525639988966,-0.052095412113583504,-0.06284460682513672,0.036992658939194796,0.03215264447898856,0.0240163551424347,-0.1135868406411915
0.009870625382820127,-0.03827266871119793,-0.05946589150995791,-0.0723090753339049,0.035859448011939035,0.030430081359925462,0.0224192095533591,-0.12303518037268829
-0.0019588701491149337,-0.04443150372575875,-0.05895565983137298,-0.07400886164778447,0.04281406219083942,0.029206569017025986,0.025082600168255993,-0.12928309404062238
0.006792818533372052,-0.04821149693371722,-0.06384415202448589,-0.07387349312234597,0.03610658460404946,0.029759335383581997,0.027953692678559697,-0.1327267839928399
9.797796739680435E-5,-0.045309261972009414,-0.057803616557329636,-0.07817108627389423,0.04409196222575728,0.034825320032273906,0.030616676414418238,-0.11877783136840195
0.003454786797206189,-0.052286947971554115,-0.0655981194207394,-0.08090622397234615,0.03875649703617159,0.03441272877352655,0.034913582233448,-0.1254684250030501
-0.0015874584101453059,-0.05477420900357272,-0.0672590912350507,-0.08476537908543805,0.03811670669095119,0.0300668030581582,0.02972970471391673,-0.13848017098583634
-0.003166386027444411,-0.0569309130159608,-0.07508004488319954,-0.08498784394795182,0.04333682283078864,0.02814154000868225,0.0404676805905984,-0.1430144564462768
-0.004863997719202366,-0.056419082353512326,-0.06777427096461693,-0.08488156039476295,0.0435941020224334,0.03424587121515689,0.046003828437904015,-0.1233974818585799
0.0024199965225483264,-0.05935768477653344,-0.07347126526674685,-0.08870165236564731,0.04292508354854961,0.03590343620953371,0.043010805312920945,-0.13767334257185387
-0.00450431280361168,-0.055964432300242624,-0.072862105321024,-0.08839824173101136,0.036637549801020824,0.03765812787835468,0.041275059968871985,-0.14226624510559774
-0.005180616115567184,-0.06637023961481547,-0.07491903440511653,-0.09134364338838102,0.036659120952849976,0.02946605904481989,0.047977675469483484,-0.14717187258856154
-0.003275808437139237,-0.054624967463353644,-0.06896916019372455,-0.08152811117708858,0.03651508370608242,0.03821902331406165,0.048504172771651324,-0.12728963785346742
0.002091151175588849,-0.05561315602876337,-0.06747602474953704,-0.0801900016934338,0.04138320207487619,0.03788610180310236,0.04738933182174597,-0.12379241376739922
0.005322254028037445,-0.04989507197085602,-0.062385930116365014,-0.07179069629135397,0.03794500696184536,0.032514140580286885,0.03473730853522439,-0.1292812234466078
3.553308079060306E-4,-0.05096859040248679,-0.061736566208756574,-0.06538390984620454,0.038771834232142366,0.03350531959605369,0.02467056728826118,-0.13156723918801097
-0.0017366249936656987,-0.05199779351528184,-0.0603616314184284,-0.06359436631488923,0.041870512008475115,0.044409735156288405,0.03553377614339815,-0.11575961631345451
-0.0040190028217828196,-0.055198790770432805,-0.06039589709320585,-0.07006266079532827,0.048733873876927715,0.036216345294134956,0.03559756840333857,-0.1226057080837165
-0.01159009977602087,-0.06042169800614693,-0.06112425752938136,-0.0718907626145523,0.040411473247158616,0.03618722551467406,0.028946665245472812,-0.12785961712600022
-0.003790121197225935,-0.06390322487687938,-0.06444192482790748,-0.07055850992950172,0.0402300276254484,0.034766692853006424,0.033357038782313414,-0.12964205687981728
-0.008533916998280896,-0.06402000225056957,-0.06458230616282419,-0.07084747178235809,0.047412046330872114,0.03476895402971406,0.03601834113791562,-0.1075084385431471
-0.0077418175787960525,-0.053802411980693736,-0.0640558275335235,-0.0743667488472976,0.05059409092733558,0.037371749502490656,0.03035396151363377,-0.1253379367565086
-0.009395313631081186,-0.059241056528696476,-0.06392132575447368,-0.0724850484610376,0.04463561735937405,0.03214308847827915,0.030319627399186,-0.12199704552826769
-0.007369080844870155,-0.06161606502300442,-0.06560434328112433,-0.07548055717830957,0.04000632653722624,0.03325459518244563,0.03622459256701925,-0.1458061499483615
-0.008285893709715494,-0.06529679718589099,-0.06462256361526497,-0.06740494041234088,0.04567637965443629,0.03667647862102956,0.033931032526299726,-0.13396163033206657
-0.010582016890113425,-0.05898427012519582,-0.0667588799150941,-0.07064952240009485,0.05129366766065617,0.03647607187920709,0.03709425151446855,-0.11955426807354258
-0.008622833639805944,-0.05882888800013645,-0.06531348909833541,-0.07038025399286152,0.03858820292602876,0.031964705994760124,0.03552966947204476,-0.12403930016965284
-0.005560627956329203,-0.05857758156269057,-0.06181087528479483,-0.07480226854947612,0.04157977615384726,0.029085285194781856,0.02909285641026767,-0.12031466155188231
-0.0071273068804711985,-0.06025006511493499,-0.061921113151841525,-0.06968047162748132,0.044541510965142334,0.03357777585502753,0.025631740338729506,-0.12660045064564418
-0.015275712582241625,-0.0639760526433003,-0.059129985263297186,-0.06750073881421215,0.052765897058573194,0.03607603831235465,0.0341458251776808,-0.1251544901877692
-0.01938414965745456,-0.06803132389671446,-0.06329125554701924,-0.06697982571323598,0.043918318561701385,0.02813717153093258,0.029389721948215132,-0.12181356505795987
-0.023882458291306332,-0.07242638907891426,-0.06434613769616615,-0.0681910581568979,0.033870555230721335,0.02245184388902303,0.027736317915034087,-0.1436707564081703
-0.03132447419910385,-0.07580910624597248,-0.06881518865015034,-0.07215433336498392,0.0306043440960848,0.018517398477988,0.021674719961738823,-0.14006914331301623
-0.033362582719834395,-0.08598584654711863,-0.07184985436085525,-0.07087385645710519,0.036648157561255966,0.0296758484205716,0.02746629990554941,-0.1272965895805363
-0.03599187125766046,-0.08719610762799584,-0.07645536014560639,-0.07395382073770698,0.03291249832120041,0.021829192695130797,0.026590690305599178,-0.13696111559470686
-0.040648603469003,-0.08867117418578033,-0.07852027650158595,-0.07799162052410259,0.027305921764903363,0.018416307961776304,0.01783299052164839,-0.13810533433175798
-0.04121063979307564,-0.09770780577108916,-0.08038459305402162,-0.08467767889318306,0.021819201359494087,0.016372934030587608,0.021712437670719557,-0.14667321744381173
-0.036870498937727994,-0.0915579427086144,-0.07813832157404861,-0.07992417832406583,0.026537488555518858,0.024165253487142664,0.026075945546177468,-0.12967183147375944
-0.040696897993670794,-0.08743977362869494,-0.07915951101626632,-0.07422572812719917,0.030325908855127336,0.01278437329333331,0.026573180086822863,-0.12916405320076507
-0.041780052983928395,-0.08633738085855218,-0.07949763786338229,-0.08102054325836436,0.023732370443099893,0.01866374010907544,0.0219054785558239,-0.14105046993162218
-0.044835951206923234,-0.09083025316178849,-0.08283202375599209,-0.07987744094983484,0.026964646995861333,0.014338253290697534,0.015349704663770067,-0.14017343068942925
-0.04190734695958505,-0.08703923604366845,-0.07990507955415992,-0.0786587508397584,0.02411479249412049,0.018465937238491423,0.02340000360189858,-0.1379940915868598
-0.03416803368903416,-0.0862794208887347,-0.08132199342538995,-0.08051340706329399,0.030955061707999845,0.020715643105445807,0.026558386179984288,-0.13621586662828358
-0.03847942651026362,-0.08785546519728235,-0.08268698297942234,-0.08045209559608635,0.02261734139495165,0.01600187290850652,0.022367263721321928,-0.14449769886111954
-0.037672489878386846,-0.08828414457823806,-0.08461969978356419,-0.08369359005157484,0.018863442678080506,0.012505817627832202,0.019011463745255305,-0.14416610870832727
-0.039726321136065786,-0.09168943431145377,-0.07948861129433314,-0.07971388263756342,0.022211560647247438,0.01245157607805913,0.014749709787288024,-0.14861237391150703
-0.03898535143501207,-0.0871583170391301,-0.07558494689233305,-0.07553536973989834,0.026032520456719218,0.018401104084482773,0.029715315834323044,-0.14962129390399576
-0.037567094046499876,-0.08879506842844888,-0.08195607465124467,-0.08169772836868738,0.0228698763081626,0.011574184896718532,0.015054604774156481,-0.14478511033596614
-0.041379510801571505,-0.09273380710329339,-0.0837818100291389,-0.0863851756754377,0.020361093966247055,0.009837477151694437,0.025368073644852995,-0.15942124723840922
-0.04014136800841266,-0.09398083860875697,-0.08457034839698761,-0.08881302309056167,0.025494598438319617,0.01040234878946228,0.01954250312062508,-0.14780899131973224
-0.036265053398902,-0.09358433893120655,-0.08408810773061841,-0.08383496870098468,0.024298093417903708,0.018865821803448767,0.021592045685952858,-0.13511872622059098
-0.040502907510858444,-0.09396166534858724,-0.08699981459306108,-0.09190085515110047,0.022498144757542797,0.01603928193248359,0.012830665127402406,-0.14042624331863884
-0.03802258655084679,-0.10182638651903123,-0.09032822158227116,-0.09108524341534402,0.020166689668376054,0.012363114665333625,0.009917783740545123,-0.14916254958046943
-0.03866794582886023,-0.09607816289872,-0.09078514804064053,-0.09034108358779512,0.02393837135969361,0.00870865566337736,0.013368656327212016,-0.15711199656063088
-0.04171908353683493,-0.09542523289843972,-0.08825800389486248,-0.08799447756665935,0.02680186200924335,0.016066069951145654,0.018686400842026878,-0.14025859994447343
-0.04091318396956465,-0.09518777894335675,-0.08840917387645868,-0.0881392635171569,0.020382516232768152,0.017143643002666444,0.014995291108315477,-0.1546402079624142
-0.042908101969726296,-0.10175952768389912,-0.09148757000139439,-0.09584538004866736,0.017375264236575153,0.013243068197500985,0.00646817772089795,-0.14572631960576463
-0.04261536434869085,-0.0995610716590599,-0.09288363114331313,-0.09702783490159911,0.022469048803391584,0.007441496499399838,0.014197144754754296,-0.16076581505446827
-0.04105385850679008,-0.09670832478168685,-0.08824315980595514,-0.09309393293300568,0.020453916705290665,0.006589139722931723,0.006347348890506021,-0.15219667743206888
-0.03933991839477154,-0.09794197937266605,-0.0891079188976884,-0.09584965909989952,0.026717363837988017,0.009456373576247356,0.015192196872684386,-0.15084481659825183
-0.04093815764333047,-0.09675133975759424,-0.08953003154522593,-0.09061129552943865,0.018759168528385068,0.006130905365915767,0.012771229823222418,-0.14910729537460832
-0.04259959414103453,-0.09821008140945603,-0.08884477348269898,-0.0961035651123736,0.019983284099996904,0.007988625159880521,0.011019400935747726,-0.15878896249269048
-0.042847974503509384,-0.10107861993407583,-0.08994326892551492,-0.08994841416477586,0.01444401028210936,0.007176894794896005,0.008508690260289838,-0.16919269345848245
-0.041098163417158544,-0.08986986385461361,-0.08807288354049408,-0.08715407032424008,0.02613167349736797,0.007077590746852756,0.010869746743721988,-0.16532256752130556
-0.03407741895795453,-0.0911881210183076,-0.0854247830408341,-0.08693881689751004,0.016882099027689862,0.009996363216846252,0.012933859598504408,-0.14609953511042828
-0.04191666464580871,-0.09960498714851282,-0.08797157634076881,-0.09132039091317797,0.02043472208943769,0.01315190926650911,0.006005396940986888,-0.1493123122306529
-0.040745218452893986,-0.09184155024084037,-0.08765814373400702,-0.08857880604528517,0.014520244673065605,0.009500787007400742,0.004179160965839264,-0.17528540340453327
-0.037925915475448484,-0.09601604443388932,-0.0850235376651597,-0.08945044960917797,0.018423056014824055,0.014914200370881541,0.022206758406524998,-0.16546097564716103
-0.03940411342782323,-0.0898957978460216,-0.0870348479034736,-0.08820468024676457,0.02018066331740589,0.009256356463504544,0.015950605041169703,-0.15380672658836164
-0.03963404282912465,-0.10035505342529201,-0.0835473900520904,-0.08617245718474249,0.016693195403682637,0.009958469020376608,0.01253364107048694,-0.15882567492078795
-0.036663767989738874,-0.09739473291390273,-0.08471515811019853,-0.08634028188854259,0.015406065969320837,0.007612126596515565,0.005785885859066166,-0.1650882878337496
-0.03432998122507108,-0.09028674655610358,-0.08365561943242852,-0.0841532541004071,0.010728138280116917,0.01633979613894675,0.015028413533935235,-0.1604344242575731
-0.03712972142898354,-0.09624593403320326,-0.08473773701054771,-0.08572959901941435,0.023292812926597323,0.016916943005010315,0.01312455832930425,-0.15998537171519447
-0.043197491071695814,-0.09436946815297481,-0.08581197427545947,-0.08766749561559081,0.015121138687328776,0.009408854893505554,0.012448880698788044,-0.14207070571994543
-0.03838678074921549,-0.09404722704149125,-0.08794476545769583,-0.0849254980462742,0.01608695030790934,0.010251849831070243,0.0050922066714049795,-0.16310052074955522
-0.036654556453094005,-0.09635095777659519,-0.0848213758864567,-0.08597630757042082,0.014054762197024223,0.011797041333779726,0.012087041747007088,-0.1614188498318929
-0.038298471292379344,-0.09190950881783992,-0.08466213216329502,-0.08880043920004102,0.01943917425859509,0.013368485220991006,0.00921268224444594,-0.15124073842890892
-0.03784930190343896,-0.09187707963757685,-0.08420608116152428,-0.08809202879472736,0.015212321272702665,0.007453021105856525,0.0048087211566098294,-0.15884770960244737
-0.039045011336651524,-0.09678515757724676,-0.08591358053831377,-0.0850756457913174,0.02416712266468834,0.00947867343760377,0.011874806587197131,-0.16474438482490394
-0.03936364154177839,-0.10179273833137148,-0.08325192937896389,-0.08960375183292511,0.01584760809858278,0.011301654614893117,0.006364289898877334,-0.16658802398043857
-0.0388780668908638,-0.09242703606845701,-0.0812961370240037,-0.08319091709728632,0.025483087339473395,0.013765306496573336,0.015486480136473073,-0.16043005436389043
-0.03614783728512737,-0.08982606475413743,-0.08533709841112846,-0.08561289722070763,0.02333711053476195,0.010915062565174419,0.012708384155675885,-0.16067248086140065
-0.037878408246744134,-0.09625717265244314,-0.08835983529104478,-0.09277694926145671,0.02019362295820701,0.012108336129848752,0.006698225112991225,-0.15811394163789028
-0.03955592841228116,-0.09434241252948486,-0.09046401696190746,-0.08612559123316893,0.019798519697205613,0.006415084765714539,0.009636558250191928,-0.16869250998276708
-0.039658537791702336,-0.09080045950651063,-0.08563497772039677,-0.08563008745512829,0.025601279158010238,0.013915086352072841,0.015267471355599286,-0.1558292179198798
-0.042671338770889765,-0.09500460600793038,-0.0887744381267741,-0.09143766989692512,0.022628078464480582,0.013451625282672595,0.017941080776152755,-0.15803100330732278
-0.03795236869006597,-0.0916081634806176,-0.08993984649387032,-0.09163196533153443,0.022016808564060877,0.00546920807487962,0.015313072430409561,-0.16045800568266183
-0.03913401943169124,-0.09570265300234852,-0.0897139189539436,-0.09228916784999623,0.013646579601956582,0.0055856035398218545,0.006486778004518372,-0.16540224928027042
-0.03996016632869085,-0.09527582053855711,-0.09081312384823223,-0.09183466571442249,0.018487023367301108,0.007663977711441479,0.01600320514706388,-0.14287030283666924
-0.04190895971920348,-0.0943949085228502,-0.08955968931120761,-0.09096344355300312,0.015958984824483966,0.007219105559823762,0.006899957220110346,-0.14700613206820445
-0.0404476485526931,-0.09789900470155598,-0.09265903629604567,-0.09662996073261962,0.01818216475488316,0.0012839780447008468,0.0027352803926984797,-0.15499312262510662
-0.04139768905615215,-0.09718516933207429,-0.09662449459300386,-0.0996795473243808,0.01721739086675345,0.0038974149827868967,3.6745655054872846E-4,-0.1677471670741005
-0.04059900181991814,-0.10450349551546435,-0.09429044095979885,-0.09945062718623766,0.017690542723674797,0.009091619505892278,0.008334445494948125,-0.16930427679956364
-0.04078303411330583,-0.10186196046558331,-0.0937597221909703,-0.09786053896739717,0.01700729952630696,0.008065430164661653,0.00874659712653134,-0.16071976627482784
-0.03822375167870262,-0.09838745028423075,-0.0965814327728055,-0.10079458579925767,0.017453347466452253,0.006293598485445676,0.0013502679483875437,-0.16522768180018252
-0.04067449226981745,-0.1036714986637849,-0.09495697905110316,-0.10056106551445776,0.019712029826744595,0.0049352032816366905,0.002527003451773889,-0.16226405788374354
-0.04380700964030087,-0.10618531241859515,-0.09715878923765943,-0.10093599076844031,0.0129643370389662,0.003519392787887839,-8.858599442778602E-4,-0.18454771053607777
-0.045004974125090434,-0.10152932344018004,-0.09520420871492369,-0.09904228449638598,0.02314426889731841,0.0074478907136939785,0.006889603630007925,-0.16556176348409782
-0.041995566451281,-0.10129024481909932,-0.09596788715633836,-0.10092689041339975,0.01806097743783935,0.006707462516081496,0.004054459623384248,-0.1690924771192797
-0.047226152903120176,-0.10373596510647004,-0.09580329165491501,-0.10254582529793357,0.015615632096832817,0.0028543831404555645,-0.0017008739462002632,-0.16217468761047463
-0.04574867014477365,-0.11518208783878799,-0.10082643228875804,-0.10504762500814295,0.01614619237222844,0.0059152042162504016,0.005943308960334765,-0.16957581293646462
-0.04880860902809265,-0.10504760043133178,-0.09830334766433986,-0.10337702387284381,0.02063398613822122,0.010824942674440462,0.00651927725534535,-0.1591668639599178
-0.046859992785594856,-0.10443844643217438,-0.10076872356478796,-0.10178074726114193,0.02613035623923315,0.0042700050097876086,0.0011093087975862983,-0.15768136294599425
-0.046524740688200415,-0.10914630028256772,-0.10259489634918338,-0.10780545700118048,0.01680307947345026,0.0038760181613526315,-0.002783354095943999,-0.15869915908482063
-0.049535322510004656,-0.11445617222949747,-0.10589276952856737,-0.10539254349278102,0.017641971038385995,4.148006555997665E-5,-0.0076771763033485875,-0.16831057026950466
-0.045345988139545775,-0.11737813357764093,-0.10088137249191749,-0.10724062012102707,0.021947179094543287,0.005508084275483731,0.009751091076306406,-0.16480074216632026
-0.05151114699510639,-0.10723144547472434,-0.10236971292701201,-0.10741097062164016,0.015284257551025889,0.006655010859455725,2.0254286146861012E-4,-0.15902565371033456
-0.053016234315343864,-0.11401751685048539,-0.10286108104684794,-0.1099891907721042,0.01902570532975424,0.005943088574553386,-0.0019779754975763598,-0.16080880119666358
-0.04950369218518437,-0.11652008808092636,-0.10669865621077608,-0.1108627355262426,0.02082375599065596,-2.2034169364138615E-4,-0.0011503967494619907,-0.17893738310641144
-0.046174239097177855,-0.11022456873809836,-0.10448786785145514,-0.10928124829397635,0.014899158671968296,0.005135932616866547,2.0793184019412137E-4,-0.1600035297299105
-0.04569858168532992,-0.10597633288712212,-0.10445870045424621,-0.10865397268839895,0.02137729748580241,0.006197055830579503,-0.006847959965324182,-0.16376695628858728
-0.048606452725592386,-0.11335708571765124,-0.10564980282751016,-0.10735064708428622,0.017587982455744073,-0.001001908172132175,-0.0015550267507452597,-0.17539404846886622
-0.048889505760807195,-0.1131229728875054,-0.10358899640670567,-0.11080126393052167,0.015265342478562318,0.00269884123300436,4.626193823622887E-5,-0.1642701523808838
-0.051579111647984344,-0.11451004792548122,-0.10448099035781291,-0.10677380693108139,0.01675818977265885,0.005723211749437702,-3.775126131475568E-4,-0.17242754360825105
-0.04995501037125843,-0.10499135683750115,-0.1045132589896358,-0.10757565238733964,0.022252739266807615,0.005082706085805609,4.5210342211865605E-5,-0.17387380497309254
-0.04215542895556939,-0.11364678263081843,-0.10315600470674334,-0.1112620412939226,0.02055983124915522,0.003978929159957395,7.589863777031368E-4,-0.16402732764206043
-0.040540542718845225,-0.10657642036227873,-0.10415072410093719,-0.11110464616411758,0.02110338617034992,-0.004236505967386645,-0.006471888692062758,-0.1764332086993218
-0.03941174980090273,-0.10276275916660851,-0.09081578295765166,-0.10147963049842634,0.015978290972531776,-0.006226387558015925,0.0048385538059881545,-0.1828975571225374
-0.035355064787083126,-0.08312323307942171,-0.08376478383132734,-0.09445998799852127,0.007388439443259166,-0.0015650442124308338,0.00887899507384857,-0.1886633900573721
-0.031069323565645464,-0.07326519417980457,-0.08690640100953015,-0.09736604977443403,4.031530693046736E-4,-0.0028988698819154644,0.014482091545391143,-0.20705478254006787
-0.006304409198587098,-0.0442825303205224,-0.06164130269803775,-0.07477992285749509,-0.010267802727612943,-0.003246878982473674,0.017356577680051097,-0.18621127115806455
-0.005885949076273002,-0.04522846878362668,-0.0552464914051665,-0.0661546660874896,-0.005548348330918905,-0.0035809452892498327,0.011076205575886249,-0.19117504421437814
-0.013638451601900381,-0.04957768431152634,-0.0627934978543283,-0.07422443477759576,-8.311907872386248E-4,9.949204790599246E-4,0.011250815797224622,-0.18090981577370427
-0.01825667226543743,-0.0630993989984265,-0.06989161749488551,-0.07397329489080962,-0.006611599072407077,-0.0037007762621254787,0.008918416568331408,-0.1921769959422324
-0.024282931624191012,-0.06921957763812228,-0.07481711991513117,-0.07653342880249135,0.0031028412536129495,0.0010819409539566305,0.010287823594115798,-0.20041415432292273
-0.02639460543499635,-0.07352126299461845,-0.0757924410427217,-0.08290969732712282,-0.004143505819717662,0.0026246048855243257,0.007531954843929277,-0.21262465472761974
-0.026516906342780505,-0.06740081207892311,-0.0764951537551543,-0.0786222916723604,0.0029117901241407953,-0.001397379972931233,0.010957257407580495,-0.18708918149991322
-0.03352396400688191,-0.0668478119945736,-0.07639442020858615,-0.08115047331324651,0.00310489800632313,-0.0013471457054297007,0.005037273994604467,-0.19027673899868847
-0.02400369542470026,-0.07934167939846494,-0.07854157433558927,-0.08380105237762986,-0.0047967226331868205,-0.0030857248639424794,0.0067523867534007576,-0.21692975991568578
-0.031810613655271214,-0.08497890341572352,-0.07541325590578411,-0.07942381977361923,-0.002278812279714379,-0.0017557602311055048,0.01187421004159489,-0.2090268639243146
-0.023706841300875,-0.07649339901535088,-0.07358625815210139,-0.07378010957228262,0.0033945865732575835,0.004680283845348952,0.0171791973031425,-0.18249644492338826
-0.02226261299460969,-0.0716853885842586,-0.07228213685585075,-0.07091554544723497,0.0033142304864668287,0.0039324542766753096,0.010638214884015685,-0.1867444569459554
-0.02305138896884746,-0.07078615008393983,-0.06877988430088769,-0.07268536573530067,-0.0011093208119091911,0.003377330856409005,0.021237762838323113,-0.19320919323665928
-0.01796867652853833,-0.07532146983899986,-0.06947613130542754,-0.06874297750092834,0.0028309013842177633,0.009379072191316931,0.01783312738835162,-0.1931602396626973
-0.020109747480964304,-0.07865724453926648,-0.06865983122265619,-0.07160070781503476,0.006502760750926027,0.010758112980594594,0.020311802666640382,-0.17714078823529406
-0.018414011576764058,-0.07368795408927067,-0.06717856928912402,-0.07061743107226337,0.00827013580901132,0.001979743271644169,0.01622376647172408,-0.1789103561287796
-0.020026195638351806,-0.06958585897047455,-0.06377015118781013,-0.06785670010719394,0.009164230643761323,0.010729772574132813,0.012290537467266303,-0.1892694513203975
-0.014722822100295262,-0.06773813523090648,-0.06665262882286101,-0.06635296152800496,0.00865739085860136,0.0011322340384390041,0.016903159316644698,-0.1933137508119928
-0.018290203201875948,-0.06324354892216455,-0.06312095177756766,-0.06693169295346164,0.010763703778457027,0.007136150891105556,0.02642541343059867,-0.16887765512221234
-0.018913083318787844,-0.06702326320386826,-0.06068719683990796,-0.0629378625657486,0.009608429388264865,0.007093597285070122,0.025147664238856733,-0.170630602207356
-0.017840641623805772,-0.05866389757733717,-0.05943189010183687,-0.05817564307944066,0.008796577583714322,0.005991916921059329,0.01936356239080144,-0.18405208443157003
-0.019034668911169905,-0.05721454399891549,-0.05653845837067922,-0.05786062187664974,0.011059432224822531,0.008424817035359307,0.020591770195961576,-0.17110620112375333
-0.0209746220148654,-0.059247426779127046,-0.0556679325713861,-0.060373824655381055,0.008595950265011202,0.011009220291194282,0.026317069005642298,-0.16483575953041116
-0.019666816393843628,-0.060537581218528404,-0.060148673225554714,-0.05833898291397336,0.0028051710348981104,0.009669031935324954,0.017109918103367865,-0.16713661322962453
-0.018672984282011584,-0.06343752159502139,-0.05770713388176964,-0.060167746050672336,0.0034914047400348524,0.012057963485013748,0.020049756911569128,-0.18087641799152368
-0.018905821403611314,-0.06143613339354554,-0.05363205345664423,-0.049931032643124054,0.009184070442116148,0.02068045287752661,0.02096539985601469,-0.17779638500214623
-0.016994816646028355,-0.06092634733929948,-0.054966293196776525,-0.05713546358261968,0.008653412068251288,0.012696367952104019,0.022500125013516503,-0.1890460171786127
-0.01591373919286635,-0.06546447921131396,-0.058802071350145514,-0.05526918349776117,0.013062819978833436,0.01316561953490539,0.021723734520725044,-0.19104689528163873
-0.022669763956951187,-0.06949658942792761,-0.05967506413962569,-0.06000625181606609,0.010217421323265348,0.012088738336373018,0.02372297191262507,-0.1886616824894274
-0.01978766377528701,-0.07147025437857178,-0.06207167981038117,-0.05940945341516583,0.009415347803817697,0.022805481867228496,0.02997616338671475,-0.17775834907637042
-0.02485214744243009,-0.07193696572563912,-0.0611073302848759,-0.06049183052436668,0.012847443429752671,0.018757939541968173,0.02288681537548735,-0.169094647938415
-0.020347827554547688,-0.06727279090550374,-0.05960318745278523,-0.05981278205688479,0.01365532520212948,0.016590930440978986,0.030690220410474565,-0.17956051846025706
-0.024007910253557467,-0.07425419312290894,-0.06095302425121445,-0.05606632787254403,0.008239101846046627,0.019614179388410494,0.025571565667233457,-0.1850536522645648
-0.020135178485786796,-0.06483823990757975,-0.05857251594478078,-0.05208881138761732,0.015646588527109057,0.02259238735350473,0.03128591045707564,-0.18122717918817374
-0.017353313139577692,-0.0660612703062781,-0.05838069440666534,-0.0569899966643733,0.009716528569835825,0.016261308747022092,0.03677023778794996,-0.1716209297539145
-0.020392552544543044,-0.07145664468149532,-0.05787838619879194,-0.051659591730497896,0.006312285519352544,0.011072221077699496,0.02912318680189549,-0.17554498328006823
-0.019875944412367622,-0.07627216195865501,-0.05551107765290466,-0.04991574824026698,0.007125139855919087,0.022600725954778925,0.031076928394382666,-0.17821663394043671
-0.02421825078003236,-0.06548026259537497,-0.05431131135731751,-0.05387627429550954,0.01324528200059384,0.021103386749009658,0.026672020870153672,-0.16931652005433395
-0.01786666283736965,-0.07032722083224496,-0.055790632643777364,-0.054976673976275744,0.008430546206753067,0.01612775194761483,0.028882706423168092,-0.1781925275470123
-0.020820581526430296,-0.06728174177316933,-0.060734183464954725,-0.05628090788496561,0.01620565903822682,0.01641555044424303,0.033109476486715146,-0.18830344948351915
-0.016060949595397767,-0.07152306507381567,-0.05946013674635575,-0.05486470363344988,0.01322376399406064,0.01957062397481777,0.03676639006191539,-0.19244871146080683
-0.01725720888386308,-0.06726714973415679,-0.052184251730532795,-0.05268231067009243,0.012059031801757795,0.027844985109564672,0.039963480754681216,-0.172933431625202
-0.01854289930523596,-0.06666905995588969,-0.05788663508796961,-0.04946235943342902,0.008649615143622164,0.031123632941414018,0.037110919682019884,-0.17571134242373726
-0.021170433499679092,-0.05826088372038057,-0.058079954584701554,-0.05437264758213595,0.008607678496724882,0.01684433111768573,0.0374711953421791,-0.150509274963934
-0.017950516212838153,-0.07335887025309852,-0.05828158992389962,-0.058450689496710256,0.005129736830178567,0.021111430363909146,0.03256467368237781,-0.1584099521237114
-0.014318303456160341,-0.06763352188211769,-0.05820524591080684,-0.05720837665550191,0.006796827877428295,0.02514098204860865,0.0400432899437886,-0.15337677965394467
-0.020465781412049147,-0.061304400452493725,-0.058811702689597685,-0.05249955820890266,0.006928409658123154,0.022492631955857382,0.040881617202772794,-0.15978879185484268
-0.016191937295121694,-0.0634564430054486,-0.05790815599623161,-0.05422211831803886,0.0027961497752668784,0.021436652300451112,0.03708454287096338,-0.17702934391286573
-0.018990848683190092,-0.06995559119681444,-0.06033136398789785,-0.056481853317324755,-5.754741878309627E-4,0.022280286033320305,0.03997233844180822,-0.1913735687433347
-0.014075972243057414,-0.06628511817484146,-0.05670740041499196,-0.0529832704114762,0.005919568003261434,0.02295439984565043,0.04185599999119948,-0.16716747332040896
-0.021769391364052423,-0.06639519578066516,-0.05697788083273103,-0.054061513391620374,0.0010789820665614556,0.021658917551178068,0.04976730652107081,-0.17505619239383421
-0.016169114139500985,-0.06766242137851501,-0.054854216750062613,-0.05304133277101119,0.005430113878497219,0.023739333905312816,0.03669748410193292,-0.1792278673842707
-0.015954257257370794,-0.06263945273396267,-0.057142010083929246,-0.05255987268624607,0.0015529226809738803,0.02255728635174001,0.047792089419316314,-0.17238674755166955
-0.011567454253870162,-0.06077985730889774,-0.05513954008965457,-0.05204472271266244,0.0011725986894635632,0.024709209689118647,0.04247992276515579,-0.169397381211164
-0.01205237473009605,-0.06324679272363877,-0.05621921013796217,-0.05159188990141979,0.002414165901636293,0.0177353304422642,0.04013133783436277,-0.1666638094822717
-0.0128798684389056,-0.06667945892453393,-0.05761869544020014,-0.05158909034730515,-0.004811485651543177,0.02185886643729728,0.0383386034056465,-0.17685218371547579
-0.010005235942952863,-0.0594001011778279,-0.052113969898467796,-0.048015432578634824,0.0029193420021833005,0.019949400600215963,0.050589383996327036,-0.1659836360264355
-0.014580479322647666,-0.05834637732451518,-0.05774769987472614,-0.0549693049402216,0.0023936589672695027,0.025010431681169915,0.04410321585141396,-0.1680386399412818
-0.011397567375269596,-0.06067659071212046,-0.058094631985947755,-0.05334353097391288,-0.003669899571086351,0.01794977349653474,0.03711068152378875,-0.16285515777567997
-0.013349693355393676,-0.06069342630975241,-0.05710745259297198,-0.05592593919537334,-0.002873560620457476,0.018527670258615292,0.039091877518027916,-0.17381928067697883
-0.016538472460017148,-0.06218322748543846,-0.05727694503520581,-0.054361506707886344,-0.0052867839072052334,0.020984100407802114,0.04223369074493938,-0.1647461904556966
-0.01225694257978705,-0.06375025454927821,-0.059951536882138536,-0.05575671304985902,-0.007538506142360018,0.01703634335193264,0.0324623435236504,-0.17387424910082633
-0.014441032045037095,-0.06625854919580511,-0.06304692602631598,-0.05912395278885544,-0.005920484775496019,0.01784141745950072,0.027831269326120886,-0.17589488057438926
-0.018768357383482516,-0.06469866554768934,-0.06480024223701468,-0.06376532676469139,-0.005610952979081171,0.015286866316206271,0.030397966427083273,-0.19341840243937805
-0.012810160118749766,-0.06528326943064235,-0.06070392044081293,-0.06009065531109315,-0.003399995497860522,0.015497222521045902,0.031570196892353644,-0.18997544864375476
-0.016659318126494144,-0.0655613343077571,-0.06418782455543993,-0.06099888467908082,-0.009201496057326959,0.01290286439502067,0.025854560705169505,-0.1941991071480157
-0.020032186060682973,-0.07176061323215951,-0.06945397139911091,-0.06954540624880834,-0.01067879893676679,0.00862048817853226,0.025902400674245166,-0.189944443946239
-0.020275214503853622,-0.07907014275834202,-0.07392656193428146,-0.06872870706655254,-0.006199527511176477,0.007579081340339603,0.022478759636146855,-0.19290572225876607
-0.02273757774718967,-0.07009714333862833,-0.07381634577534793,-0.07132841880836042,-0.007644698982774234,0.007727552606660805,0.02150707766480274,-0.17504696750674303
-0.02764763356050377,-0.0734336404633522,-0.07548508901624289,-0.07958439039126824,-0.010275792886480797,0.004424698100878933,0.026266278882544777,-0.201166826079507
-0.025877875541630763,-0.07424399305228759,-0.07681309062856213,-0.07912318084600146,-0.009319750093407,0.008019787503665212,0.02173229844298553,-0.18911531341136345
-0.028569729911405436,-0.07851289738727271,-0.07757126606725046,-0.08408653187480666,-0.012806459530456168,0.002030260515949313,0.01742790873826624,-0.2001003046279265
-0.026694953382678785,-0.07850301120370906,-0.07612282319849188,-0.08049000463451976,-0.012223719353368754,6.564471517080026E-4,0.016150006587249254,-0.19107623495982073
-0.028398879256876026,-0.0838759226853137,-0.08545814323202476,-0.08501413031515186,-0.012012731253147191,-0.002431466057573104,0.007607404850635073,-0.18852424380614735
-0.03412221318759226,-0.08188958744413734,-0.08502513617973534,-0.08808739065162634,-0.01682377208974034,-0.007522090732708363,0.006331869157271086,-0.1959261027688201
-0.03420226810589299,-0.08655588975916031,-0.092602585323267,-0.09479537899055061,-0.015174738043443249,-0.004648195814074004,0.0061431803203193065,-0.20731414875366871
-0.031702294766152106,-0.08752447298994104,-0.08775703183642124,-0.09025992196488283,-0.005242937711032008,-0.003075654123138756,0.008791251129054383,-0.189307395040064
-0.03291121081240209,-0.0888556521277104,-0.09275124867937824,-0.09635837870360463,-0.01759469426699497,-0.0016280913770415348,0.007611471091900078,-0.20078162494635585
-0.03620836919110803,-0.09451977360286425,-0.09541518276482153,-0.09929147841387687,-0.018740286472604308,-0.007228288813917763,0.006286360839937246,-0.20629766290090976
-0.03604525724849333,-0.0963129963876892,-0.09585126191968206,-0.10273696957253234,-0.016056412672286198,-0.010940409025211635,0.009320335608221694,-0.20149595224598485
-0.033880492087463625,-0.0911207789222872,-0.09322566837119373,-0.09877185755079422,-0.01678672465633911,-0.0013129059774080038,0.017413272853189738,-0.19794336980741284
-0.02927566918725479,-0.09097760675397606,-0.09233788779900207,-0.10006395806940749,-0.014291175594867244,-0.005024552652350219,0.009812947733721891,-0.2010415152303693
-0.027678851599107643,-0.09285109861695572,-0.09357774934715489,-0.10090053367026884,-0.015667469891149016,-0.004580797189485559,0.007709882329215611,-0.19650843933070067
-0.029751531159919242,-0.0923292494449277,-0.09559163320731631,-0.10151102177082026,-0.016286707865895592,-9.132898625065295E-4,0.007873832431131269,-0.21291530021738317
-0.02968743790255926,-0.08811381070962865,-0.09275188356697966,-0.09874269831181717,-0.019779955870516272,-0.00624988226467128,0.00976954671530891,-0.2015545084632816
-0.02792053693137719,-0.08565973115452509,-0.09219742418364901,-0.09654022455804698,-0.020130966028299432,-0.002535882155437847,0.008950122620695467,-0.1930086223913372
-0.030781873372082953,-0.08662640695727405,-0.0919497056619331,-0.09843918964124644,-0.016407352148553333,-0.00471517989316366,0.006832036835387794,-0.20536455743016208
-0.03194664487738558,-0.093388278834444,-0.09138606405092481,-0.10188254360375099,-0.016239606119007613,-0.004511356815922207,0.00910485436990026,-0.20726004228841707
-0.030134673163388664,-0.09866829110536549,-0.0929059394950148,-0.09709617606293465,-0.0177237404508764,-0.009354515365615258,0.01003404998771611,-0.2061702914403579
-0.02868513992657197,-0.08744420642420961,-0.09118370140200671,-0.09711078948793131,-0.013935150247691193,-0.0032503199187763477,0.008317317286995128,-0.19045616604634044
-0.03476357739197157,-0.08557571774793725,-0.09367647015445288,-0.09864394692833378,-0.015172136888320429,-0.004781169505191589,0.00754717849925651,-0.20290231036168543
-0.03303065449760009,-0.09566356974611498,-0.09049409523754073,-0.09962494074243311,-0.022887363204080705,-0.002902913037347671,0.011740565275454416,-0.19568890128401728
-0.02830165028474348,-0.09056719344413139,-0.08976948490921684,-0.09746426902772129,-0.019394021362625885,-0.009630476005689325,0.005957615228268477,-0.2210347967165239
-0.029926531700091928,-0.0944626485274899,-0.0899218329423859,-0.09460673002103906,-0.019811251284556988,-0.004614091271496154,0.00879849320098874,-0.19899334535590418
-0.03432776299315453,-0.09402254861205876,-0.09298066796007866,-0.09727267523392483,-0.018855113387117692,-9.436462913439344E-4,0.011532406180600212,-0.21212943037483753
-0.03373148155277909,-0.09335930823868235,-0.09210653061985043,-0.09837980829006446,-0.022730000259047346,-0.009919074072766473,0.00772706158789321,-0.22230597780530473
-0.0328333671057912,-0.09657130855380404,-0.08990070511505263,-0.09406531205477392,-0.023259131672132376,-0.009874033203309329,0.006538545908202782,-0.20717905812298623
-0.0354891860678738,-0.09270191547749865,-0.0872843383076402,-0.08795673151501901,-0.01975129304084187,-0.0029915919145223394,0.012725168198492993,-0.2075735210259978
-0.029530802462755117,-0.08300904662908885,-0.08248501784048637,-0.08844222277097054,-0.016959579625221457,-0.0018299306972842917,0.012582823108420892,-0.19566863297782147
-0.030713713196395057,-0.0894656634192479,-0.08563056532450432,-0.08350986564889522,-0.016743538974341995,0.002316266243612206,0.013485879510850007,-0.1924142336748133
-0.03381102515751795,-0.0895176835552688,-0.0831403668658328,-0.08184346429002069,-0.012919490951610737,0.0016577713195631138,0.006345534210640348,-0.1927179309010525
-0.02732795682151456,-0.09247687280758078,-0.08448192802200745,-0.09228752921839702,-0.01964329009110015,0.004745851848417009,0.02013655032076195,-0.18940375428474543
-0.02996729994092472,-0.082129232966742,-0.07852379355973799,-0.0894668096149707,-0.023259807296469554,2.6816828150606634E-4,0.015646066607725672,-0.17136139143858825
-0.024571415297481258,-0.07977032678788193,-0.0814987239733734,-0.0835503849227901,-0.014851036515178231,0.0029806300353226183,0.019332630093954084,-0.19100221321789188
-0.018458062942871195,-0.08043023660311192,-0.07718026012796174,-0.07960217128413198,-0.010929290702304676,5.052935199209746E-4,0.014586122752375773,-0.19783184964013267
-0.016474399128887682,-0.08076247004109895,-0.07515118951872184,-0.07980843407848541,-0.014236347356762382,0.00374734510213844,0.015439054370396266,-0.17983759325832668
-0.006600586909347697,-0.07633612209747546,-0.06593294837006701,-0.07034430496662912,-0.00917091800236676,0.005101846942925173,0.017602860873361104,-0.18351769699400566
-0.014002585738523423,-0.06710402768402814,-0.06622053399202742,-0.06588662748422133,-0.011088929746481815,0.004201264881421717,0.01274447904393712,-0.19467063552954678
-0.015121257607422603,-0.07874834131418013,-0.0654653095291005,-0.07206732270610758,-0.011725190108479376,0.00458070904948856,0.006870085233692375,-0.20626283992712438
-0.011975183992575942,-0.07685520060884966,-0.06627657171141577,-0.07349411099702664,-0.0015432470221680263,0.009470474515628716,0.02015767012355504,-0.19614798942830614
-0.013446431558572391,-0.0787138792171428,-0.06725669129559048,-0.06920410591868677,-0.005186770368431163,0.00784454466027256,0.00644563385362686,-0.1943230764713439
-0.01621820384338631,-0.07458824772505264,-0.06540011817986491,-0.0716315919874431,-0.009487260480946436,0.007235201268796631,0.01569203090773246,-0.18461774721386257
-0.012900015758890755,-0.06942643650070249,-0.065520235398757,-0.07203377380784659,-0.005939131811394278,0.003977154418078462,0.010279903885227913,-0.19004861573599596
-0.009245525481838962,-0.06219881042922886,-0.05962732231431015,-0.06683241321816756,-0.004585413742453501,0.007805988703138027,0.01613289988040841,-0.17911037281596812
-0.013928173157743846,-0.058511433236603246,-0.06329068081995244,-0.0673289244507338,-4.852012164632299E-4,0.005789701591420477,0.012929942498906636,-0.1788941799633707
-0.016244650449100905,-0.06680454501988947,-0.06375366944604033,-0.07064957049223616,-0.003024107925026601,0.008591669135669298,0.01028900495020295,-0.17476802113685433
-0.020537835577394352,-0.0689184291796753,-0.06339213823086629,-0.06706678161498829,-0.004717868125163634,0.005465557763668067,0.007506724319729357,-0.1791423513381326
-0.021516574926565262,-0.06959659740064615,-0.06680544448758126,-0.068282452719604,0.0021149611147068485,0.010999481267609858,0.0166739452982465,-0.17821397235866754
-0.02754622088940319,-0.06729513293031113,-0.06704009156630406,-0.06854629202415509,0.00407292935436103,0.010185101126742603,0.007179271651887322,-0.16985041682561508
-0.0264270369346897,-0.07404307484846702,-0.07098285892818289,-0.0694015220550338,0.004843027767055347,0.006394568467251034,0.012697173479130212,-0.1774086159061516
-0.029051334754554712,-0.07153910662903332,-0.06950332719348737,-0.0679534538607621,0.005236836302659093,0.01826378402356401,0.01583122007143196,-0.17269811503782173
-0.029660888441409967,-0.0716826200011615,-0.07116778386639137,-0.08121267080187837,0.005044784062703361,0.010845655215887177,0.008790199757616803,-0.17322405791685447
-0.029833457356329394,-0.07702864428947317,-0.07446417151387826,-0.07690128884262426,0.012283783861274796,0.002905892577440799,0.008493283085023366,-0.16568806923993087
-0.03244870416633581,-0.08192880028952339,-0.07692519083229239,-0.08309144706674405,0.009921377720525246,0.010670846026768878,0.01211736853225888,-0.1792957620967364
-0.03294449347582141,-0.07619805120332908,-0.07687391707581005,-0.0791235037900955,0.0052857120701111015,0.012501629425139434,0.01576482929240708,-0.16767251852140838
-0.03962111000767641,-0.0832752552211855,-0.07881928992914711,-0.08157216366483257,0.009327523826061413,0.013059519102889258,0.01767825634751103,-0.1634432113978465
-0.03962278718679226,-0.08640647558571818,-0.08156893868165972,-0.08259151352864871,0.014727088885358746,0.012431413257317976,0.01495019775834151,-0.16586742692439255
-0.04180843230441384,-0.09200903277793043,-0.0854890149010414,-0.08611522064344466,0.01785750487793293,0.012466730339881696,0.02050657136912857,-0.1697121744219496
-0.04323400190363067,-0.08563936618208834,-0.08330972947585473,-0.08388238931060056,0.01432710549438467,0.01981594510101069,0.023776821237751558,-0.15316003710988557
-0.038881294755814505,-0.09114836146255016,-0.08458032928629591,-0.08035237470632049,0.011496565897297886,0.021683045658531633,0.01750374702039952,-0.1700625405453942
-0.04259474131836847,-0.09199264979489172,-0.08474638144722713,-0.08357060185162543,0.01712485440632988,0.015051856062479694,0.018432652906664317,-0.15931899262566682
-0.04159516087327017,-0.09526798331027182,-0.08650381365502685,-0.08504640270926504,0.016368118872895687,0.013555084229668784,0.018267089112009836,-0.16489686617709404
-0.042575245300946044,-0.09973297617646974,-0.08999404501909022,-0.0911984554448646,0.00856176184191051,0.014084037044029793,0.025469335566358053,-0.18248652891528372
-0.044180000205821815,-0.09705142765055033,-0.09226598551953782,-0.08955174963304505,0.011995734897224638,0.01430358073612677,0.016924672833377775,-0.18097025887493465
-0.04351027748105911,-0.10223194033574479,-0.08880767119194756,-0.08811458507002273,0.00899372850684156,0.010044396891720908,0.03167645742956859,-0.19354623587216968
-0.04504188288525398,-0.10279423811596651,-0.08770352871443471,-0.09096930098461771,0.01366433516005639,0.009801953845423985,0.02659452434653449,-0.18168508694492644
-0.04272136814365065,-0.09183620253976452,-0.09168469126288101,-0.09387940687331646,0.013327024102873154,0.01840188190398056,0.02354599929549567,-0.18742144155690146
-0.04433622961229238,-0.09802935629398905,-0.08869401536728387,-0.09005573814784038,0.0040885160709510085,0.012252837656374197,0.02087202202023745,-0.19361146002535057
-0.04700106974705514,-0.09939918096448294,-0.09162787768288971,-0.08447580437137962,0.0022943774996797813,0.017017021182252928,0.02075019319806577,-0.18181972297879054
-0.04362688143580157,-0.09466588120612919,-0.0868824458490062,-0.08541026982616515,0.012316739635323067,0.010061515197355604,0.025931539338497536,-0.18242394042926977
-0.04259742808835269,-0.08238485178953923,-0.08259640448555852,-0.08524527147604642,0.012025946900058922,0.01379928265749322,0.030740136153597268,-0.1691350642962399
-0.04064501393434603,-0.08972519918172649,-0.08140582879865836,-0.0759106672622179,0.009718638865701606,0.016371240540698623,0.022448806796956943,-0.18559151461380666
-0.041806350025607876,-0.09098876660563955,-0.08274583470791155,-0.07654680485506882,0.015128439093734078,0.015624205196397671,0.026490857166188684,-0.18847512406755884
-0.03622420093073473,-0.08317896220688079,-0.08016913116290174,-0.07765731411872968,0.015939783767809104,0.019636396206410202,0.029881143860135597,-0.17639561420260783
-0.041996153241774366,-0.08286272719841642,-0.08239889088944484,-0.08191103302519234,0.012163916988689986,0.013251012100644124,0.02830794524255254,-0.18374945199079828
-0.04184825766306034,-0.09367583316211019,-0.08523303054475914,-0.08103539931288145,0.012360796234174819,0.016821810574135867,0.024757917746561307,-0.1843857271558251
-0.04050976886057642,-0.08706357833451173,-0.07720998020695546,-0.07495399259841726,0.014051520503199895,0.012752631351579745,0.030411197798039184,-0.17375107070625168
-0.03889296259879874,-0.0850873264024265,-0.07925539446258208,-0.07417272784513498,0.014163443609454181,0.01871186320504276,0.02295847242699806,-0.18214769534066913
-0.0376568830977274,-0.08523452595277643,-0.08130217627482905,-0.076979979689117,0.01830602853048276,0.014732283430612734,0.02757001146676076,-0.17624811780502522
-0.03204390646141209,-0.09250226898173299,-0.0822088922620156,-0.08376090530738203,0.010623419281530962,0.010990282963546281,0.022460043401697924,-0.21425690584975898
-0.027479382903563995,-0.08550872590515886,-0.07692471154327546,-0.07198553448170521,0.016160283870529257,0.014671736942722453,0.024161817533248316,-0.20129207595374835
-0.029361902704955603,-0.07542448887304237,-0.07744178218719623,-0.07638106942840703,0.017690543823895382,0.016077551321627515,0.026938593134886876,-0.212619203233192
-0.02667644119809125,-0.07817068620282691,-0.07514161934827825,-0.06649745316453182,0.017426171853777442,0.016364836599724594,0.02437747413470244,-0.21148352140003143
-0.0270636550223589,-0.07694480169364112,-0.06761274965557384,-0.064338074797709,0.020114185090090685,0.01473006551303018,0.025145677747141517,-0.19816313046742115
-0.02618961723382439,-0.06830166330283644,-0.06679450049512281,-0.06744281005556811,0.024428468909031314,0.021489446132762734,0.029211834216589606,-0.17449804152059586
-0.032013959391886095,-0.06689561863852037,-0.06951820174009939,-0.069171239462896,0.0155028231872168,0.02130964800745313,0.025945667281405245,-0.17329377856797004
-0.0315358044579804,-0.07535336654785853,-0.0688571499965728,-0.072401491967547,0.01316246906283168,0.01766505299365438,0.027414703873110128,-0.1703697576919115
-0.0331532554167611,-0.07147490807943611,-0.07252733638805564,-0.06627011066586809,0.018770635772811625,0.02335551047965872,0.03602027775160876,-0.17384717372231942
-0.032970877917472996,-0.06839902336311635,-0.07311709805686768,-0.0742530451732727,0.021701194805300673,0.02231102876137297,0.034762021456808165,-0.1619041318936417
-0.03545494773532966,-0.07944619352938244,-0.07543023506263047,-0.07641147764835708,0.022122770399207497,0.016189381204238074,0.038298024323095495,-0.17214152895563536
-0.03767992760428673,-0.08249364401892936,-0.07755750265875402,-0.07940042761155384,0.01861403456867923,0.022682323292875915,0.03273507606097652,-0.1909143094980959
-0.032010945689136316,-0.07353829694627939,-0.0798686284255758,-0.07414940004289759,0.026959180226015633,0.029287532543793394,0.03765143579473725,-0.16561053875980822
-0.03211653602188964,-0.07514343881428068,-0.07842195165130382,-0.07848246662812931,0.020962553168158937,0.02658400074506634,0.03587450931996068,-0.168414957928809
-0.034548216933488494,-0.07817664336334254,-0.08397825238287561,-0.08032936206572854,0.025422598859478132,0.02554646970235862,0.030848804387321516,-0.17324097255260454
-0.04100368921245025,-0.08580544183868605,-0.08549956224254024,-0.08087011414887219,0.024806532252742076,0.026410849586798832,0.03289924678194444,-0.16666438252572371
-0.035889479135575865,-0.08387445285284519,-0.08613025047482337,-0.08489970718370547,0.023881053232525862,0.02498056833582043,0.03567894763657745,-0.17769945985623695
-0.03307873108527009,-0.08438580038500296,-0.08733585831244962,-0.08773149279535646,0.021885194594678414,0.0243407596171901,0.03368922280316608,-0.18135870330135953
-0.036694202447344906,-0.08789252761212264,-0.09289550535775351,-0.09661060847810597,0.02168030830033415,0.021891478479848486,0.03724406028869559,-0.1918492183558697
-0.035648315599634835,-0.09272295998444446,-0.09338883412227494,-0.09751874687307441,0.021668975688174448,0.022503058505458327,0.03791770438648703,-0.17632628227605712
-0.04369080322913367,-0.08691772699171317,-0.09651693972783076,-0.10342829401839577,0.02061434299303152,0.020293694861243546,0.035905360470163586,-0.1834259815839913
-0.04088481874812707,-0.09043532739420003,-0.096229800542028,-0.10124346286873927,0.01569579726612331,0.019986706374572557,0.03102812951599727,-0.17876483514378366
-0.046156006215508145,-0.09625375487731369,-0.09505168867268808,-0.09871438560065192,0.01991834893684413,0.019853785964546587,0.02514443951154852,-0.18842901548041555
-0.04533483080976132,-0.08984097720347214,-0.08982745795148595,-0.09369360510937803,0.026618753074300158,0.019070081362866514,0.030711074475364503,-0.161454680783742
-0.04731688943213404,-0.08849180861879313,-0.09485382193979816,-0.09737628234878613,0.013183702681581852,0.021016220845037254,0.02606424911166181,-0.17383147399099713
-0.0462754898976041,-0.09975281029278368,-0.09656111968793546,-0.1012305830640512,0.02058382970864502,0.01605533256587503,0.021646155024348877,-0.15733615595434325
-0.04888995351169064,-0.10573271149555365,-0.0998315238414005,-0.10052208763599482,0.020340236314060463,0.017479525419377303,0.027020518156030918,-0.1740859541486622
-0.04599566161419299,-0.0909186835979793,-0.10065406827578859,-0.10367778215256247,0.021482392559566535,0.020878042945498807,0.02350383993692676,-0.15850231922145444
-0.05672711974929439,-0.10290208447308039,-0.10398908905184517,-0.10539085369443423,0.02350737106331382,0.016607804994982694,0.015754491853737302,-0.1631304516578648
-0.05261120844589311,-0.10709617021293166,-0.10477393693370202,-0.1088418362492548,0.018415005671163692,0.018423483076178963,0.024489057248864753,-0.16938613373221506
-0.05576936432161536,-0.10741564282883938,-0.10353578113874105,-0.1075754335699149,0.023956128868289784,0.013334100430596388,0.029279719846117883,-0.1843734009160045
-0.0526143507845226,-0.10743288337138661,-0.10164297371998235,-0.10869963982286746,0.0203156377734957,0.02195120454073584,0.02255176812190704,-0.19719384996338862
-0.0572385465104428,-0.11409450529716629,-0.10853655457044543,-0.11200472030469653,0.01403404274023475,0.007364933915471042,0.018969691226930794,-0.207228815330252
-0.05613449414866805,-0.11674084628060223,-0.108212947878109,-0.11033078876562083,0.017253610711004844,0.00949133436688995,0.020720225750187244,-0.22184052780157046
-0.05399850652993642,-0.11311875415744099,-0.11111840554078997,-0.11261653623622289,0.010568892221931261,0.014107662754399902,0.017438674498615178,-0.20938260783631377
-0.05652182133484253,-0.11935671460468805,-0.11118518060249848,-0.11735116430621308,0.010236555413163406,0.006865450707763153,0.013559106717838791,-0.20803301012197065
-0.06136939781012058,-0.11989537005338566,-0.11276286182837024,-0.1168852082656614,0.00541240151377882,0.0065490335293177295,0.006273187208493497,-0.21828249215095405
-0.0588100840923931,-0.11102370869537198,-0.11354353112590497,-0.11248425230492112,0.020062038213238324,0.006346586647799235,0.009272768440997583,-0.20376932822067015
-0.0625678115691851,-0.11095237111383727,-0.1161016540290506,-0.11605398608754106,0.016560598639126074,0.008295025370394421,0.009500336401368633,-0.1998078691518939
-0.06127702454620884,-0.11702887147710779,-0.11292316233203235,-0.1171498003977128,0.00583477012804122,0.0010556808434953968,0.007197993563508886,-0.20113373657041603
-0.06133438381175661,-0.12139061301190386,-0.11374833910441733,-0.1198549946341641,0.01037983553113624,0.004220684597991778,0.005989917984353605,-0.21539941875894963
-0.056781485082009864,-0.11195491685922064,-0.11865162422184312,-0.123139597302709,0.014391321821815531,0.0028314403620223532,-6.513294955156387E-4,-0.2072012054902511
-0.06067023995264532,-0.11423120928036579,-0.11577681088676992,-0.12788960346492098,0.0036215749412403836,-0.002213568119366514,-0.00400699141967423,-0.19389091914236709
-0.0627722611661082,-0.12374428276091076,-0.12180065210462467,-0.12965092618182295,0.007520939054697337,3.017672983959807E-4,-0.003510285657307259,-0.2169602179607474
-0.06205317770084265,-0.1142540135554532,-0.12033488933636406,-0.12980768954154856,0.012622048467038419,-0.009979261115437984,-2.3266914889000107E-4,-0.20672772782198348
-0.06603995053545486,-0.11445467679216605,-0.12317730371513962,-0.13332459981010203,0.005437880033349945,-0.0032521718404075846,-0.005666321330814004,-0.19529852923754912
-0.05906311865115257,-0.11562577441052928,-0.12292380233742889,-0.13572511940661672,0.006076282560302466,-0.005388694524844569,-0.008109160559782398,-0.20198380789121412
-0.05948811539272169,-0.11156660353871195,-0.12278481193017461,-0.1359697267790077,0.00406901253485239,-0.003011423313987367,-0.012363106825890206,-0.19840308044853822
-0.05980687211626657,-0.11082318508487352,-0.12477320271523616,-0.1374061292033435,0.007316072573164363,-0.007345149877501488,-0.005225419661428012,-0.1772340356247322
-0.06432209445962245,-0.1142490099864793,-0.1302510275431259,-0.13706951408511545,0.00978200274077625,-0.00785868856344023,-0.009538060743979488,-0.17354483405203525
-0.0648986930168307,-0.12413997463719455,-0.13554120040966058,-0.15563053216705075,0.007089880854541039,-0.0029670609622362318,-0.006224357113465621,-0.1615656274410075
-0.06415596571256221,-0.11279284529755457,-0.13218379271169148,-0.14203629409065205,0.010183512576380319,-0.0033693744076936714,-0.0058073244923331465,-0.15095847850061694
-0.06317495995270962,-0.12102962590592843,-0.13468025054929247,-0.14805859409374234,0.009537335181499407,-0.005356056179494617,-0.004536929359692137,-0.14479668364216391
-0.05675497123331909,-0.11175850682571821,-0.12990474038169747,-0.14725200867044244,0.007736550252160909,-0.011256455036227069,-0.007898219966937691,-0.16346236692857455
-0.06221179822725594,-0.12035687322815095,-0.12979100514044925,-0.14355626867023535,0.0026621523911620156,-0.013134323308239795,-0.01607631214197162,-0.16374887807268299
-0.06287899312245918,-0.1106041506294074,-0.1286647649556215,-0.13839201202104504,-7.93968576743725E-4,-0.01101104572536283,-0.015118380098611927,-0.15670537676525384
-0.06919893328160212,-0.11714071326860762,-0.13497590368933618,-0.15064011709665875,9.070876320701395E-4,-0.018807210628094897,-0.024519568851892746,-0.17084979645145112
-0.06662842501616816,-0.12744588842040688,-0.14041540589558793,-0.1581638748068135,-0.009481881153341497,-0.02730256397929811,-0.027445602436677166,-0.1891937922943312
-0.07497684042477963,-0.12630647247613966,-0.14079563753264268,-0.15309131642933382,-0.011363652047612227,-0.025843842220391128,-0.030264208335801405,-0.20295459288009784
-0.07610095510677481,-0.12698776487245075,-0.14329725717279077,-0.15689732888665314,-0.012223007478448407,-0.029162270800975828,-0.024846924349425342,-0.19274970609038497
-0.08458381422932683,-0.12519294405957807,-0.14453423443070743,-0.15986746251913816,-0.017051726245335245,-0.02982858634341203,-0.040062838696059984,-0.2168984284926186
-0.08113890294999028,-0.13039182245667852,-0.1495599319854865,-0.16398102711243442,-0.021331118673402177,-0.036358599070330906,-0.03207522105488031,-0.2155411444413225
-0.08473944479781974,-0.13404218498514184,-0.1544296450273626,-0.1688846235569505,-0.0268747999426533,-0.03847562975003572,-0.03806154162275752,-0.22569837645560617
-0.08186250516419032,-0.12662223883332693,-0.1514016339370807,-0.16328033368383482,-0.025181679030285366,-0.03272741871384909,-0.02850700980849466,-0.22198170920584598
-0.07981833816559146,-0.12378183655212843,-0.14838331222162496,-0.16436330625595763,-0.019394158383307214,-0.03948302695828853,-0.03308384734669438,-0.2069070677222842
-0.08109265265332746,-0.12514031324738997,-0.14488222616076724,-0.15839514867292126,-0.023264240548210587,-0.039136623550635866,-0.042017430432253,-0.21678632804876596
-0.08189933206996337,-0.12927461122929984,-0.14394307500099096,-0.15788626012270873,-0.028437747585097265,-0.03938255073312572,-0.04258796347002449,-0.23732822763953174
-0.07730380521291347,-0.11962824725001801,-0.13731860301931617,-0.14763566768498315,-0.029022402583659075,-0.036528479309019535,-0.03325643600782352,-0.2198657437888012
-0.07958974472657283,-0.11977604794689947,-0.14007559965361402,-0.15075520213958638,-0.02338359397670747,-0.04098999299814157,-0.041776799411987246,-0.22453152939307566
-0.08512627540063646,-0.1332965532390817,-0.1448302772815632,-0.15391954319718032,-0.03174857889381624,-0.04292996061779746,-0.04443883038518744,-0.22469487426993584
-0.0876847652199641,-0.13085451728974454,-0.14300905324519347,-0.1514148541096243,-0.036003774580976415,-0.04193977420568592,-0.051876819796227894,-0.2180105839598757
-0.08490187533705158,-0.12463046620473273,-0.1419867274384758,-0.14945742855955513,-0.034059952102395916,-0.039878899369994746,-0.03828157346373171,-0.23728339902402035
-0.0859450812211781,-0.12614289034527645,-0.13896960907692593,-0.1476609351871781,-0.039068665637244884,-0.036857711201825225,-0.04031938216568804,-0.22396102796734788
-0.08539966999083273,-0.12892722702616743,-0.1360337185245277,-0.14020983398879375,-0.03258361395477894,-0.03750984129237531,-0.04567953025342163,-0.2283576475088659
-0.07865251428297203,-0.12512890065778715,-0.1349862201978795,-0.13847499180191344,-0.03707653055138392,-0.04440183929613545,-0.050257009825392225,-0.22743549695914475
-0.08293887074032141,-0.11765111784240956,-0.12904851846644771,-0.13417433521426028,-0.035598151134576164,-0.03777017100615742,-0.036862870236981406,-0.21015282480447794
