0.09756341863394785,0.13357128189130135,0.08054309048209858,0.04242895921086756,0.197317459555027,0.28010580324183487,0.34482917541147695,1.1531991607834347
0.13737143554868922,0.14995949159999689,0.1284704762079723,0.12115893227036162,0.18284617310289517,0.30480754795983045,0.3687534381717188,1.2670968230956596
0.16259573652215142,0.15627580916930173,0.1224633129194783,0.09888951316875406,0.18896355094751083,0.2723083992436482,0.32376739613292965,1.3560300874647762
0.12918270681510535,0.16589759597671788,0.11052783111239355,0.04728776189070305,0.17268352715891636,0.24984578047646855,0.2788989679316917,1.3465040380011344
0.1469697019183739,0.17779109484723957,0.11103911935399668,0.05359141750392276,0.1874699620372269,0.26623321000795314,0.31802938306243866,1.382413820945366
0.1756674465304634,0.1828618445679284,0.15187922041418253,0.08840282723205452,0.2616284092918235,0.33543661758155136,0.40961773371728105,1.458267581230494
0.1724802257674394,0.16666094652923633,0.16131853923929648,0.09443976354158559,0.2607596815903068,0.3382042559629292,0.38558566837242264,1.4689354928728537
0.1676842268392413,0.16837784805537498,0.14046818933344654,0.08017575879313542,0.22503777274170603,0.32354066660207503,0.36618210974944626,1.4456885544963423
0.1640194542386245,0.1662038212405547,0.12418129704370481,0.06468183906494857,0.21521854253695555,0.28387729864118305,0.3085692759013049,1.4006362632177607
0.19016030336246653,0.16769657461425125,0.173236215768473,0.11760451597138818,0.28370380170008913,0.3802877715924602,0.43121467164146854,1.3871398482384485
0.21785185207878638,0.17484723313167727,0.1811365736667784,0.12821997356114773,0.28905239092761503,0.38128790230223525,0.4289379462495212,1.4536228745532884
0.20904677905607907,0.16965966412087788,0.18210302618486535,0.11399883398798526,0.25165442337161564,0.3608232811224226,0.42081019938547204,1.4227844514545855
0.20884973066471005,0.1870631623421457,0.16265015396347837,0.08838336295194164,0.23501782329368753,0.32677145465172464,0.3715753951857898,1.344940542885596
0.198082622318079,0.1778466553417038,0.1763203679524543,0.09861457247497663,0.25048903810884704,0.3525315411126263,0.40661117587115997,1.4253180481539733
0.23110784848303323,0.181387492404235,0.20778899106290288,0.1591338345036914,0.3091050033127577,0.4167679467060651,0.47937558807913166,1.4660471575452976
0.21637293800492768,0.17067981382241898,0.21367646750714533,0.15222655405376756,0.29057113613662927,0.3855535457325812,0.4705486401070358,1.4980131646649681
0.22115507538770668,0.1790567184200637,0.19533009549745117,0.13165984050979748,0.2520073466427454,0.3593741636269112,0.43097689969022995,1.4276804012526605
0.20498978198607087,0.17760942913934716,0.17102248714219398,0.09508106614982681,0.20677383052862985,0.3260155057212076,0.3989666946335695,1.402227075131964
0.23263716411894436,0.16996694606203913,0.21776921027862925,0.14631559061459984,0.2796666702371479,0.3996910182918443,0.4843052401811895,1.402460787652069
0.2318866657667509,0.1678348125380921,0.21950977599975124,0.16507939619483086,0.26652384227352366,0.4235224165604895,0.4833355509923037,1.4060883910272497
0.23299362983498664,0.16903109764567473,0.21750704902867618,0.1419645186903719,0.2554082000434025,0.37576024683299797,0.47268128044653496,1.3859976889040098
0.22041209010605492,0.16085936239907164,0.20133115985284442,0.11441021528623345,0.2107065750752126,0.3264907731360651,0.4083370613469296,1.3705013765650238
0.22590160713739643,0.1710730445406468,0.2049242387566712,0.11073812701650519,0.23664817821877385,0.350747381222271,0.43467277656214437,1.3429725494789222
0.23875454650050584,0.16452114615716706,0.2224859594342751,0.1584189659864789,0.26797604361493405,0.4088046136835614,0.4840237885205249,1.3897445760230869
0.24358289983378947,0.16963869935333328,0.2139616146142338,0.15304401262381725,0.24470378378420954,0.3768319246731184,0.4556866037891208,1.4170361536140503
0.24494774952637466,0.17112169690546922,0.2159980774822329,0.15721705215534307,0.2332402152499386,0.33997098013325,0.40697081656468964,1.362899499789795
0.2389543572272663,0.18604752987027892,0.20312013149744362,0.12791223101992594,0.19818290430604568,0.27612449171684617,0.3288534678189541,1.2596085852633225
0.2567998648942196,0.1896010002335052,0.2495055881899793,0.18298216141717583,0.2525794971687469,0.34994345099968904,0.41815813438123806,1.2891897843888647
0.23559126188299162,0.1934278062090537,0.22794465366562638,0.1676940753299392,0.2608251811328509,0.3362656886050665,0.4052978997412828,1.2698751393058438
0.21013681418603597,0.2109087304699847,0.20215993406297297,0.14973066597473622,0.20394327477128596,0.3130214490504233,0.35983940331588765,1.2691822860155952
0.18230046521875673,0.21740396839568443,0.17686299248351708,0.10522905366510496,0.2064141220506912,0.25278618190826646,0.30366542750434494,1.190259738581484
0.18605683638802148,0.19681320823520945,0.1748771556546597,0.13500734018068825,0.22024577704730988,0.29027745071013333,0.3361254118595594,1.1399075877123972
0.1767554229298524,0.22270095546561247,0.18015593848691902,0.1448572412000494,0.23983747848829884,0.3187990093475283,0.35153006217751576,1.1661672685802373
0.17438431569589624,0.20355336709262475,0.16827477637434948,0.12283084856451015,0.24484268519763783,0.2997673584750114,0.34817616856799594,1.0802181287171178
0.1422527735362736,0.21354892870267442,0.1379932925183764,0.08543172624711931,0.19277950353100126,0.250189624601913,0.296067378260257,1.070100504988288
0.12640288946926204,0.22828424311380838,0.1373472052086832,0.08873738285101104,0.22916036275965485,0.2852931970875595,0.302504946262618,1.1408279869305464
0.131995810085517,0.2385457424494774,0.14576770401681688,0.10047778590203711,0.2672735144039423,0.3103496737501891,0.3666871896688482,1.2466966334138634
0.10803936356135513,0.2682867779991249,0.13506776333655163,0.07413941866800088,0.2623559626255901,0.28936746576572336,0.33459563425492644,1.359139176386224
0.08809227287944237,0.25256693167595423,0.09900908930432069,0.02487269266622567,0.2470457874484195,0.24730426997387012,0.2866780227260774,1.2844117529900048
0.07363920264179075,0.23860874206198052,0.0790111133001946,0.023672141734644787,0.20369032542893473,0.2299320683438502,0.2708011704005269,1.3054931376210208
0.10908369612288356,0.19551810589105634,0.11109595388588113,0.06631431690011248,0.23462223950551347,0.29273820107608084,0.3406151541324851,1.3201570244887597
0.1085559070420033,0.18303445920120975,0.1007345863462072,0.04071570183298917,0.21751048490474817,0.2533659516410523,0.31698040060563265,1.3018519516766922
0.09944699017288589,0.18187091709241135,0.08308176930935905,0.03142216912899915,0.1648925634727603,0.23580773084681222,0.2863346852355632,1.3223655141783073
0.07663122545290298,0.1489965621060843,0.06359693874740056,-0.012389088434821236,0.1471244949754288,0.1766209239379077,0.2150561951566753,1.2716853655472256
0.11709753132830429,0.15196568009336633,0.11516949852240334,0.05733111298408349,0.19449708402544838,0.23234673851241655,0.2863304562512807,1.3459552833216346
0.18370155878784108,0.09257771524699593,0.20818866241638134,0.2168143282178402,0.17622100929973986,0.22700699146318723,0.2538525525436867,1.3115155577467283
0.16555864768162817,0.15682130060865082,0.19978315957942805,0.20111083315293807,0.13221596912593303,0.1420273853085501,0.16627490999361252,1.1296222303261685
0.10536104751183197,0.21645645527839574,0.12423703563184313,0.11816421003402422,0.08145271130053537,0.0868446763568063,0.07114385927353224,0.9422522621036005
0.07922878828825987,0.23860854408400387,0.104357313856213,0.07035569320182875,0.08124455642031925,0.054047622030052304,0.0429316518142846,0.8876868436155908
0.11699193668681164,0.2558133105760326,0.14303762307119505,0.13170016429093592,0.12961990432663567,0.14668521541748092,0.13470602487970781,0.8377177387409132
0.10014951824285534,0.2726651057440777,0.12923368063641025,0.09893357397036297,0.10920191239996302,0.10408173834913269,0.08906046434900229,0.8377891617952703
0.08761632832240551,0.24973139885130305,0.09547847307754827,0.061967322497050864,0.08375400916943565,0.06826754038397762,0.04844643151593807,0.8874421976927387
0.06064629172831524,0.2815924978222247,0.04525334565492223,0.017169126952430256,0.04695504259665474,0.02870946833572721,-0.016308854253105718,0.7735894814761985
0.0868252015544756,0.23418959958480698,0.08509568113968058,0.0545602397285618,0.08251073067846014,0.07546572789650526,0.03912583655573407,0.7909624091905343
0.09137588780679035,0.2709487063635235,0.09251920758772755,0.06597134203264846,0.11019099614911482,0.10424724480511219,0.057473375890425164,0.831554982720337
0.07924993258962974,0.26970689276060766,0.07850169457388398,0.04943496667314721,0.09628809966008714,0.062231569591739554,0.021673203645941382,0.8058446180550325
0.02846455808179359,0.23785439497756541,0.025436589660685512,-0.037440410872893105,0.09390628056435134,0.02813907481560331,-0.00503642450293756,0.9123970484825826
-0.032157478416306014,0.22983976813188783,-0.04454588639960809,-0.12606069414782345,0.08475054196072895,-0.0020605462119428174,-0.014409121266037106,1.0553135621460141
-0.0054368424602652034,0.204912501221647,-0.02393862143054902,-0.11336247489226392,0.1232765505353481,0.07176933335285589,0.10924573083289042,1.107443902310767
0.0032390372720611914,0.22220748469745108,-0.012961696537259088,-0.088317356077971,0.13001371241979728,0.10410005409082336,0.12491994496896842,1.2293514484479369
0.011313271893370338,0.24460917046649208,-0.026222329587900245,-0.11221009199093082,0.11773020447869077,0.08186623603031677,0.09538564702041727,1.2057786854764594
-0.00425944615138793,0.2259270762575848,-0.04416539162491191,-0.13714129966407557,0.08120178340251222,0.03724798214476102,0.041013697738272396,1.2051841141842572
0.00652724963150919,0.2346789500042011,-0.056140338735737545,-0.1592823175816238,0.056127410574309096,-0.005650534851729548,0.0015171165880345531,1.2027002725679448
0.04586928375334599,0.20390715335325335,-0.002285022719982766,-0.0766589396314537,0.14134709754186658,0.11591302718956138,0.11497830924760828,1.2187110349804822
0.03847883859499079,0.20501666784576575,-0.0029934277049937564,-0.08912359858240036,0.13574932193740713,0.08548283786443138,0.09141776221773386,1.179440239263634
0.03965802823310964,0.18775977462711146,-0.01377199164270328,-0.10498015328911824,0.11485350314262258,0.06895897291156966,0.07186917035549142,1.1312508629735656
0.021441489135791112,0.19150525033362834,-0.05037746330322672,-0.13968163089107377,0.07666874708493807,0.02185856816441808,0.03503573789586156,1.110872200942152
0.027332304973436198,0.17696585689343813,-0.030052309111255667,-0.1318749271715997,0.08091150937017898,0.03692163110155484,0.061795635612853124,1.168282709689666
0.057813059661756386,0.16557385061799113,0.010225517574529067,-0.08445628161710289,0.12476663503548649,0.09700118611342591,0.12966639265849528,1.1593661496761425
0.05543785989600908,0.14983713780796135,-0.007333437240290241,-0.09717927563732821,0.09989116730092204,0.07958447061400016,0.08596365124003127,1.098704171027971
0.050157066145265626,0.16503161877032968,-0.012817490770155196,-0.11161572063578183,0.09743538379019817,0.04969932998580224,0.05882816976182875,1.139490975475847
0.03468889093215336,0.12755468541668857,-0.04934963664326976,-0.12473939562662589,0.055953741812934846,0.018961704486533185,0.01896828513470513,1.0943671675718336
0.063974099650052,0.14954568449195146,0.012432566223090883,-0.0764038595616936,0.12968089053687964,0.09532433193603715,0.0949235784762487,1.0771303785608246
0.06832625668001996,0.1468858180493692,6.304078441621457E-4,-0.08306408856492652,0.11891640776453613,0.1029998171049738,0.10413911118320804,1.1366714018645514
0.06306610227458427,0.15667079152225308,-0.0013609882639479525,-0.09729711021720769,0.09991300051054065,0.05754593951772219,0.08473654513788374,1.111211979158151
0.05970692085159041,0.160091344523753,-0.014992662868924476,-0.12200642797582627,0.06961060948793545,0.02846654949512808,0.04394750288916185,1.1166162646578712
0.08492883402478138,0.17406028461887665,0.019130728011329954,-0.06851225218492567,0.13458592743518108,0.11204112545668275,0.12838854332730276,1.1842263961798547
0.08892747367557131,0.13676119239820717,0.03208469893047296,-0.0497421602452163,0.14435043702130948,0.10776124241107032,0.13425192290873111,1.0986159269838833
0.08813058617610775,0.1557771480310685,0.028993337108574768,-0.07144939605914656,0.12345397323883843,0.08395800691289125,0.1302634855044251,1.0827229380537584
0.07553480964698732,0.16072003591822856,0.013783177563309216,-0.08394155713008902,0.09039076302550363,0.05277977305372589,0.07685134085628224,1.1331719879826048
0.08843497956456359,0.16913076809127164,0.05917168544646865,-0.03458982882486827,0.15702495088000773,0.1388684243988439,0.1461563722661692,1.1685536457074277
0.09881751399793276,0.17546263224431788,0.06043594221524223,-0.02730922584241396,0.15461531221806527,0.14374038529522187,0.17240724752939404,1.1321725540486773
0.10197332516429843,0.17944138866352877,0.05148459180714458,-0.030343718868127083,0.1531833954876364,0.1250171630963749,0.16219981370384806,1.1277815404200051
0.08954418267737771,0.17337253069332342,0.03820561724901943,-0.05191308076324837,0.12206326516233473,0.08707844939634024,0.11794159568785789,1.0638554845254935
0.10391833353387353,0.18750573888429492,0.07644621102028624,-0.002936257517537892,0.1642504965165174,0.16041069161547555,0.18542133320241588,1.1283281462381407
0.11250785621424211,0.2119019241510479,0.081178629157682,0.008373321233076764,0.18013152165130403,0.1691143251632776,0.21203525514831506,1.153449479424197
0.10436217643927903,0.19937645683131625,0.06911215663793002,-0.009904001575345288,0.14647304701443287,0.16514419850595763,0.18042189545114135,1.124689622801335
0.08617775572924967,0.1975401182675289,0.05554597257582283,-0.027521409385458103,0.1390550682857785,0.12132676354047714,0.14022912544565122,1.1824976013247392
0.10656965677356701,0.20821322185933622,0.07556721310218854,0.010378709916894178,0.17974840060730027,0.17896192665776509,0.19733745636713837,1.200495220399531
0.11520001924205432,0.21022686655318812,0.09166009495663532,0.021252152971390794,0.18456264104141035,0.18507421128655147,0.21383196556864864,1.1809539166521976
0.08658527282915036,0.19541612552594373,0.07312773806534302,0.009894881122320074,0.14841877552056468,0.17839647405406894,0.20868749744276427,1.1636227041322884
0.07853766598928576,0.22517634891178842,0.04904975990193699,-0.029320696921405,0.16214033125907285,0.1537239442324809,0.1824545670877348,1.1657889294438886
0.08603465736144865,0.22198913115724883,0.07110123161170218,-0.04171413143654846,0.1789522663925723,0.18885043078277586,0.22863771738221214,1.2062900539419323
0.09748811493325768,0.21899025328123423,0.08120674956401115,0.011630844865965648,0.18310690533445503,0.22268464354019327,0.24786207237640834,1.1558781866252243
0.08277882347155456,0.1830609910710901,0.07128142728067795,0.0016537749090818777,0.16955015567489987,0.20214487051015592,0.22812917914473269,1.1051729066580873
0.06697527663130004,0.20203437893082135,0.044700352902738355,-0.024679962635718745,0.1528480162429523,0.16408330808056973,0.1965684396256368,1.1251552639775246
0.04087944066413263,0.1989957522681421,0.0248678817016283,-0.055141649223184624,0.1378786139631509,0.1802899553202398,0.23361909583056112,1.1688906489809001
0.06435776790569049,0.21338773920610166,0.04217816965778541,0.006022140767886605,0.19390448721873177,0.23447549041803406,0.27671716850723743,1.2088213972065294
0.04469762833879424,0.23402218059693422,0.043891629593804285,-0.008531997925751048,0.1798371403791174,0.20161436675644112,0.2753393835282725,1.263852567316155
0.037135284001914334,0.213384488863678,0.01253230968409102,-0.03932113576510412,0.15160738520305858,0.1865936362913168,0.22259720792708945,1.340748641608352
0.024692307001941267,0.2316848141457122,0.019837825434004374,-0.03331339202504886,0.13443372727154218,0.17403208323215216,0.2399898191540775,1.2566402833000727
0.04012843086253387,0.20219946393024965,0.047826395142994554,0.001261234009017477,0.17418116115126916,0.22169557616785168,0.2862504585055151,1.3237994152491017
0.049554887187372366,0.20768382583030578,0.04902801609657335,-0.0011417345803478355,0.17261370888335367,0.2022301026063777,0.2822451010314388,1.3423742900713589
0.03111071263963209,0.228476318729667,0.04435717762278317,-0.02252748027308,0.15700437981027804,0.19176125172249792,0.24989608982765232,1.2789965303295
0.02686533753444055,0.23104063054575577,0.022989328623719156,-0.03183982323478573,0.1532856856224734,0.16179736576398793,0.198540778613808,1.2591404458994047
0.054962705628386455,0.2411779161992676,0.05154702619981097,0.017557081508990338,0.1777443475082866,0.2178984380988549,0.2897749039665772,1.2988585647892075
0.05262597615570599,0.21847979875417795,0.051916962477843394,0.024006083571345573,0.15730484950561302,0.19384456614974885,0.2585933054426967,1.320338882582315
0.030883346283448094,0.21296243382137012,0.039942865593878066,0.0111416234214603,0.1442026066517201,0.19001335214211212,0.2366390765086364,1.2728826248859337
0.020199332716647627,0.2119893350983553,0.012628560932368617,-0.015628829855814503,0.11785844576860109,0.13615445844714258,0.18452032633907015,1.2608622409283283
0.03438737247137009,0.1974481373394295,0.03195649748460803,-0.008969960566330412,0.11927683570597562,0.15686450327161788,0.19977224396883952,1.2386042474004633
0.0387658514404533,0.22448618095645256,0.040007890832564064,0.020222794186033677,0.16442281654498847,0.1828512480044928,0.23325634938065992,1.3055429344237757
0.031488585813386226,0.21770235051430475,0.03273742969034468,-0.004234990338506836,0.15139030540455886,0.16106291895992314,0.21073153329512426,1.2084297958352868
0.019175239015408536,0.19987866890067546,0.011153730212683226,-0.028375610750567253,0.10609262504120483,0.12643157136449437,0.17327200799262402,1.2397043214255112
0.016180525079373054,0.19926812694506169,0.009383906697077254,-0.02084622890381168,0.12864109521758144,0.14233340293749788,0.17930466968269038,1.2480122429738416
0.02328527754352673,0.2249103622210877,0.02374332219554101,-0.0011857779055870251,0.14570836262785355,0.15929389877375166,0.20150800923749015,1.2450915039553774
0.01657562724516336,0.21291857990873775,0.015177056054986312,-0.03191339929009659,0.0996142505986337,0.1332283385128665,0.16592389910297092,1.3249323346129978
0.005421474682484229,0.21149006329635914,-0.007188333964983276,-0.06159788741326834,0.10677515761681115,0.10393262303308295,0.13080694513972688,1.1987143103821378
0.008686819657579264,0.2157389176889814,0.007628017535225544,-0.02827313066327851,0.10501633680820102,0.12473236156976675,0.19626410396730168,1.2387714755389807
0.0011293192210864045,0.19712079922755638,0.01290941872309788,-0.0280947163618024,0.14655758743615127,0.1482424265052844,0.18151017900156372,1.226315728313325
7.574730531537672E-5,0.21788506773512611,-0.0037090894572029357,-0.05605009437150762,0.1211615151405143,0.1323454640076918,0.1627245469333391,1.2355250676808
-0.01674881378291561,0.21943859734541493,-0.029233230537654992,-0.09070726142557317,0.09748833275941954,0.08782033354977618,0.12343669380669119,1.191357118565285
-0.0035370774174703894,0.23100885492142062,-0.0021814800376338326,-0.05600650555018839,0.13082514383083887,0.13420022294744174,0.17991279490780268,1.22638927686179
0.005825257030877922,0.22503206020599348,-0.003724050269651666,-0.05719395314383059,0.13343722292407556,0.13572001528779357,0.17616090930049466,1.271807946329801
-0.01666631941097613,0.215246686357934,-0.020744691537943394,-0.0798105720663561,0.11464268730293795,0.11737999954596362,0.1573915717756511,1.272086625739402
-0.02225208464299893,0.2274289678677703,-0.03641574807158802,-0.10989967465709485,0.10307039661719301,0.09335055114882874,0.1267845608947869,1.201905930198329
-0.005363038693858642,0.2298961389759599,-0.011934449139180335,-0.05912851625012362,0.13947610589085457,0.1542412515123155,0.18050902488273765,1.2662618355404203
0.005204581784948675,0.21989918643961562,-0.009805874100453827,-0.07230244122143453,0.1419623687917431,0.14168177510129745,0.19116242008114945,1.3012478955475404
-0.003169952516656173,0.22183309817314004,-0.029808762756584825,-0.0791435003282853,0.11110517901939244,0.11752807681496355,0.13893757711214813,1.3049032263767795
-0.0041570166481802555,0.22540036556241605,-0.024593983892050326,-0.09670333834651212,0.09832290591482386,0.10028418369217341,0.10817704716982206,1.243909139291764
0.0050413926679391576,0.21493280624168098,0.0031537784826516893,-0.052861796177395115,0.14435316587050423,0.15826924816356985,0.19303410015344152,1.2637202897681958
0.011099624013549914,0.20211521764524765,0.004142811421895565,-0.0597777272267759,0.13260976466299573,0.15193764234359894,0.16178010262661666,1.3252741932859744
0.0017555002925222299,0.22833426033869084,-0.01689844053215637,-0.07854151189073055,0.11324725664307768,0.12071147192166877,0.14568543801989478,1.252673895495605
0.009666508528291796,0.19780531630423726,-0.012636618351540145,-0.08072091614696113,0.09210953564170962,0.10443237733383051,0.11744565249976782,1.29895515101753
0.028158148387162938,0.19251583869054556,0.013062393501223027,-0.048683262141126955,0.13571671669215168,0.14536124682610901,0.1678241806175199,1.2972454576186547
0.010662871546871787,0.2162089761135517,0.009488686552275713,-0.0600142086067633,0.11927965072133541,0.12070556752498102,0.16457874751826576,1.2900403662789335
0.015316463720071814,0.20146704633819712,-0.0033635924898504036,-0.08008036057260853,0.0955531629678838,0.0923236831157351,0.1276451498569715,1.311488068468729
0.03553008478077538,0.19320545782132328,0.008258984554805374,-0.05463188898847891,0.1128163546404296,0.11155627554619833,0.1406520655400357,1.3585527863885973
0.031752431169022405,0.1646584621244459,0.003232672005430294,-0.043874306802849386,0.11942597104841918,0.13693550631176854,0.1575895497787077,1.2792965919720962
0.041031699727679054,0.18134690072303253,-8.444624340501764E-6,-0.06399980327966645,0.1265430521736306,0.11770598765076772,0.14183095320947608,1.3130336531119067
0.020016062521068457,0.18253649000413563,-0.0013331006152820385,-0.07619283362743585,0.11052432012574913,0.11520776410317587,0.10012806520550156,1.3174239193749429
0.03395760252721671,0.19908750736310998,0.02438555538831061,-0.029728243764769787,0.1472636821106,0.15427152916774578,0.18561975405810882,1.373076922659007
0.03973268285066043,0.19350008744441985,0.015647680660265704,-0.04262678078056198,0.1428606543265539,0.13383965781929058,0.1699918393544804,1.2788573761746995
0.0320163787443028,0.18290644162162667,0.012677827636466592,-0.05318673062425357,0.13446491857408596,0.12094077301214674,0.12366333692258893,1.2920691877045085
0.0358807361088659,0.19734514723815527,0.01967914003634154,-0.03145418026518636,0.1421551743376069,0.1416770523590404,0.17066036932004208,1.2997025654296803
0.05208876291078487,0.18384571264982366,0.03493408363963531,-0.018456743477749643,0.14628949463180113,0.1654261254035715,0.19457524297280412,1.2765639131422921
0.04286786198370929,0.2214135936263867,0.014859833990799596,-0.04357246083214612,0.14260736480137348,0.1387153709204005,0.16901841276444243,1.2324540692278194
0.028556909428669376,0.20819033739965942,0.0034964618209794326,-0.061856862531154785,0.1270730600894608,0.13290001218994354,0.15709012630917105,1.2551554912794138
0.05044093576380737,0.20962969370568763,0.024762134177736733,-0.025220853629441892,0.17457333958094484,0.1742536734179288,0.20692188665088787,1.2912347335493077
0.03827885874256424,0.20168923021169208,0.020763182279302926,-0.038530022480186915,0.1531169667571013,0.16954179298201758,0.2107711398808574,1.2158897758449638
0.035591195597425074,0.23268325039954357,0.014586470584295925,-0.05424164846771475,0.12660852701694153,0.1498956714999036,0.1815348721715019,1.2280423194211607
0.04451476808775801,0.22625666482963622,0.023035865620568467,-0.0403247076625478,0.1553288726450616,0.18475345329554171,0.19200861522785767,1.2519493569748579
0.047638489008410646,0.21157254443655152,0.038395491212739725,-0.01836931619273727,0.17687698212721092,0.19600388009462094,0.2339152965564721,1.2349633963894544
0.01941743502020377,0.2117130488182086,0.017951061556089318,-0.03530419618642296,0.15516396442181793,0.16638319330079795,0.21085245317819398,1.1510878096834798
0.022546238175023953,0.21179528710530893,0.0017167626602112554,-0.05629912139347648,0.13397897422976812,0.13903499622759147,0.182231808540815,1.1655613841297086
0.04396342388621864,0.21394192707958307,0.03106480197483323,-0.014353624950583233,0.15388557739481523,0.19838616340919324,0.23903055338098883,1.1566186437723018
0.04108766028084014,0.18575261987552313,0.020064610176304138,-0.011542805293528535,0.16430462651312658,0.18484032281754686,0.2450392774659246,1.2740218944533421
0.032863556566140005,0.2201539869361194,0.014411261524060276,-0.0390841806161808,0.1535728914596573,0.1759702821488934,0.19901046427740132,1.1105507840119426
0.03635313585409368,0.19874537520766555,0.005208710085074541,-0.058802427868503024,0.10914409277224242,0.1255104151145452,0.15212860889315535,1.1964357036532114
0.0584929965028111,0.19033430465601656,0.03657863448752075,-0.020570632650522495,0.16476460259900766,0.18374961399705994,0.2474212487612593,1.2623132112021618
0.0500161140054522,0.20447844718409922,0.018963971241005607,-0.01960766430531499,0.15277168679866418,0.17698493588739075,0.2134874915006278,1.2085831279927473
0.027287495291549595,0.18399316774484398,0.01066883138660692,-0.04728647507223626,0.13635643433404274,0.15891041056488675,0.19471286887251094,1.2103659246670968
0.024722450884738952,0.18165518264542121,-0.005839173235570501,-0.07856387094454013,0.11046890454722755,0.12519190078543999,0.1557427406234054,1.1855348040450984
0.02987724595536812,0.16331500756020212,0.01583308706271773,-0.03368616978162602,0.16037077890857182,0.18539693643180744,0.2048873110969224,1.1091780021572444
0.014758834847459275,0.1921611333882386,-0.004723907369223795,-0.05565964382786976,0.15893366516050333,0.16046239274892063,0.20438420652066144,1.1793408883994407
0.010190146159993233,0.17634095025453297,-0.017681584866619436,-0.0692196074563174,0.1296751559503569,0.1555450328696316,0.18762529247379786,1.1469707725715148
2.0768840640249985E-4,0.18777465127570372,-0.05088456126115602,-0.10476110511336825,0.10369545110752401,0.12079675856886472,0.14888975874613902,1.1942780090489566
0.020461394240573614,0.181146981001433,-0.018665434053795213,-0.07122344233892552,0.16606254563954523,0.18713007163359754,0.2020052551449086,1.1614947352780518
1.9111254526996336E-5,0.17774077695867654,-0.030046673138954077,-0.09065619450057374,0.14270459550325096,0.15747054528947982,0.2055331258305965,1.2298410254662506
-0.0024658986918782524,0.17713963235334224,-0.03662348620191298,-0.11683127587816651,0.15554409112259743,0.14525486814434183,0.15636319918955863,1.1663025349062053
-0.01574645525925604,0.1619083894681518,-0.06015830868253244,-0.1281998244409206,0.11106131251323895,0.09917407223957857,0.10999654147215178,1.21949725543647
-0.010356506887879601,0.1627515823259113,-0.03998910390510029,-0.0939103533603207,0.15867891044381824,0.14742424115648178,0.1818112444956077,1.2083433400911303
-0.003452002049945046,0.14971610369960334,-0.04962612997336269,-0.11398344989948504,0.15090144369087646,0.13705179274669319,0.17606881396808155,1.1594858744830592
-0.026081153300479453,0.16560169662414698,-0.07726184107391584,-0.14736998984506391,0.13452926403503915,0.10130271662910671,0.11732800536661234,1.1278234866868309
-0.04776820768181744,0.16779067992127655,-0.09107277921721471,-0.1829314260924053,0.08518028188141746,0.05388273971060012,0.07911055658498738,1.1294466578879665
-0.03859732310124432,0.19527107766070778,-0.06832128269921461,-0.15302109384807075,0.15918119012791582,0.12407564407803276,0.1472577312759859,1.1214294976508625
-0.02886995657702162,0.21801792737100553,-0.07794145547678184,-0.15329960638533655,0.1416522906988312,0.12366215887555962,0.14171847870947663,1.142273635458132
-0.039067725337693204,0.23490509306164992,-0.07779708631040962,-0.17194138072484097,0.12208731197607946,0.0938110310239184,0.12684039568299327,1.1498675960868574
-0.03892471675094215,0.22219252820312616,-0.08841652462630996,-0.19350630248506706,0.12297742866355167,0.08950296177185343,0.09860781325726815,1.1386050079725452
-0.019798466681487048,0.21330347838026786,-0.06315138636850248,-0.13960328050836296,0.14424463864817666,0.12509370257388314,0.15499680967975837,1.200336365653632
-0.030010762301966278,0.19697889797151144,-0.07925307652255126,-0.1481535747902133,0.1302647372861032,0.0960177527481302,0.12840639979416585,1.1148055388809281
-0.04686312807196104,0.19236654144372337,-0.09545496119722377,-0.16933095186041144,0.09488420481894068,0.07664795355130082,0.10486854538295824,1.1473923397561907
-0.04002150269781314,0.17645855087380602,-0.08050556344127063,-0.15601687282504184,0.11828771331308147,0.11659125497969672,0.13763337144452056,1.1764736465030192
-0.02833710770948243,0.19091082234130355,-0.07362247649534628,-0.15518537594276408,0.14975414825814543,0.11960984339589664,0.14571217468647024,1.1766303148866812
-0.027223205927108106,0.19264769016801098,-0.08275463101936337,-0.17454116044630816,0.12568631120094834,0.10172094229154052,0.12387689359270566,1.1684131421785826
-0.04548352887261141,0.19948520058689992,-0.07989747533183708,-0.16474394112026394,0.10926447834309717,0.0815266770711542,0.10967809229290078,1.1584197515663892
-0.021180494772085185,0.20628801092951568,-0.04013705401478621,-0.11474226695482387,0.1670776374065133,0.14219522026993509,0.16135239007673474,1.1889507295688604
-0.01644409224708271,0.20203638589142875,-0.04555539990925396,-0.1122456448664668,0.15411834489723533,0.13540464761192814,0.1391074131678267,1.2143137845344287
-0.0185266854841612,0.21258223758183045,-0.047644587540732836,-0.12617305923622718,0.1255697169699382,0.10701939368183047,0.12916409685147193,1.1930324324630934
-0.01555162613083531,0.1846346379875607,-0.046253008528178714,-0.10932743935477295,0.14005251607045524,0.11999121320672713,0.14054376292820728,1.099881855355097
0.0018789744109636924,0.19794746615907585,-0.023023210182205857,-0.08583062582098158,0.16539887443154408,0.16398263522196185,0.18882201450596395,1.1977664141879447
6.774542407102883E-4,0.2122688879486693,-0.021761039962537435,-0.09582522502374467,0.13502513758799933,0.12366801817382896,0.15879064633734816,1.1956370027317273
-0.006546557601834877,0.206554191261076,-0.03357894263409928,-0.1100359059842773,0.12013420631442463,0.09812361600393164,0.1348727132629428,1.1876062939380831
-8.292726451332795E-4,0.21079275549156748,-0.02992687499764673,-0.07942266364920512,0.17374619192104507,0.14970015136321305,0.18749552198863373,1.2184173127655133
-0.008357887242742985,0.22916208547915484,-0.007976657602440797,-0.06831133720610144,0.15579251394718424,0.14457620538489857,0.19599709629401596,1.1411879509011063
-0.024103148078694427,0.2120522878429496,-0.028150894467996946,-0.09151557623527293,0.14655459476189878,0.11752005865971968,0.15470821084302094,1.0894485599123263
-0.01633840203642454,0.2268242564010489,-0.03799590496998022,-0.11446900184664888,0.12885750844339083,0.11040392408203115,0.14078351701400893,1.0908417361631506
0.0016401044409446253,0.25264283042194796,-0.0019911623316881087,-0.0661199186897142,0.14036904533817882,0.1559654622050938,0.19722240396709975,1.0234452842930222
0.007792264114452217,0.2700462335436251,-0.01027244106010376,-0.08072693943204376,0.1474693257218857,0.13540954890254395,0.18513413044769983,0.9610111389634959
0.004906629012746597,0.2749635233219753,-0.013810390085229031,-0.09792330431401862,0.12939012543649756,0.10561207441562163,0.15015144771311575,0.9867672787627291
-0.0020474416071140085,0.2473021307969844,-0.006442569853491617,-0.08434447068039831,0.14010220608927654,0.11725291772649582,0.1501001839561757,1.0051458316632504
-0.0013055961002161696,0.23388721221251166,0.0029469782320957296,-0.056065521833451384,0.15517986785573815,0.14752085951211374,0.200768167765846,1.0214495037126838
-0.0019949386078716336,0.2023188034793588,-0.02038020308259733,-0.09035716025895278,0.13285591288335638,0.13275960938960338,0.1745591309889276,1.0827460714331827
-0.018114789168544008,0.22423553610963923,-0.03991451321399326,-0.11467723513839177,0.10414050840979773,0.08677818762232592,0.10827585211243938,1.14454560059033
-0.0030560616967050544,0.22493401892865814,-0.013954939206549784,-0.084941132803545,0.11750854062626565,0.11976791306292758,0.14248688231902884,1.1741929380649678
0.0033768730449208447,0.224105496591622,-0.014412184417555802,-0.06755919133748256,0.1585702869778324,0.14147191683126342,0.16438436829943873,1.1493010171604032
-0.006593912314312415,0.23234792579995028,-0.02079546510975356,-0.08539709692882773,0.1292267665057339,0.12756455293415453,0.14460741544008288,1.1560787870653217
-0.019863518436490885,0.22259905467443955,-0.03744897388124537,-0.11166370739699058,0.12764563771291296,0.09560118286982185,0.13218780775166428,1.1314197710362957
-0.008301881382664853,0.20653672540215762,-0.022872214314785047,-0.08932452606739891,0.15419226184766835,0.16181923769540202,0.18716558651249282,1.196106163123108
-0.02441289094429885,0.14708527818458575,-0.03563167936654979,-0.09916818801563103,0.15356645458885423,0.16167080551085608,0.18874494543821876,1.3228786482904087
-0.053225834444924874,0.17011011008379248,-0.052717537933553264,-0.12055132965281996,0.1410351068309029,0.13607293292011513,0.15273051959017114,1.4386320473588645
-0.04302322558504577,0.16670621844293051,-0.06436172680487272,-0.12201969342125124,0.1457148175037495,0.13665730116896074,0.17288134060075402,1.4846291085203016
-0.030644589107800317,0.16337097108860618,-0.03543077680654524,-0.11556508798803215,0.1650914540211873,0.163471538323633,0.2020099724809218,1.5748757530734885
-0.042558026511789485,0.19696986081531526,-0.0469982907274149,-0.1100465311914881,0.15787187622237467,0.14458030216351409,0.1743394292648587,1.5152130692732129
-0.052813316453552715,0.22295976265671227,-0.0625448446253132,-0.13613057411999033,0.12251653190612077,0.12211466767375297,0.15911997099311712,1.5460578212269438
-0.03201726565927353,0.1926732206585534,-0.035996870425208376,-0.10474967883817764,0.1587609038709024,0.17137589143390508,0.2086033964145512,1.528047286468819
-0.029998376820637312,0.1888934989969646,-0.031150752657605307,-0.09231172301177112,0.16645116057976458,0.17402716769701895,0.19915141219185467,1.4733918637751862
-0.01936021123244047,0.1858486646258697,-0.034552721801163346,-0.11476642822868927,0.1718501091129315,0.14121534436046768,0.17501016786898035,1.3763926659521009
-0.042670320785031954,0.18102833324701037,-0.058689444399888144,-0.1238483689794527,0.1414310774868934,0.13785842080933652,0.1662487260925376,1.3810133230224835
-0.020619480373882736,0.17573112641332828,-0.036742422798938815,-0.08828955450054818,0.17971860314606716,0.1815018430080915,0.22102592044039218,1.3175947552741274
-0.02351326336731285,0.17265450300323038,-0.03093515823432723,-0.10002795064357693,0.1565819631925199,0.15297433447019582,0.18572856313955746,1.18962694548724
-0.02750170613091208,0.16441474366920325,-0.03536701373826967,-0.11747017715439093,0.14058385449983107,0.12781873488044007,0.16196856564983697,1.1839821857499204
-0.028319487245058145,0.18482655506749807,-0.043445461328791075,-0.09592568298790823,0.15422725603298337,0.15374169835935445,0.18854995876726116,1.141132752262923
-0.02074277423727302,0.18409726582532898,-0.03349850270250319,-0.0924157816169993,0.17638017217981142,0.1832086609735599,0.22041245619719146,1.056181763104231
-0.006553997951940836,0.20243600288169059,-0.016901090888232814,-0.07446785651292154,0.16352357335224785,0.16272947450495112,0.17940557630613133,1.0359873098536057
-0.013103830466745844,0.1947247412647042,-0.0228290878314363,-0.10394484084262749,0.13960077409835753,0.12456446344179585,0.1357408801720907,1.049645365377507
0.003768561902545575,0.18223527047997026,-0.02120699566076076,-0.0778500570938889,0.16773036121470175,0.13839386884250937,0.15991068295961125,1.0348712293216233
0.01871252381140471,0.17799884193078444,0.019567593535968916,-0.027851211526610832,0.15495668736930718,0.16489137112598265,0.1869913724955662,1.0596630457249385
-0.0028222692313165402,0.1515110147581889,-0.0036689142350120577,-0.05603253229139736,0.16014344930657454,0.14481496546134068,0.15423374117606461,1.0529087479962762
-0.028905420602210578,0.14843642899604692,-0.032948914979173995,-0.09127394271759783,0.12864186627107604,0.11321512585670997,0.12478135175825299,1.1411222069084819
-0.04084031351575358,0.12692460012875306,-0.04281389618921602,-0.1263062878888064,0.13190814008398377,0.09298122031756,0.11993527133070861,1.1916427890247023
-0.02487331936740999,0.11582730021384567,-0.045087577097882116,-0.10471305119854635,0.16672133756631805,0.1433987726620712,0.16276044951112487,1.213034074183155
-0.04311156638399822,0.12083867034072229,-0.04289301537006678,-0.0974240325353712,0.1454179147763781,0.12781431211930908,0.15632569235391128,1.276541819018945
-0.044080176367329395,0.12454694201989543,-0.05393545369724976,-0.14547833064463908,0.12637285355297062,0.10807824187252632,0.11747874461262542,1.2150133540979107
-0.04916312359903775,0.11202637750743354,-0.0687507462141227,-0.1550843789575939,0.11736766634539385,0.08815009128651598,0.10282739789628076,1.2395477706098192
-0.03314147998338773,0.08524300510938414,-0.04436607890667775,-0.12802653112640003,0.16649202412405864,0.12970127069755122,0.16766411328560354,1.2112515390344234
-0.05286925806404437,0.10754562299599835,-0.056335981036284455,-0.13777957255831005,0.16615137856069467,0.11089338652294668,0.12834650760256724,1.3356350775847572
-0.056944428620546286,0.09839102640574182,-0.07976779821445426,-0.16535043127686266,0.12012135480727264,0.09439241694882101,0.1096997536336329,1.2298411406717393
-0.07815044947760434,0.11937256817632325,-0.11169979627767326,-0.17358786239378862,0.1300526163019363,0.07915032769993165,0.10831092628922939,1.1872975161981714
-0.07118846193314374,0.11031556543647472,-0.09368957687988992,-0.16033839183310378,0.15175795248649812,0.14168658401812328,0.14761718863247905,1.2120252386271158
-0.057682754453549166,0.09964390919893518,-0.08648543624368471,-0.15290549919133553,0.13773051326973038,0.11693292240879116,0.12003465506986316,1.1723215550410233
-0.07215685757707745,0.08818459115971848,-0.08782541567619076,-0.16838505927343259,0.119181690866024,0.07140679802154062,0.09264726093065667,1.1578618807805527
-0.07666518401282582,0.10725966539450128,-0.11256825130193812,-0.1747654751505717,0.1019401501976825,0.0681440647496989,0.06334336771797643,1.1417123712262174
-0.06034556565244677,0.10528033529546717,-0.07989813104058732,-0.13823754091608978,0.14835520384620585,0.1109718769877786,0.13567896977001662,1.2091361256091173
-0.05861519883916553,0.10269421259465367,-0.08977599025391318,-0.15677484810369355,0.13712803593957906,0.10610331992426711,0.11753399142086318,1.2446832206267942
-0.06882954813098567,0.10274903773379664,-0.09614435402243866,-0.15088569338893246,0.12018236519655955,0.07575974983508833,0.0881133081639769,1.18496838561624
-0.06582884436193578,0.10269568286245705,-0.09371365356554374,-0.18194866074173452,0.0972974054804967,0.04834806883542465,0.045570992358264895,1.1552383833472315
-0.048592949584533855,0.10513818539503371,-0.08537834833238404,-0.1313135369825335,0.13338937520509814,0.09975051501487059,0.10923302102365781,1.1990292779406488
-0.07300760160463941,0.11854367457967503,-0.08667569241786859,-0.14666742404919256,0.12398862720307725,0.10421446696180607,0.07867198905459516,1.229240174395675
-0.08464852806437047,0.09843097643635888,-0.11566095130345205,-0.1834494827460604,0.09768644639643688,0.05699281550686877,0.06305853124770594,1.266148556752976
-0.09659868639388328,0.08236759172323245,-0.14497742262774263,-0.20659728075317016,0.0706746034913081,0.036575914871639005,0.033898083467112865,1.2668411876852517
-0.08112395167505144,0.11648695431156678,-0.09995925819161301,-0.1607356846946443,0.11889613377158598,0.09642391660526214,0.09431177659479,1.2130993017920093
-0.0641175218463411,0.09169919328027401,-0.08846068450064193,-0.14866688329127156,0.1226046100661104,0.09706036149203809,0.09219602590386057,1.2259401552443567
-0.05666331084070972,0.09390380296737413,-0.10025337373448068,-0.15466161636500989,0.08499613071058568,0.048443644326027234,0.025481341488210785,1.2432492518142053
-0.10162254951410381,0.11158196568098641,-0.12472055084361656,-0.19935590149730695,0.08633401075389247,0.01631259807293607,0.007599627041861392,1.1549696649510122
-0.08432448519688586,0.11245451175227303,-0.1189650274354283,-0.18647991117796522,0.09902322367528477,0.08616167114064384,0.08463423896498219,1.1727403355129278
-0.10143952776489068,0.1136197899009622,-0.12468215415654439,-0.1875510839148152,0.1189453077012422,0.07819641359541159,0.06274799489717282,1.2348460248518596
-0.10393070898666279,0.09887607072988179,-0.13157784191691702,-0.2300638969028872,0.07486849208162961,0.056028892760433914,0.04115211790341902,1.0945816368518626
-0.10379847970402924,0.11152196441972825,-0.14766591173729568,-0.2282399164845794,0.050211512216049387,0.00953366640462221,0.008261744392666375,1.0880338122031001
-0.09536972006997133,0.11980559796902912,-0.1257512080345645,-0.17565088794472225,0.09632314556210395,0.06858461644604669,0.0979374712754417,1.0371465216965632
-0.09312972824418923,0.10858012570622165,-0.12182405332055085,-0.18956838588674965,0.07883444609949443,0.06179209807701909,0.06420259795846035,0.9784848066378908
-0.1081406363601762,0.07914105252311994,-0.15740658519985926,-0.23338701079483204,0.0636701850342866,0.04000131138654941,0.03304618469274224,0.9308038855638704
-0.11366643455103158,0.08182467957391952,-0.17081527253429446,-0.2392621766956756,0.03036809079641372,-0.015579188865374915,0.0013869717447088999,1.0030708366876437
-0.08720455705919376,0.05935512570732866,-0.13475696695576828,-0.20840969853805486,0.055951145847218116,0.053007270836988765,0.0559935412624364,0.9916989291543309
-0.10430964931512482,0.05626520265315456,-0.14362288876430845,-0.2173399570309133,0.04518826500237751,0.02201520334110499,0.06090146196030587,1.0031557916043912
-0.09026156379908645,0.05818509557820198,-0.14369527350101322,-0.21401674532794948,0.015410243588726584,-0.011146852694925722,-0.00582367374398945,1.0156130414134632
-0.07491467751865784,0.06696348578724434,-0.1332828024559871,-0.19535187341820234,0.016526480108103397,-0.010665975388837566,-0.009166952249094034,1.0054284850749606
-0.07874686692195369,0.05890342295724531,-0.11079213906435209,-0.1776058316426037,0.07984214044357633,0.03985759999919674,0.046895518464915104,1.0180624593802898
-0.10004796946223155,0.08119753133874255,-0.13973816014087634,-0.20962840502128624,0.07048312475880629,0.044488785025506565,0.04139352864177939,0.9831705012278452
-0.089071428640473,0.09505470669936522,-0.1615313465778491,-0.23096899869863233,0.037307816959227455,-2.1924477567918847E-4,0.03270834112356252,0.9252160615723464
-0.0802843092275853,0.09497540152045722,-0.11581399138145947,-0.18799205084601261,0.07098387138080246,0.03312541076119049,0.029368467688802306,0.9326663165132666
-0.04156582875275707,0.0871262911062423,-0.06628545336225533,-0.1331510698293688,0.09495642170283203,0.054519930615800946,0.040561721675139724,0.9828843685463112
-0.02369731299204548,0.09220589679689296,-0.05746908450184668,-0.11521316534551176,0.07219120212748979,0.02435439385149268,0.03722272582223823,0.9395440065074249
-0.03680342797005401,0.06503814365011783,-0.0817312302166976,-0.13020670758677108,0.058710259135663384,-0.0034222863413060503,-0.014610093160761615,0.9477671419372441
-0.02998182067987173,0.1227137749075075,-0.05245896055815933,-0.08813917863000394,0.10260262180193315,0.07029679986652737,0.06396985475426802,0.8726939179654998
-0.023601480302657768,0.11275412828957102,-0.035086970880026415,-0.08536619413944206,0.10784052866005432,0.07462834817021415,0.08572890280343702,1.0396163692571843
-0.04942441738332689,0.15004177983121642,-0.04429404269677942,-0.09868775903856686,0.10574063800508361,0.0712270788319717,0.07637130351485025,1.1052982401934446
-0.024544477034235904,0.14557474687794125,0.01950664311066979,0.0099167055828376,0.06540697945926742,0.0701444839625011,0.08561338391021951,1.2231791444811397
-0.013094138758021678,0.19098176275324757,0.021536369006713536,0.021561224759550204,0.0803524969101558,0.12568835042778062,0.15751388213948853,1.348176979510674
-0.06232301674625048,0.19935525514553426,-0.04850500296941738,-0.08529307866327382,0.08271216404131052,0.10188539707004325,0.11372948293144954,1.2748875541232414
-0.08089402201981367,0.2074301415650643,-0.08966857589474433,-0.13408636047603437,0.06624385587931066,0.058587578626767785,0.08430379762102899,1.3038427799346621
-0.10290005615878753,0.20961065949546856,-0.08933378197845118,-0.15713314060286765,0.06657518597236939,0.055743815010277455,0.07712066480390736,1.2581499971187495
-0.06793930629944729,0.21386333367687335,-0.05195393681733975,-0.10613514442343638,0.11111341358420866,0.11525448969380676,0.1285457157749945,1.3377138819256549
-0.08533633054489892,0.20266482401310582,-0.06922620576054234,-0.12024784676670426,0.09752244180450392,0.10919518178502531,0.12220630072662339,1.319609425359966
-0.08200024066881106,0.20181329708890378,-0.08906431257977457,-0.1390001372422691,0.10020867729037737,0.06983148332134777,0.08555394082621305,1.311284533328413
-0.06668899515548772,0.18820837217830064,-0.059417952626439084,-0.10361498882711079,0.12012137108440073,0.11359314398054741,0.12638946708619758,1.334116465217622
-0.03639301064034212,0.1746131871361409,-0.029414577790415664,-0.07473468914318948,0.14618230214053216,0.12454313071506039,0.16545286893134056,1.3022970280161241
-0.0324464096044035,0.17593425813412716,-0.030899814987944224,-0.07033842105628507,0.12279549083819999,0.11643041739482429,0.11980126419757219,1.2922658676800387
-0.05594119021886958,0.16788201297055372,-0.0552295118993584,-0.0998764709273047,0.09039790085971879,0.07385161201577481,0.08464102115980408,1.2119710371489882
-0.038750285029880774,0.15830383956070018,-0.011711038046579317,-0.05358389908929307,0.1530948410244656,0.13863396549758922,0.1473583386405818,1.2086927883725842
-0.028918638210498775,0.16942301853986536,-0.012995749331499454,-0.05046949042943422,0.1651561218259849,0.16063320217231913,0.1812489185850994,1.2027648329475367
-0.03202670433983883,0.1489887784983294,-0.01751273791949158,-0.06597411852392028,0.1410706307700358,0.121834048524796,0.14158261255785648,1.220043981613839
-0.04462652188957454,0.17868141719731825,-0.04842141260003622,-0.09975711361817767,0.11559541373955039,0.09963259830542097,0.11205801028621973,1.2604800764852018
-0.04877096006729946,0.16871980826904137,-0.04557668489265599,-0.07540034355240993,0.14631465247070433,0.14884082083448558,0.14834353788010105,1.1790057304722041
-0.036363219114621266,0.16926460308937177,-0.029255872677822925,-0.05293727987755749,0.16858761499595168,0.19078728745139217,0.22018406634368934,1.2526676383248905
-0.05292076765764757,0.15807232110951958,-0.037228934317080506,-0.07143019096962387,0.16184428574704568,0.16533684135715604,0.19304618287462572,1.2290955849559468
-0.06762307496407188,0.18627470950021494,-0.049472489068712676,-0.09811334763910844,0.13451663902059482,0.1416865119157943,0.1519767858402377,1.214990884322936
-0.06745843259753405,0.15806653177082094,-0.059851228641057415,-0.10894766424530243,0.1368071636983541,0.11226298846372239,0.14590325847332253,1.2231399812824675
-0.03792662196040074,0.1777720614437591,-0.025481308749114445,-0.05790639433209305,0.18187025308047192,0.1943844384883302,0.20588070526586302,1.2643741985429433
-0.03626603859074097,0.19390749462236587,-0.03498933973271761,-0.06955692236495302,0.1647351983623238,0.18605091947054453,0.21245894396500545,1.2418681662587348
-0.05455073174575267,0.1786384770999035,-0.049968529130791105,-0.08636527811918625,0.15712069175009385,0.16692856079791185,0.1855242667470806,1.2088121806350687
-0.07393541436846897,0.17083578482373576,-0.07528538255006574,-0.11042247792764529,0.12087420830097394,0.11923942697694727,0.12954776630086778,1.2251874529111813
-0.051791680381410826,0.15550937976168203,-0.04166211705595456,-0.06806815299774445,0.18919604962566083,0.20314122347212418,0.22104833290069237,1.2218495953420236
-0.06230263662881197,0.1829065380497889,-0.040814661586495354,-0.06755296103495607,0.176197925726733,0.19777121230262845,0.22318177046784737,1.2551673064896114
-0.05832108685225961,0.1667997462406699,-0.0635002215215079,-0.09548042987126995,0.16158931180978894,0.1570186024427788,0.1827458880585307,1.26471028782145
-0.07429350579690339,0.13792253883052444,-0.09983181410061766,-0.1349579496925034,0.12242305780309762,0.12224034662631178,0.14462473728962455,1.1975917144382608
-0.07243519293659782,0.1450487566616694,-0.05461467792354472,-0.09933682379477683,0.17499576517165855,0.17431879478540888,0.20310308910047595,1.2433562564187004
-0.06378951531709888,0.1684436820966066,-0.04410493933520183,-0.07906433747047031,0.1868263543421779,0.20785636339681898,0.24229119391156784,1.1546442393076226
-0.06147935051084114,0.17994409206514006,-0.06930465490974615,-0.11012327698807295,0.16702869137962162,0.17089356250983895,0.17428207932279474,1.236411804391354
-0.06465308353652274,0.15293006668566034,-0.08201313574999666,-0.13725007731795874,0.1311692036870089,0.12494443544389776,0.14202364143134327,1.2429504259608035
-0.07951851117592548,0.15642466472886746,-0.08069887483317227,-0.1427949121047097,0.13639002256595326,0.1300113573386077,0.1407069178211857,1.192156085438081
-0.062132216524382285,0.16979929499787885,-0.05298068779521336,-0.1041133580716527,0.2018346743191054,0.20779796479460658,0.22327762605732898,1.2291555915822003
-0.07724006558402521,0.1777511371531145,-0.0703654498135058,-0.1357717016916021,0.171986389961059,0.20265887049717046,0.19951195095696478,1.2167202798051107
-0.07880203061430774,0.1666024795858928,-0.08429314623206649,-0.13967510335901565,0.14685384164237814,0.14101189686904425,0.15097584341046,1.2103097840152832
-0.08593907724332484,0.168852548511799,-0.11989379832892934,-0.16425038929033983,0.12342169151605124,0.08401737214505312,0.10505433095915905,1.1723943227386011
-0.06893041919808264,0.162190604122747,-0.07359911279635864,-0.11656293991986326,0.17284502591325546,0.16083540139714234,0.19771940266884927,1.1628210119223417
-0.0673449128376297,0.14690962958748943,-0.06944018391438378,-0.12197890479549998,0.17231334455428293,0.16179360802896978,0.1677870543343195,1.1729574556299276
-0.061343372437349976,0.15346509242517856,-0.07891112544310583,-0.1357849399336563,0.14808031116518733,0.12284520397897603,0.1201982195143279,1.102210656155733
-0.07786351312602807,0.15101750582606085,-0.10157461796220436,-0.15925256926976794,0.08327444424120771,0.049829807857599655,0.054475183990203284,1.0438335604900453
-0.07855909697849113,0.10141157602951498,-0.0950581632891833,-0.15597472992001363,0.10666439008589922,0.0708284796267187,0.07943623493357944,0.9433378292734755
-0.05202440748079437,0.10243080016568454,-0.0757086781840893,-0.12656522089140598,0.1273406975114659,0.14180456076636408,0.1368826620067704,0.956488222241687
-0.05552475578769542,0.11309068332922392,-0.08500344928704251,-0.13586955957153843,0.0969644406376426,0.10962165765081276,0.1173631901056623,0.9482253726088953
-0.04763936204335285,0.11239920950838742,-0.08496726577587256,-0.15349133006761514,0.09870329844313362,0.04951303410648021,0.05907741928160595,0.9665189504527242
-0.049961589759355524,0.10492559052254322,-0.07910578067190543,-0.14900683537356987,0.11058585292617841,0.0674259704114053,0.0804443403730563,0.9228675942549146
-0.03718034439070813,0.09508589678115947,-0.05817801138083834,-0.1231007427810089,0.13098061770357275,0.1200892228650675,0.1512143330417515,1.0042441070167294
-0.049086655319253186,0.09312003514173096,-0.07950951567069682,-0.14350603790973382,0.09839742769161566,0.08851122323675868,0.11098353104181609,0.9289133095516955
-0.050816066039072044,0.0850745767128931,-0.09156253286889204,-0.17650608177032434,0.06609090310023946,0.06887055330049319,0.0725445757195689,0.9381135585899383
-0.047781789320972455,0.08479957668374645,-0.08782274504543904,-0.16420698468743491,0.04513698458930078,0.05677727405514572,0.05619324779925697,0.9313474267832017
-0.025917736962000587,0.086899929111225,-0.06736897984114647,-0.13638227356149596,0.09091686414857791,0.1224701804884825,0.14078387980889337,1.0145944620530516
-0.02753310724230159,0.0798070220150808,-0.06387888618049739,-0.1410764121295161,0.08775004663121368,0.08164622529226097,0.11290400645582711,1.0167534070962108
-0.025818194227896142,0.08635361915523404,-0.0795213061544784,-0.1501318312389158,0.038174647891257525,0.0463161011417211,0.05650995081181352,1.0046552787139797
-0.021677562243551864,0.09030017872315363,-0.07901517163988522,-0.1615359356983246,0.06147379841548489,0.03241896114539913,0.04580136397810866,0.9863349827215472
-0.0047630733439126315,0.08774311365036344,-0.046095560692443936,-0.11009407066860645,0.13912779923211532,0.10912732879581633,0.13383953291205725,1.0456883506099162
-0.009950880996948847,0.08007642090816859,-0.03984268129062312,-0.11929096702607887,0.11997556000684462,0.09381153107106549,0.11430598078608813,1.0467212698031867
-0.0063845703739886985,0.08038306792852928,-0.0721689885645269,-0.14353182886685975,0.09590237451770506,0.06675022099956651,0.06509158026939905,0.9892592867368514
-0.023760221947476984,0.07654605783607339,-0.05909295239631952,-0.14612314115573083,0.08713576556567838,0.07002792924348081,0.06510963052702581,0.9731130538292433
0.006144217162432227,0.07790226667854498,-0.019473393300686835,-0.10165701122450538,0.13671600463730957,0.13676978307771484,0.11953986159048777,1.0387581820075755
0.017602736394611178,0.093662020196017,-0.026990159231347708,-0.10480415135808414,0.13563169015257084,0.10681886952458311,0.12568349245075383,0.9852935987117732
0.02425820874889989,0.08053838507957697,-0.025637640622207258,-0.09760366470478937,0.0834773786874019,0.0672596931532435,0.06369416542769363,1.0074790839493761
0.05484180702290341,0.07844153469792987,-0.011369777094116709,-0.07259046410026224,0.10381550238082393,0.08361380312919864,0.10262034479554033,0.8864152668091583
0.05397333140688214,0.09478447459295444,0.024051511987630843,-0.0254505681260953,0.139081797334221,0.11590842986187327,0.11999333573613485,0.9004851452018284
0.05128887218098834,0.09338877995750978,0.01802220937329306,-0.041056521057282705,0.11944134900823138,0.10867638082730162,0.10679052017362758,0.8780033476329205
0.024995130183412685,0.09545872081266325,0.009559963591533435,-0.061281429375487265,0.09721300738644287,0.06844714176883744,0.0533488194922131,0.9084354816532704
0.022229796494545415,0.0804482761958303,0.001939977371671426,-0.07328137107518798,0.10344443870955466,0.08606273720732947,0.07361937027592573,0.853694851964232
0.05227446176474967,0.10093894797364657,0.017170939986973537,-0.03301546534399217,0.15320851075962894,0.15783445547314515,0.147911573905683,0.8661595327642854
0.042171972775187194,0.10571032449584418,0.01202865542509373,-0.04114361820109571,0.14317863605349926,0.11744898105265218,0.11957303862979866,0.8705944223653369
0.029582858787197103,0.10412985367314642,0.0016407593359176744,-0.07384659330610667,0.1350959208045894,0.08783996602995081,0.0833951041816984,0.9093962583238584
0.012780494045661662,0.12512100237600554,-0.013319367522416565,-0.08997296491559136,0.1241381150245294,0.07609068751462038,0.08028495073564257,0.9470766308499928
0.03278785914341668,0.136725803065699,0.014726370473418567,-0.04512987913788908,0.1847624672290703,0.16462262381517734,0.16056960189294822,0.9452224687946699
0.02849648326268372,0.12436718445555602,0.007370891855422926,-0.05279018928069631,0.18083701974791602,0.14072924227196493,0.1666872133694773,1.0142673344796023
0.022834530723512603,0.11422805925060257,-0.01431174959455576,-0.08513073496400506,0.17201843022516194,0.1188832547339629,0.12050896327424222,1.0083100769286715
0.0152500295960933,0.13856921368903563,-0.031296269070083337,-0.08343145211435085,0.14335920904328348,0.09689094568465477,0.10384771071652336,0.9875015002471537
0.028939798869084047,0.11181720516229914,0.020483294927345935,-0.05025804412751318,0.21287403487390272,0.18291259462611686,0.19745547007238878,1.0380303222324476
0.03673431078046271,0.1307580354931295,0.006495587811723258,-0.060776091444886736,0.1756353395038039,0.1653947061946232,0.18320736950196376,1.0316614026636122
0.010457209655967206,0.1469812141137035,-0.012763193709311232,-0.06905275301580294,0.1704464345752126,0.1452398928264617,0.15576145211244147,1.0082006137905453
0.007630975231210512,0.12614455439293445,-0.0185361781462461,-0.08186095986306817,0.15356263477622986,0.11523862024827851,0.1303491123236122,1.0263872337047273
0.03434992259979209,0.11298759138835526,0.0037234212327844603,-0.03379470817828556,0.20965650003399866,0.19899947422932654,0.20724541955638962,1.0452370003162699
0.0215712655884797,0.12370369234264494,0.00507134347938874,-0.042401418690273265,0.19990780344995776,0.19239393069789906,0.19955503399063232,0.9965262660672856
0.0041311984694932975,0.1369747443673684,-0.010261852309629477,-0.06727467154537116,0.16558629382506995,0.15410316699032106,0.169985564443594,1.05315857959043
-1.990886516598892E-4,0.12693962171962866,-0.026805640951924305,-0.0868476915239868,0.13124466828543793,0.12455530484236142,0.11670902948612778,1.0594652748907754
0.017335194387077094,0.10640109352333314,0.016546224653831203,-0.04251079553862193,0.20158309353013035,0.1889921223198129,0.21150442060164887,1.0390824566271317
0.02474173925801262,0.10531363497778329,0.011750611301640748,-0.03245764517604619,0.22013043504717456,0.19772618275642395,0.2340820174493963,1.0738563102010674
0.013124489212441385,0.09646555353325816,-0.018016945910261113,-0.06294310359546834,0.18041375309751354,0.16734606213045766,0.18072452487946866,1.0986168489772528
-0.01153680353540567,0.11751655929153092,-0.036012818915669126,-0.10020284073480408,0.15138494938885705,0.128498879658179,0.14828516023809016,1.134382499740636
-0.016540510251690187,0.10394285016069345,-0.027540438438318944,-0.08062894304747796,0.17075333696811534,0.1768848629575278,0.18581669854382932,1.1588322017743196
-0.002450980947375426,0.11491336126412563,-0.007475830729238374,-0.06207045522036833,0.2087356644771247,0.2184442332578262,0.2625718254566552,1.1147986021412604
0.001310136115388183,0.12110745174185811,-0.018898349707283886,-0.08596789601372645,0.17942420951885285,0.1902032507813206,0.20963014841404662,1.174139073886738
0.006311411132713691,0.1000696581148228,-0.016596761038356153,-0.08970222167921334,0.15308437999389501,0.14272496001506593,0.17208695998457843,1.0820523527083752
0.039812732002291844,0.09209533880044107,6.346552945734466E-4,-0.06461241827730163,0.16213429446200878,0.14822334449642094,0.1465074154821341,1.1297495343775745
0.04392082722837362,0.1210586232213226,0.034768365923020454,-0.007758704704819056,0.20953001580542518,0.1873364742715711,0.19004212413817623,1.096157856931392
0.045097130135740515,0.09658519803017043,0.011991557668803766,-0.04563264244203551,0.19549258153115237,0.17504006515307663,0.18658822515715046,1.0426621640864069
0.018460232436972614,0.10418435397144092,-0.008263788130887649,-0.04944345400422047,0.15590729345729365,0.12542160271826114,0.12161490735516359,1.0060043211901988
0.0028543033669881073,0.11397192001285952,-0.007035678149366696,-0.06497976147998168,0.15365729303018094,0.12427765857664602,0.12270530739841697,1.0019942095583538
0.012194097233965263,0.11252139540803915,0.018372796367807767,-0.0463562283486402,0.22252877537169005,0.19751888664482262,0.20153412861821735,0.9906800990863354
0.004470350340570666,0.11271794460522161,0.013232798188696694,-0.05165880169140828,0.20710879228070125,0.16301353078136446,0.17598974021201566,0.9993532111605052
0.004657257761797879,0.10584450177257756,-0.023830372626038605,-0.07416362942575387,0.16869628213048968,0.1236798721773473,0.12782553622282672,0.9866364249277693
-0.01780220946153344,0.10722521660104353,-0.026072522719904057,-0.10716458830773157,0.1658720332166323,0.11416254190090959,0.1066306451650529,1.0192577181319202
0.0011769584549041283,0.1174765922853888,-0.014992802014483069,-0.05280583795269433,0.2006393801569318,0.18841406184900264,0.20882666546192172,1.050498106066435
-0.010873210678414746,0.12358772590633062,-0.015021587783740305,-0.0684163654130067,0.211701906813518,0.17377558246906272,0.1727246761715844,1.052237471815468
-0.013090746938876671,0.12225741105759119,-0.03271631455068011,-0.0975195354868128,0.183029521741018,0.14934026844356313,0.1546459224880637,1.0732315383982676
-0.02951196123623384,0.11048050040260209,-0.043944122270915494,-0.1260078842610118,0.14270388860180194,0.12069891951198732,0.10723374705469925,1.0552151027722814
-0.009947782506224714,0.1143892639341034,-0.03526759485620389,-0.0979555876530003,0.2142518218480944,0.19827872334989147,0.19058085514422754,1.030150284879112
-0.014510185373909681,0.1286289738323494,-0.02341786262008473,-0.08990650908057922,0.21364556287587164,0.20318189866874525,0.19142473565585724,1.086030265353787
-0.012213384927781795,0.12545629433875516,-0.04893508330574532,-0.1136538875475893,0.19678637504534272,0.15966454088103413,0.1730537307509732,1.0960124936745044
-0.022632191617293136,0.13077534566702875,-0.06761948714527119,-0.14375047867305163,0.15516635952649377,0.13208064474729345,0.09603564291802662,1.0786702448287884
-0.012371219245070912,0.11254290515567653,-0.04675114867525332,-0.1225362424844487,0.20113338858765706,0.17004715443527701,0.1698155920207901,1.0446823764571642
-0.008657628308259238,0.12459537042718494,-0.02103400005276623,-0.09951785499159752,0.21335906841100089,0.19219526645414353,0.18816950405511282,1.0439182415378756
-0.012103359392664662,0.12468870588640597,-0.019099820087944797,-0.09604790524114938,0.18632431271913033,0.15837687496170777,0.1520706259586054,1.0376870155104467
-0.025921508182955636,0.11672542645325724,-0.03252453144011263,-0.11772698578328962,0.13815675483081946,0.11466878205279303,0.1031217312928259,1.0174742326981665
-0.024538394968808528,0.11915372182699786,-0.03167104925879582,-0.10323477209784826,0.19313147769771674,0.15414092339316088,0.141832076625116,1.0089539839641182
-0.009791321575436232,0.1288280918434294,-0.013035373640250396,-0.07457758473441008,0.19504398454739538,0.18745337682920346,0.17038088900165063,1.051975440730557
-0.003810120999663474,0.14530361776923112,-0.02989369586387541,-0.09891543987852194,0.19278871936562564,0.15632455376246396,0.16049850133127097,1.0599724033298727
-0.034555359898095966,0.14224016626969369,-0.04264251468950105,-0.11431248028129343,0.15855442405704043,0.11778307013842335,0.09251240186501408,1.0176060695537008
-0.027710525426387977,0.14818420030147916,-0.035986028545153495,-0.09845065532904376,0.18428765836560243,0.15073213595368082,0.1467954202495573,0.9508387171530993
-0.010893828540983174,0.12620915692702736,-0.014307995203052088,-0.05975425426398341,0.20351594499940934,0.1963946486038417,0.2063432589548907,1.081114240431064
-0.008863567544766342,0.13411494741374844,-0.03297690155143812,-0.08673031756254213,0.18939413898208896,0.1837464915495318,0.181487201089074,1.0567761010245924
-0.021966251981341653,0.12675481590430235,-0.0416963982707073,-0.09819411072731538,0.17691693237205383,0.14644891078473032,0.12081922330988223,1.1162104036953784
-0.02212944055140265,0.13903128567966572,-0.039182833121551415,-0.12114551424351508,0.1738773020793257,0.14458409184860857,0.1418426506378469,1.0607973345830755
0.003020444370838465,0.15333934925130926,-7.530559492310452E-4,-0.07941996659108236,0.2233171698636441,0.21988883594921313,0.20563440073852524,1.0699574953227586
0.0014504992294922358,0.1379649649100405,-0.020565182533755035,-0.08308098779888981,0.21895494883299657,0.19280492891966458,0.18836569911798448,1.0444241647025523
-0.01617358672599136,0.13377692157926327,-0.028910491406450117,-0.08079745776381929,0.1765631287049332,0.16331986372901208,0.1506623541512743,0.9998286322191714
-0.023581957689652853,0.14215262892538308,-0.042083798863660093,-0.10467920559979349,0.1447764174046804,0.1148958392039461,0.11229095289489453,0.9975743734986956
0.002437557760043193,0.15645591256434432,-0.011583209561839735,-0.05595972763495175,0.2248476296000862,0.21181873600010365,0.2098945340610302,1.0942734660722344
-0.00810974609852817,0.14642050372562823,-0.019338419128798832,-0.06512717842618114,0.2148735482886706,0.19972342503157542,0.2078182443793167,1.0136539203587565
-0.018225933504610197,0.1561959598429731,-0.03335249220653299,-0.07275559933816964,0.19649311153134472,0.17141235653853162,0.17272900946106176,1.0688397783005743
-0.03869357528005304,0.14088972333460745,-0.05940397240571341,-0.09446441008352785,0.1487126563289127,0.13235409764788056,0.11296495355329654,1.0127380843314662
-0.027281272403189963,0.1813467945114695,-0.027777662971255026,-0.06382375557805066,0.20543667167915794,0.19505904880927594,0.19958838745657,1.0349325011664061
-0.02243065472113446,0.17451128819282605,-0.019217240324490358,-0.07019707109957708,0.20026004399564154,0.18944055967179446,0.18363673865600647,1.0429108038141695
-0.036547160384696284,0.16635888270190147,-0.03485599429174671,-0.09224247698781006,0.18278738252012616,0.1726700688321447,0.17832850517244161,1.0184150711487279
-0.045828372687618905,0.16974680982143797,-0.0702177780551539,-0.11530498772203278,0.164645960762149,0.12815624737268771,0.1004038619098787,1.0086818869862741
-0.03455979965291701,0.1598508526436025,-0.039653633678735374,-0.08386021054958097,0.2091785142972646,0.18511244387425418,0.18979095521618428,1.0044709787051882
-0.02907118467293561,0.15721144153266386,-0.027421599694957253,-0.09740062332519188,0.19075427647607557,0.2132260022918101,0.20663350513477752,0.9640076991940921
-0.03064736630324357,0.12738213524958028,-0.049531395696046435,-0.09644557157755207,0.17979185665585584,0.1637618255489166,0.16224911322444543,1.0259125868503252
-0.045285564044293715,0.14158853805402272,-0.06520123828435147,-0.13776203011606614,0.14982546553768814,0.12443697505762279,0.12004423685450413,0.9653407598381308
-0.038513429753704025,0.12312081966830132,-0.05557214729211875,-0.12076230033807754,0.1785896202691853,0.15877016357674908,0.15086195823653242,1.0103873098742109
-0.04280930535602809,0.1451128795884144,-0.03336781727960009,-0.08593835066399716,0.19857119337140125,0.20061251197767607,0.21357773362852558,1.0050355808252482
-0.03499886850866393,0.1540284093135141,-0.04587967510962875,-0.10642607210347083,0.19112060182327215,0.18461382068336252,0.18795668558994028,1.0377336028806232
-0.04539529542233231,0.13702000437056427,-0.05126927648554771,-0.11585876640079971,0.1774611765238046,0.15704698123907465,0.137873273915978,1.0071643519502964
-0.055828547761425026,0.14262476429158963,-0.06777931635853504,-0.13380480941028774,0.15056609447504382,0.12271834034245147,0.13053232579621538,1.0060853875343085
-0.030929514185268864,0.15503493754295455,-0.04205576228336615,-0.08574581985733284,0.20349524085427387,0.20730529839923964,0.20262331909070966,1.085326509187905
-0.035025727669241696,0.15326815134894708,-0.04019501685219249,-0.09156145306988771,0.20250061342278355,0.2031990754779197,0.1923840268256438,1.0501166496287053
-0.03899353843989607,0.1476782357346805,-0.05934065350007515,-0.11128324806975241,0.1816528701332663,0.1779253048153919,0.1495350246828291,1.0887696230831743
-0.0522404873387974,0.12864278900727785,-0.08194160610342666,-0.1344840896185642,0.15592254622371976,0.1266781667030354,0.11090558217822392,0.9897056309364439
-0.05554995283904772,0.1540391910082732,-0.04445142162538353,-0.09425024526361134,0.20644622357734096,0.19731057182574982,0.18854933384246333,1.012339033984772
-0.04348491859834619,0.15618390831587853,-0.04629088644340196,-0.08739507191974834,0.19526566343419952,0.1966020885765302,0.19183062365873824,1.0358443188594189
-0.047469417511810184,0.17174998417238174,-0.05111175783459743,-0.10896650413289355,0.18186239375697658,0.16606042478361155,0.17734314722433778,1.0337858045795858
-0.05740702110674281,0.1355821208321804,-0.07260147590181255,-0.1386168240962755,0.14478795542729342,0.13192223088425142,0.11030118512153715,1.040261592286357
-0.04938132841941791,0.15340051345088726,-0.05342347605764766,-0.10815462975903913,0.17506161052345967,0.16544275780473014,0.1531602958893631,1.012576036152579
-0.03581752105835941,0.15980190195630453,-0.04369731555954604,-0.09327243045124353,0.20212820324027936,0.1817892823007171,0.16747937783565675,1.093345245439626
-0.03471743514987967,0.16849813287056215,-0.05613815333113087,-0.10211641192913572,0.18386948707963371,0.15833394512564203,0.16915042201614175,1.0050321028104114
-0.050170309978709304,0.15087381125730936,-0.06108516737124504,-0.1250190955664761,0.1488343793346874,0.13072847409680405,0.107074693728722,1.047979606128879
-0.061871394385680616,0.14529108354164513,-0.07575238110118014,-0.1282155514932105,0.14332668287785388,0.12768225299759173,0.13133761180443623,1.0188543577287517
-0.03474039004420369,0.16915193708466505,-0.03758783883858325,-0.08186574061421488,0.18611685503561057,0.19028433932572977,0.19759370021673858,1.0728539639759114
-0.04003455329289442,0.1651794585154717,-0.04693817122733577,-0.10426684725583592,0.17887557706393373,0.17585869583675182,0.1574983737794566,1.0118394070158605
-0.03343540818759382,0.163319682702423,-0.06421469062382568,-0.11242596152460274,0.15683581076883535,0.12972843597585748,0.12974942966503486,1.0299812351321873
-0.05727380100692148,0.15919283013277488,-0.08248705984710673,-0.15219467290992653,0.12504288399571797,0.08791616250149288,0.0794660290251745,1.0475732467446206
-0.040204394047320825,0.14613251910535627,-0.0477917162976169,-0.10473400196318464,0.16434402123757746,0.17989076971612614,0.16530713831973404,1.0967889118384067
-0.049601680300773575,0.15162777798668897,-0.052724748180013783,-0.10322664899330473,0.19276572633596525,0.16852238014232862,0.16657317228156637,0.9896673632903124
-0.04011860422084056,0.17421174886690838,-0.06233855160860212,-0.11717570299562542,0.15314408125219786,0.13383642465391327,0.1312722380984898,1.0172690960433135
-0.050472515221217096,0.135336709933316,-0.07578228551606399,-0.14689154341042648,0.13444145018519146,0.10423662013329991,0.09955114016085513,1.0793802413519307
-0.03777241833327103,0.16171463676231979,-0.05959468263205446,-0.10837554522052523,0.17410282596076973,0.13358505699879622,0.13264932869724708,1.0991094067477385
-0.029982722552017452,0.15227201085005096,-0.050100720427443665,-0.10885171167567952,0.17223582787514122,0.16068729841316176,0.16139669143189103,1.0572007226882518
-0.037373811174456616,0.17252361816191206,-0.0627913598858999,-0.11487373191128178,0.16368323843148255,0.14712841199894186,0.13823425840002765,1.038848210422559
-0.059593186629020384,0.15064216179396914,-0.07481285543530573,-0.13945133544202956,0.1403320241441559,0.10452389583252221,0.10175904034516942,1.0472202261668844
-0.04963106696242349,0.15209120350014402,-0.05616780609485294,-0.11553178028069917,0.17227188587218212,0.13135536513030419,0.12424846692497242,1.0779880571896638
-0.035629475835750664,0.1665680029597615,-0.04723674031747723,-0.09695113702057878,0.17057146293433167,0.1564495923794648,0.16316424016437897,1.0917179492640798
-0.024932432107078593,0.15927614015685337,-0.0525354389437172,-0.10630134566117874,0.16684829041855703,0.1401141037505771,0.14424121732285597,0.9997638457686682
-0.04893414981603265,0.1557550601823491,-0.06381080346664479,-0.12962228514859803,0.13816971471490277,0.10699226375895758,0.1106793611243383,1.032238945064144
-0.04922961512856985,0.1616891603554795,-0.0614195558694479,-0.11952086402765412,0.1563905045824622,0.11211800922630556,0.09816080113706353,1.0677712426026602
-0.021380037788900904,0.16871249634054059,-0.02819695625660898,-0.07461173210042014,0.1803304907044447,0.18035831257816518,0.18265468499766963,1.061084269501048
-0.0212134902711621,0.1601390183699671,-0.04083621613192062,-0.08239255438419904,0.17906510747198648,0.17763696724750805,0.16261904167335103,1.043390103178057
-0.024181318958167688,0.1693868944695082,-0.0503111611149267,-0.10948367494866418,0.12729933561606938,0.13582530374871152,0.11586738613888718,1.0655214272323636
-0.040739587911164485,0.17617577963680403,-0.06678682402719847,-0.12293443803837915,0.12100856928677076,0.09286702353500656,0.1008973323088003,1.0460695648793372
-0.016016952957238626,0.17200526580432557,-0.03483517309944375,-0.08374092643690656,0.17907355894206728,0.17764898718875655,0.18158656309017973,1.1098668105608813
-0.018279453788323193,0.1659223141094818,-0.027105137626347486,-0.0748816697259867,0.17144429402520556,0.1702954255406903,0.16105040491957454,1.0951388811810823
-0.029258536486606854,0.161455882163207,-0.042368206612917306,-0.08090564072469822,0.15420698884029077,0.1377436500160503,0.14156179960550555,1.0551763815153214
-0.031491547437763015,0.15051349142241227,-0.05267092789941654,-0.12611827921661872,0.13261245060562493,0.11074164467852128,0.0704659936062749,1.0657324218587199
-0.01935959205355965,0.15617012880603295,-0.04282827717542327,-0.09109525608313529,0.17511928228177906,0.15987009313416006,0.14807334621623258,1.0844581041642116
-0.016356274444212695,0.1847034837133779,-0.029500187590917434,-0.07585992447341407,0.18430843439820294,0.1830222413888912,0.15860675633931115,1.09241992052118
-0.02689132617937386,0.15314825120085368,-0.03491283530180614,-0.0916839767535564,0.16771686494540552,0.16668905918016713,0.13527734401301336,1.0626930835326398
-0.0315927908229538,0.15831246974610697,-0.05872205941343734,-0.11347995919068765,0.14241572213285242,0.13229156943414308,0.11544973003430867,1.06019195044621
-0.02378938095314129,0.15863353484744683,-0.045552933958367695,-0.10209623985862883,0.1480701823563139,0.13728635513381174,0.11602114095872133,0.971117933980555
-0.01783217484376731,0.16723040835454583,-0.031205287671705162,-0.08035509366535179,0.18963957005117674,0.18776765743582216,0.1998310699454535,1.0423551183587019
-0.024373636070076733,0.17306537798336283,-0.03249331748911816,-0.09025809352739564,0.17644196729655848,0.18054018361270815,0.17407420644195706,1.0346951220080334
-0.03469063553242509,0.147825889992977,-0.049295233062144214,-0.11197990288784836,0.14128721074683745,0.13203186199198694,0.14567296977509175,1.0760910176834195
-0.04145158816402269,0.1613310058973021,-0.07549998652924933,-0.12947360314409917,0.11372239315705462,0.10781346532182069,0.09650966375051492,1.0610328902105886
-0.013946257828077627,0.17771126793012004,-0.03702903342017214,-0.09058903895573325,0.1831959885245294,0.19978694827736576,0.18683819467454132,1.0824822485013188
-0.027203671961014878,0.15083403965548337,-0.031254695379210676,-0.08849785052603579,0.17783252573108096,0.18590580952714483,0.18599071702013517,1.0835363235576119
-0.025883510063407417,0.17831503755059466,-0.05088771510402289,-0.10315493726174914,0.15510381955130464,0.15359145291828846,0.14266376591230526,1.0487864715730912
-0.035375714339214104,0.17942960944855582,-0.06512194437158303,-0.12728908299334932,0.13924557010838068,0.11111107835603969,0.11400400673102858,1.1274640965631288
-0.01660609206458072,0.17882272516537684,-0.04082154978826347,-0.09601172865089194,0.16084645249606372,0.15823176314235513,0.18561875719179333,1.083367178172879
-0.025636436879770408,0.17232849089982646,-0.03712771006126714,-0.09064184038378212,0.17944434899580197,0.1884769773036693,0.19325659555171035,1.1128211846239051
-0.022411801864408155,0.16275949977194176,-0.05907275091918719,-0.1088352980975738,0.1743960824446931,0.1691042935857234,0.16702999222489298,1.076841837635122
-0.04215243204912859,0.19343932320760654,-0.07079718491829771,-0.12976757239081022,0.14527996275280694,0.12625712105469122,0.1287732452553755,1.0626601166501217
-0.03184800487812201,0.16742200490071793,-0.05459690021837232,-0.10708288627605991,0.17367457677823592,0.16586643996814923,0.16834939980241895,1.0626660777632324
-0.027716910197753804,0.16444341939164053,-0.03493274665804848,-0.0952863508358824,0.1863452671818209,0.20267803387733574,0.20434540857825023,1.0815165465889647
-0.034467070725916794,0.17031454641031982,-0.044291502535742426,-0.09908961208594673,0.17574345877427097,0.18503483416428348,0.18422202975872476,1.0396773379164495
-0.03869153057715043,0.18064483497565836,-0.054493597491795644,-0.13095669660346523,0.14619688392532998,0.15138187208475432,0.15385076256783306,1.078750088277273
-0.04060530342250464,0.19659313529011382,-0.05341106972514212,-0.09319419289861217,0.17839640523441072,0.17191116442869395,0.17518217361631536,1.092136624347011
-0.02215289610493384,0.1793855678137025,-0.037911487834520564,-0.08837579813345782,0.19660654629133853,0.19413797313390693,0.19833345168514235,1.0777240890441477
-0.01608456210154105,0.1917154935132976,-0.0460631209603425,-0.09838836774024073,0.17250741581203077,0.17834450324805093,0.18425982063567178,1.0767496817430549
-0.04302692617169479,0.1952189201012592,-0.05240851770359811,-0.11839693083559608,0.15734402584024001,0.15187027398345407,0.14896072375650363,1.113000362750815
-0.04468458253889518,0.1701306960092002,-0.04239527585470424,-0.1056877178672321,0.1847210274146546,0.1711511771154383,0.1672553020137492,1.0705374755429933
-0.025768041471555928,0.1806950276479177,-0.027587748489332743,-0.06996352830483578,0.20224998316682577,0.19713671341740088,0.22883727948260138,1.1124818901236195
-0.028902938278662478,0.17701710896871134,-0.03131421180748754,-0.09658373857537023,0.20004253816844,0.18862593088780136,0.19175580530335568,1.1509677528401583
-0.03994801940982803,0.17217680247007672,-0.061255036319262615,-0.11071051966943407,0.16728861668522726,0.15859926106526062,0.14943401401523895,1.068483644313884
-0.040961193284876664,0.17727748416921402,-0.07064989894520678,-0.12289649360154058,0.16572439252876453,0.1317544000549627,0.1350479293460793,1.0941984913204372
-0.03895168275758875,0.162262516348765,-0.036469371986193995,-0.08637622936251524,0.18464442900442093,0.20080205845473045,0.20685543928882197,1.159685696757332
-0.051178737994032955,0.18142202746209346,-0.05005306996077114,-0.09101597605868912,0.18383281888662398,0.1760465201352552,0.1688707165729267,1.0634694955526924
-0.06677135404904831,0.15696346882803253,-0.05388231601665063,-0.10740825994715882,0.15821486776023908,0.16674990481947374,0.15666020233563183,1.0971308792775634
-0.06515476104592736,0.13008296464135194,-0.0646835751507995,-0.10384648979187529,0.13138363275077075,0.13887659061617066,0.13411353007651605,1.1229659378084882
-0.03020220651467186,0.11345732390926795,-0.02297679450830735,-0.034527205196646246,0.17341169398723585,0.19994217020371313,0.2050190673122825,1.1471294398941783
-0.04685823160359318,0.06796577612550567,-0.015278855513906908,-0.05229872756162817,0.1668417445922744,0.19077747075703813,0.20247373111123426,1.1961836845618712
-0.025855431589133736,0.03974969816600647,-0.007009330682112199,-0.014727012758641352,0.1232333272592704,0.15997054051561935,0.17459808349539999,1.0184000228708796
-0.009236200994132823,0.05882297723951637,-0.0026572058390496147,-0.021296170838292664,0.12238802016097729,0.12957313044487645,0.13820004013250525,1.0451873696155092
-9.245976725554167E-5,0.05593019364971276,0.011449586768636073,0.0016109829999407814,0.16420724006015963,0.17818911081184136,0.19933987693844785,1.0848961435128772
-0.0083669683109859,0.09602539547577653,-0.005494500334926586,-0.036809012526064874,0.15907002261567163,0.16137955983589905,0.1769331731509267,1.1106954017697548
-0.023848582490164652,0.08231111442982433,-0.028571621345384324,-0.07052870491433519,0.12375171002690605,0.12703949325347152,0.143145312751953,1.1284790195045549
-0.03848291664342246,0.09438830877415572,-0.048463398049827515,-0.08188295013249867,0.12419438817222345,0.09296033745391132,0.10412892099632558,1.1605446637488561
-0.028038008615538755,0.07553716876298532,-0.027075979553455882,-0.06036035730712536,0.15895798113193035,0.1721124231587112,0.18980673458849628,1.109015339540214
-0.029182700069926737,0.07684295546046713,-0.03354151086948499,-0.08193273976454,0.1392819353643666,0.14797499030397507,0.1700015984317752,1.113329133035344
-0.0463154550084612,0.0995127217744186,-0.05816956511593356,-0.09183068448460123,0.13572313786684043,0.12354957838642418,0.1293052231705706,1.2051521609840798
-0.04328994940893914,0.1157167680528177,-0.08247604649977927,-0.1251174639817988,0.10300955957605827,0.07647602234889689,0.07983914281956263,1.1414914611509759
-0.04371316438015828,0.10854351117969714,-0.04671185355505799,-0.0990737892894694,0.155208297340664,0.15197005487090912,0.15146673302087255,1.09817762258816
-0.043489347423931055,0.09398726192330184,-0.03992822739687216,-0.09643524347503862,0.16051094629313065,0.15043421305753615,0.15535266955762517,1.1144522706345887
-0.050709140451798765,0.085585735477294,-0.05699456049913306,-0.10145695979822761,0.14058936922881474,0.13358233087324403,0.12380085663875898,1.1261190373763534
-0.0570836708452996,0.1065682266963926,-0.08094636667758517,-0.1260661050845941,0.11106317580185303,0.08914251615862258,0.09364308495090617,1.091102586314662
-0.042725027585914295,0.11913301364765945,-0.05391089794616759,-0.09222007838178883,0.16004501821584272,0.14398149823840944,0.14676809568063837,1.087689117077003
-0.044090220435082296,0.1129439648214643,-0.05950887498511341,-0.10803979499216557,0.15114088987713103,0.1445806832454479,0.14437802833942726,1.0879335941839268
-0.04234039154168682,0.08845073319693322,-0.08206584059604283,-0.12157557649604903,0.12595183484086608,0.09981141160434286,0.11427899912291367,1.088807898540744
-0.06181390343569159,0.07615462666797303,-0.07843795319212486,-0.13572293218025278,0.10012151635052345,0.08301782249556358,0.06843968489852195,1.1102900595765701
-0.03993225012747608,0.09313244022032138,-0.04845150050305957,-0.08723751120270412,0.15447907592614973,0.15432195896366183,0.13820394302703645,1.067034642650594
-0.035547585180292086,0.10650481023000757,-0.05192198370565633,-0.09296358071496941,0.14826067632450424,0.1303238737923388,0.11247844915468107,1.0465636277853838
-0.04064535415114417,0.06594944918056057,-0.0749088463150814,-0.11710096474884717,0.1266937981752544,0.10197367444510713,0.09761524017958043,1.0756670340316978
-0.038013127523085354,0.06265728600229876,-0.06775372648157553,-0.11319688400649892,0.10989923434163701,0.10133034670322241,0.09979499447886135,1.0263765885297638
-0.019065679318423748,0.08721489779883775,-0.043342404638084434,-0.08615986828911759,0.16207808256185424,0.14460426087146783,0.14406425023526448,1.0465280874834697
-0.03510294544715722,0.09067180639786214,-0.04720023810942421,-0.10882932353477978,0.15641252184874216,0.12601601423695674,0.10417081750706914,1.0165022929160663
-0.04788384451992397,0.0773806622806544,-0.07486145702887116,-0.12685743834098717,0.12653491833080333,0.07160761979218479,0.07124850191269651,1.0459385983385359
-0.038818711202242534,0.1067210076661561,-0.05491108709706802,-0.12393870025277148,0.14985410699865026,0.10531481510499631,0.11709144401951128,1.0835968505745899
-0.03717872235425049,0.09649818948443939,-0.04971921309792262,-0.10553476196616342,0.1607175444108536,0.14129762991644199,0.12737438910448715,1.1486856292707013
-0.04145689903400492,0.10634103587549508,-0.05404628306202177,-0.1245197799981401,0.13615957157387693,0.11027997801456826,0.0933299915542495,1.1540673176174825
-0.05626438781065418,0.07424554344264038,-0.09230585285479936,-0.150629239678275,0.11857008327810101,0.07687906411986774,0.04907167850747657,1.0969358645311
-0.0491129183483374,0.10687344006344168,-0.06268066381644957,-0.1352774480455934,0.16147771604713168,0.10362988982371255,0.11536952908825994,1.1230590415632402
-0.033739474209721454,0.12870592559672428,-0.06468479778452418,-0.12871246740937242,0.150862405049694,0.11469371689032765,0.12607683049962445,1.047223375738198
-0.03719445197850224,0.10096594185576878,-0.07335040866312036,-0.13586902245305923,0.13051951759890829,0.09488276829273373,0.0858725624948846,1.0957727993629884
-0.053856732808211634,0.11853370238937072,-0.08050608527441695,-0.16110500470557448,0.12763023116766156,0.06417399856906904,0.06636892025117495,1.0961976581829362
-0.042655612201448416,0.10797063637063449,-0.05440858610803443,-0.12641379150280815,0.1555736202390382,0.11401807782881326,0.1334926148468367,1.124873717234131
-0.03563246596063554,0.10094735893085349,-0.05976213192243875,-0.12016476600572558,0.16330753414087107,0.11233863225201143,0.10254399244904808,1.082261896396529
-0.041126378205085364,0.11398165011205677,-0.07311768565008282,-0.14090492311644254,0.14233378083624357,0.09120699143640834,0.07497011680268398,1.0690591107505751
-0.05618859296749523,0.13487785078581918,-0.07920277932434966,-0.1512833960201836,0.13235853366971165,0.06291299236446649,0.042655884243584505,1.0718843602507506
-0.02852378537091686,0.10110655024074931,-0.06104555465667896,-0.11002454932896356,0.15909914531363994,0.13664532816681288,0.13110471989824954,1.0996352796446567
-0.04487330761250066,0.12843905762705157,-0.06263583454534344,-0.12242297541362572,0.15878691321117508,0.12141432162586344,0.09116019081203983,1.1022821765879653
-0.051127034737348566,0.1083755148375459,-0.06559096179748286,-0.142518792995096,0.11344542727760198,0.08712425662221913,0.0692121689381278,1.1226954182790272
-0.06370471031449566,0.10970068953558748,-0.07980279369718987,-0.15094815003261675,0.10803422173309278,0.059996105820854226,0.03167029399269113,1.130946167523598
-0.036298282294788556,0.12180748435866301,-0.07018483944878394,-0.100092601705175,0.16290747866195743,0.11181592718781419,0.11313985537661998,1.121769675284131
-0.04924040846293748,0.11004727693224726,-0.05883252479951011,-0.1240758517962483,0.1485646510867021,0.0778156273518826,0.09353758860947509,1.0985499401477978
-0.056481348504809216,0.0573329809543753,-0.08505905911007326,-0.14502263505836951,0.1195067310229343,0.07957208230907187,0.05627290636908038,0.9553560597608587
-0.07421497661516759,0.10042920207895112,-0.10585629406573316,-0.16947727231432638,0.10041494767578277,0.03615779869899448,0.027031051000499646,0.9459444671880943
-0.07304470276884292,0.08166788254348524,-0.0779257618728389,-0.13298562716768272,0.1494665538425736,0.11130048699309802,0.10785456067197166,1.0090715770969028
-0.06491139387586313,0.043958213504927644,-0.0778856843745755,-0.13363477826217315,0.11976943976578844,0.09739356904644579,0.07565968643878218,0.9901540160725766
-0.07287654174907497,0.050520474674326465,-0.08674790363143156,-0.14013695724245334,0.10539787511699039,0.0555025860264833,0.05083842811475874,1.0240136458902331
-0.08573631243486503,0.0641258891674001,-0.09795130596032452,-0.1658514397782934,0.07232217442097663,0.02314902660908479,0.009287784454614326,1.0686520268349549
-0.07411798851926191,0.08106263687476051,-0.08659895230202141,-0.12570983630652757,0.1260575291091504,0.09352376739076389,0.07878164878312148,1.0155665873469877
-0.05311028853034133,0.08408460255323758,-0.0864727661688774,-0.12934491812815063,0.1254332995303619,0.07351698917857905,0.05945990571729661,1.037055643367516
-0.06657887598509164,0.08397528131281497,-0.0923118603633986,-0.1364615757643935,0.09739130690092915,0.05610274566125928,0.054955605281930026,1.0258040557653096
-0.07591147217893136,0.07527165342049826,-0.09648430849135294,-0.15161006784008038,0.08906229719565144,0.03415571716585654,0.012441088734734202,0.996021516920332
-0.05323993161496125,0.09279048743156042,-0.059877426913278214,-0.10169909395873769,0.13106710129134727,0.1041329841826462,0.1049966239978279,1.0455047408791711
-0.0540168849747084,0.0903596291530783,-0.06785923498589008,-0.11592855260906548,0.12166457205393855,0.10888880412591508,0.08531648842233258,1.004168550270323
-0.06214870404795812,0.09734648498286375,-0.07332045810255453,-0.13990715065096232,0.10539924674321026,0.06115520722515834,0.060436815802093605,1.0127186972177196
-0.06308184514470123,0.07987815780793339,-0.07637151943610994,-0.12436732982536372,0.09804646030919069,0.07140620064212674,0.03667448011828774,0.9949624270694727
-0.039573597021989655,0.08935358509742933,-0.03909620064437429,-0.08070702822110891,0.13479703008355504,0.1132353907466776,0.121649341655925,1.0453470953904132
-0.050780353490694576,0.08523936706265496,-0.045154862481706005,-0.09700049498134866,0.13786856515181645,0.11463927311227198,0.10254790289779979,0.9954922076744185
-0.05387028402035793,0.08012014214094433,-0.06378220175562047,-0.11000718096046189,0.10117142528012942,0.08154540236279155,0.07294008532263045,1.008100109827078
-0.04352975356107201,0.09837551501142242,-0.04192371643979421,-0.09245473796486857,0.13680524733444954,0.0946440227936635,0.10533015202572257,0.9918927437045045
-0.030857452553892918,0.10976668842774824,-0.029298485973824173,-0.07007566755761954,0.16392549785934118,0.14753225438943826,0.14744414801252317,1.05948756255804
-0.03990644212113382,0.11372919209306051,-0.03652720891860683,-0.07869405041167483,0.15719281706519703,0.12555484159444832,0.12725870247763757,1.0279127144117606
-0.04565420866621761,0.09612457034945611,-0.04859730893673456,-0.08984870069708849,0.11599890006946917,0.08105778183304373,0.08222483257155518,1.096677312697679
-0.043586966502903536,0.10146029083495056,-0.035380527631225976,-0.0771046329625465,0.13600138515423027,0.1169823141220746,0.13088185205835098,1.1036137135720712
-0.03032646387309204,0.11964060652550329,-0.021190025874036393,-0.057438597002173346,0.17307030943622617,0.15497842430406802,0.17074535515954803,1.1578947605755003
-0.03289585458076244,0.11935518080473612,-0.021651586218679963,-0.05834943034175806,0.15443976390718744,0.13730212556859386,0.12982544452068834,1.123031352799855
-0.04772480804606693,0.12052386382414497,-0.030331840156587957,-0.09777968742169582,0.11380750512485793,0.10726907591498097,0.09950160364680098,1.0861140008004653
-0.0336625083781716,0.09704632280741159,-0.01684889140143984,-0.06657669070699851,0.1695174622243454,0.16416638109822324,0.13612927329469537,1.060781201156146
-0.019944906858075317,0.10690774119121862,-0.002381622892717487,-0.03270018428135848,0.16385981552372578,0.16447275757703297,0.1546821174942322,1.1664083849428455
-0.034400905791070545,0.10717652302409958,-0.01798131711510518,-0.0561210946056264,0.14178393225929992,0.12820234553912882,0.1240263408696327,1.0770810410782408
-0.04918277701576252,0.09447471546731641,-0.04310961314055586,-0.0634311138412297,0.12474749661325636,0.09620898648777344,0.1022065662027294,1.0926160461401841
-0.02746007237262268,0.11632073263453438,-0.015275388343332003,-0.03776256251858394,0.15390132848184776,0.17035306227196323,0.16712211557773246,1.1051254591446291
-0.037301857986192274,0.12499192663661893,6.314421316766983E-4,-0.03906202109552728,0.15332452634537502,0.17744878223361304,0.18657504883582718,1.1033098996889972
-0.03189054451173214,0.09452128888823415,-0.01875498736986304,-0.053415985020833306,0.14660432448648206,0.16342773615395786,0.15776854948823169,1.092047885489829
-0.047122015846788504,0.1030956616665297,-0.02514097827152759,-0.06997141451567264,0.12450151881239753,0.10974583707831863,0.12351048317971693,1.0987410779771618
-0.038939145102305533,0.12982200482971976,-0.01002701533798828,-0.04387502715274283,0.12815463189625179,0.17307765118358492,0.17355195092594186,1.078074140541804
-0.036056866550740405,0.117243877088644,-0.003796090194771552,-0.03001466638381099,0.16615681920429884,0.15920202451732743,0.18952197668708892,1.1111325794355416
-0.042030330223781394,0.13231068898478915,-0.01856545882298671,-0.04289302177661466,0.15253709708413007,0.15221330203953015,0.14871519159452568,1.1296769498726786
-0.04593687299112603,0.12922353217282,-0.031073004365934305,-0.06841157949358043,0.12144248430986276,0.12943707279441213,0.11064925029730739,1.0766829510502314
-0.04402462101990242,0.11600225951098805,-0.02394861805369996,-0.05212368797465796,0.12987368343012948,0.12393988825872913,0.12788861204183918,1.0942558295400093
-0.03954643731944476,0.14072111281025104,-9.859738250721183E-4,-0.022766452733071332,0.15760560626489617,0.17923477744810057,0.17942544942312466,1.1239506237352346
-0.043347345288685946,0.13905574687707986,-0.00933836689048565,-0.03717396085674684,0.15383487649607702,0.15588351435545153,0.17166597612643536,1.0977183412842377
-0.04578716416744762,0.15002786267434795,-0.019817097691004343,-0.048712484430256296,0.13850400591119186,0.12408066704295855,0.12564562518599662,1.1616119353258725
-0.04888761267626952,0.13014678534028262,-0.028889620545422923,-0.06121989064891996,0.1452394661048547,0.13473231021899973,0.12677758561076144,1.1101729047228102
-0.036992592279016974,0.12516193073044013,8.253989034726772E-4,-0.027543095693005927,0.17743763950130692,0.17929972830620608,0.19351651171942935,1.123875278359056
-0.031340551219197,0.1356468280124117,-0.00811726425023635,-0.028082760324623694,0.16150053458905622,0.1633433542680582,0.17747811134148264,1.1518093805807226
-0.0482239097026047,0.14734496117126594,-0.022408839508861453,-0.043100833164419476,0.1313571965841485,0.14336862054350868,0.1311230999828047,1.1142502305597026
-0.06052900000350154,0.1514381824257453,-0.03629966634104546,-0.06689909628238698,0.11333497350544694,0.10070696804289388,0.09488531687366267,1.0968183554102677
-0.03276100667115196,0.12834936293455548,-0.002996396506926877,-0.024851209528097332,0.15563871945867783,0.1621802719042956,0.16187897488244585,1.0722530663852592
-0.02628694549091968,0.13056511742858687,-8.769176942994635E-4,-0.0243141714731313,0.14645016344127545,0.1559685975046103,0.1659059277274614,1.134788697392844
-0.039335443187802355,0.15721213095442355,-0.01974119613335117,-0.036512452515314105,0.14714461175294988,0.13884852394091984,0.12675108072869895,1.086016421491141
-0.05555507504805121,0.12457484238416577,-0.04064398063608823,-0.06281780666786238,0.10066161961655044,0.09890151735739217,0.09909498496977041,1.1447847754585787
-0.04740406486574672,0.14902002840529438,-0.03267349991800594,-0.055009133821218824,0.11714616911357355,0.08766156959936429,0.10204186030209304,1.0672393067771924
-0.03572475493237969,0.15562307319807145,-0.005739209741590197,-0.03323071499717179,0.1537237339899138,0.13851033120455766,0.1501410631732975,1.1541928342143006
-0.04011644957652977,0.14590968834558252,-0.014083889101621044,-0.044825525246972905,0.14578284139231107,0.12420163202597298,0.11471749266714673,1.1869996637454143
-0.05531489241087201,0.13775448017417094,-0.04689090242680967,-0.07111015213554604,0.10376439903704894,0.0908915510893234,0.08441971804703842,1.0902647263304583
-0.055693592956715166,0.13305855602949934,-0.055834889531177066,-0.08892330279429979,0.0863172467568732,0.06350916735821745,0.05157672161380403,1.0921129264261835
-0.04044800967919405,0.12629756412472704,-0.03116249275898562,-0.04162008475135931,0.12841806281908325,0.11729367916789439,0.12086711031765121,1.055492495461885
-0.04096021600250728,0.14449982080391574,-0.025922945097315464,-0.06013316073510427,0.11662187853477234,0.08890021026163478,0.10253629977002451,1.0352812328091225
-0.044315561130200076,0.13558392896759877,-0.0418665085948767,-0.07861887087683564,0.08154406207485043,0.055492405853934286,0.06818532491963585,1.011182443607075
-0.07424107279825636,0.12802690630494296,-0.0795103426410986,-0.09740103344992787,0.08431537234525598,0.05590764059391721,0.04381303281800945,0.9884847280524597
-0.029355462284026038,0.13036964218569588,-0.0441040321950189,-0.063990942983432,0.1266370466824832,0.09832905999704815,0.09836446378137483,0.9461077318837685
-0.03998477139370559,0.14720251299898512,-0.039141777053664124,-0.08969869563534584,0.09605913256598853,0.07816709384635383,0.07059151460150213,1.02166776617189
-0.041456747796737796,0.1588451950676675,-0.05393779999032487,-0.1061366840261888,0.07472771472996798,0.05214877246692008,0.05569149299059388,1.0237885865733611
-0.03185798717327506,0.16002557268471093,-0.049346064911024494,-0.1004309962100995,0.10249793926512843,0.08107636585590672,0.06501488386750422,0.9894806228510784
-0.024730132491001425,0.1830603626808727,-0.030373490007158537,-0.07687133799741871,0.11548101884054471,0.10677742196578707,0.0900164183210558,1.0257005432921489
-0.023655135943776103,0.14524588367326333,-0.04353162586872477,-0.086969753515463,0.10938062383989376,0.07783205353545211,0.08288846845319935,1.059743317148455
-0.03491582351672424,0.15788037425677115,-0.06483502132765148,-0.1083458396955375,0.09780556779061648,0.05735866114698793,0.057163783841694155,1.1283673433297225
-0.026201250995844305,0.17132854202320186,-0.04708579623001355,-0.08150665716798497,0.10828565763385158,0.1031371319408443,0.10650206165063654,1.1244229932822225
-0.019096755285874425,0.17695014605754336,-0.03885146920117706,-0.08496088977799796,0.10860237778299413,0.09789853972315538,0.1238734787798736,1.1128916192977327
-0.009657608125195767,0.1734594935073046,-0.04152090314134726,-0.0922413486588508,0.1308512868432263,0.0900332879087098,0.08693228009100912,1.0446015526812005
-0.026756778632274568,0.1455188866409681,-0.049859905794777136,-0.10470558180067911,0.09456624562740014,0.07556482156512608,0.0479005407139855,1.0692165224892394
-0.00824278612211635,0.14869892254833356,-0.030780963787974132,-0.07270128010658754,0.14141859859614836,0.12254017464709112,0.1191135643342601,1.0770836370244785
-0.0099812982483399,0.12524018248736243,-0.01766463667790022,-0.06908468843304086,0.11832177357459422,0.1222698129464,0.10583749976627375,1.0715224606208824
-0.01297788164525088,0.14418892003458647,-0.040935843693888724,-0.08408968531254338,0.11238786309638897,0.07936531706355901,0.0795058442179482,1.010200799192333
-0.005490594938387213,0.14849358331904414,-0.04574471096067352,-0.10454490117070155,0.11160180148017575,0.08658832063897183,0.07694076211598543,1.0253313281261378
0.007497111068057632,0.15501621595932116,-0.016203039416895167,-0.061249315661984244,0.1502196612153886,0.12309608920927816,0.1062429654636523,1.0832149467781225
0.007606537466564562,0.1357638588122945,-0.016705721708853392,-0.08104426924109974,0.1314480614525721,0.10394929745957487,0.10539414158945339,1.0204394013074085
-0.002418954508252055,0.14811265398968632,-0.021432119177296326,-0.0998774423520872,0.09896526713369995,0.08884295563741858,0.06398540384693066,1.035798576779577
-0.014432796435499835,0.13129106409001576,-0.04080911286380724,-0.10014563552016896,0.11582992061253042,0.07741512916065713,0.07507428451839515,1.0477412494266247
-0.0047075792259030046,0.12115799081062456,-0.027265516553039076,-0.05550478078862145,0.14883400677177216,0.13122552267109824,0.12533034774069912,1.0617629456425142
-0.020053570271651854,0.151578972895541,-0.023948159739442854,-0.08576371583708621,0.12573831387448148,0.11084246648507437,0.11141354439697666,1.0166315175914415
-0.02995989298442878,0.13638835514519124,-0.04990801666301808,-0.10221342535803195,0.11398357021393268,0.0644760971396421,0.06196349986581654,1.0455855427561314
-0.017901454361487074,0.1281280946465702,-0.03342226621835807,-0.08307987237546909,0.13687712415384032,0.11894528187537294,0.10707931813837536,1.05091434729798
-0.008171983237802539,0.1571510511926238,-0.01957740493027733,-0.07463706189768889,0.1637201343928005,0.12628356728068132,0.12287960563407258,1.038293468535149
-0.013036450745650288,0.1485205453362498,-0.030489374062398912,-0.0854249723957435,0.12158981733651082,0.10368657107218864,0.10424825943660797,1.0258996861200458
-0.032510839564014835,0.15174585052817377,-0.04548433080656781,-0.11285941127128045,0.09900957365644922,0.0816835243877387,0.04548029698779767,1.0221414403194056
-0.005705438016640028,0.15578884888862757,-0.020798650553205587,-0.08164437228363271,0.16093687112832894,0.12308567872491248,0.11273193195849922,0.9848957303307655
-0.011138481754387718,0.16430421552477448,-0.01956078795365624,-0.08532786297618175,0.1633531535853887,0.11225568008140835,0.10697266176170615,1.065192791390457
-0.021761822975125626,0.16773080958179676,-0.031175949976942247,-0.09441629950003608,0.138238903868153,0.09595789838839054,0.06398819951202583,0.9951614334415702
-0.037889741156033004,0.15823466276314913,-0.05329301854559589,-0.11629622140561308,0.13321600595113917,0.09191630318540116,0.061197646195750945,1.0150567951262468
-0.02990659990360207,0.1726731760846441,-0.029841910627812027,-0.08058097833655066,0.17122660751430677,0.13935631667041493,0.1058994922744699,1.1373164824192925
-0.03004319142059862,0.17292466018267896,-0.032158917712976395,-0.10102583196010126,0.15067000217617588,0.11629842915613486,0.10612825751716634,1.1091732723249792
-0.041313059633275175,0.1892334225572334,-0.050203315674735224,-0.11744573340624581,0.14859390484746127,0.08998825049365276,0.06218705850144347,1.1418691486231416
-0.05066639934461302,0.18164450867334897,-0.04861678954852915,-0.11161407870875054,0.13803652509545386,0.091298792222223,0.08302972869464385,1.0989887948244805
-0.02928768170514759,0.14674379511942132,-0.01645015758410754,-0.07981181639114807,0.15791933270081585,0.1221361588379038,0.11357390555817036,1.162247854556888
-0.026745741333629582,0.16107506430252802,-0.034795734904112634,-0.10233704869756632,0.1422111844036464,0.11459472711982836,0.09018730892048284,1.1463732853973816
-0.03618792122753108,0.16991306828333472,-0.05082194783542049,-0.13806553528987306,0.11827830114070728,0.06758875603290186,0.0593037379765605,1.063449812176942
-0.0223110274588906,0.15725678552192782,-0.044061904528908326,-0.10393090021567,0.12886940222989093,0.09820132167595079,0.07774349121732532,1.1055656451181575
-0.012466421174113014,0.14054758264259795,-0.02998361530964822,-0.0739036746249837,0.1457968256103465,0.11271993656302606,0.09517403295872949,1.0716203652129
-0.015229476214839993,0.1701084370855701,-0.03875822965905939,-0.10349416387377716,0.13936295126545187,0.11295271016268504,0.09233626040334848,1.1485112833899482
-0.030688549384900333,0.15895991281969668,-0.046093250832004634,-0.12627760081435394,0.10604577270290086,0.08115008860658444,0.0588760448237455,1.1127211049158645
-0.02438658478611628,0.15395933227376724,-0.0317922898085338,-0.0915009147097381,0.15078270665102583,0.1265838717492612,0.09838979410080025,1.117485423263927
-0.010904016069498671,0.1433314105458136,-0.02113426407728093,-0.0726139115008713,0.1556607743083358,0.13719933667813652,0.10158124418907848,1.1464399230365319
-0.013586678362472002,0.17555213201792266,-0.024958624062928734,-0.09247174864770658,0.14447375355888553,0.102993478311287,0.07722198387249483,1.119268633055395
-0.016748858853699894,0.1533430930394331,-0.04784654716639017,-0.10596424555144977,0.14273113107928004,0.10990161282739001,0.07590188079264892,1.078311685149509
-0.0016019956463513118,0.166759239526107,-0.01230952259583275,-0.06805387354138318,0.17514653367494262,0.1426111472323218,0.11825110216855607,1.1441206808007642
-0.01119441710463776,0.156471128269568,-0.02216253360711648,-0.08437923069614922,0.14318848898388253,0.11457676056092635,0.09604388700469384,1.0895698405892722
-0.029647291418483733,0.1884145801363442,-0.03677664671352535,-0.09199344076725495,0.1463727697862461,0.10249952815512611,0.07744210810873572,1.2486620221483777
-0.011711310638352523,0.20675442896429078,-0.014924462149290559,-0.08299687342601884,0.15959547063430163,0.12256749188792222,0.12089675095128086,1.2469217019675838
0.01101933165258959,0.18181860808430658,0.0016880565852876478,-0.05369149331699622,0.17374635286823842,0.13705194907767174,0.11833674851020183,1.3036702141624446
0.009458027651593488,0.18566128337497292,-4.4195596893059446E-4,-0.07635360110987278,0.1571726740168779,0.11612238967906029,0.10303817954877129,1.2725843458422037
0.011622292695295583,0.18290973406118144,-0.025626471588940502,-0.07509945367427158,0.13470464473320679,0.10523951786186506,0.07778654961881819,1.1962322947189055
0.03382409007882967,0.17240448912745412,0.009743684241277023,-0.03238611268291361,0.15436553466549566,0.13148879684105877,0.11939796699542923,1.1423692260240819
0.02798368612648008,0.15435095585137076,0.009557460201894515,-0.034100181593116695,0.1485251298930479,0.11594810087412588,0.10640316215895426,1.096593943077848
0.016387018691571952,0.16505030023692768,-0.010303119350134437,-0.0536817813926701,0.1383325794032102,0.10043670978028925,0.0818962871938576,1.053613624209801
0.02183433311038382,0.16568321413128617,6.17895763018371E-4,-0.06841153653158044,0.14537862457822243,0.09582760418499132,0.08748153800672806,1.1082663638844512
0.03510204388572015,0.15785027958222259,0.006443940227902371,-0.022796487617662533,0.1639583600380497,0.13369263906379,0.09295319272111761,1.0566999508327801
0.02528385579194062,0.18073857078566982,0.00869184117462797,-0.046730084006532564,0.13459715915114112,0.11098611415893699,0.07881700293639578,1.096041349912793
0.01149221752769241,0.1602492659608693,-0.015660955161371743,-0.07783732376337858,0.1373217327945644,0.07339369278168006,0.05162941334461782,1.1695720637069664
0.018891189199296665,0.16132680489354914,0.010584231783556492,-0.057958123390396826,0.15588933816580974,0.1135032019772393,0.09638933539746151,1.0776410494841588
0.018576438525162862,0.1470709331815113,0.006008579460876247,-0.0531708824684008,0.16705001766245073,0.11264200872480416,0.10545175143950244,1.0994227199045612
0.012050704461774293,0.15433740416837924,-0.0075075844395138865,-0.07127353897686808,0.13729095217944837,0.08778193123656852,0.08481413579934616,1.101124517004736
0.008644163626865518,0.1583680961199491,-0.018794837106197778,-0.08618640343229259,0.14209987193791962,0.07086266613557146,0.05763017779746919,1.0566497789460223
0.021125353936237,0.17292833734794968,0.003893471330357792,-0.061974676205510545,0.1657424536970393,0.11917457142751903,0.10294070095466017,1.147351424732622
0.0036687822855697733,0.16541830147515832,-0.0044327889483820465,-0.07378157563756665,0.15843863403718197,0.12205764878927335,0.10033437599946794,1.1682879693238297
-0.0061177336915791405,0.1500303898018367,-0.01329693260156883,-0.08492881758171254,0.13224469336478067,0.08297742210480967,0.07715706744838119,1.1573750001387797
-0.013945403573598568,0.15635044784141328,-0.028958640093036114,-0.09185015413379596,0.13334869827387347,0.10566501132257616,0.08379533401378654,1.0872083243566248
0.013050591300821967,0.14546774556138584,-0.0022658808570186167,-0.07439379529386879,0.14995248525424032,0.12370192126164761,0.12072674945130532,1.1421039093716274
-0.0016093911570167789,0.15134467827835307,-0.01448828879355639,-0.0792833085115466,0.1456904668404329,0.10353983078407342,0.09466200039547727,1.1010304619538074
0.0027756596571241123,0.18250951923108188,-0.02555095176830521,-0.09593002880866744,0.11427299800536389,0.0749405398255571,0.07044390601356273,1.1197461539959825
0.023926483572113705,0.18130921048751694,-0.004569699475714157,-0.06378257764348892,0.13815048644762806,0.11666283867581694,0.10328802933093946,1.0609046525925019
0.029664579074134806,0.16250737726569392,0.011031820765319927,-0.058316229484605464,0.1754986644546461,0.11692197864356035,0.121860452759025,1.1033846399859017
0.021628793655880187,0.19148516418876013,-0.013372569377682025,-0.0738813440488913,0.13226148433498897,0.09940401174867675,0.09824394327528053,0.996415769032629
0.013358081059568785,0.20422994129827213,-0.02016364637980929,-0.09141976050984613,0.1254090790989176,0.07694288626824929,0.0585518734022615,1.0751062918404175
0.016287540363380093,0.1587040015275814,0.011442520206843644,-0.05819599388684059,0.1616399024245134,0.12994380273435766,0.11890450192928774,1.0614643520640468
0.02725760929198472,0.1899729033869153,8.768816586343937E-4,-0.06889349861212361,0.14973078156632263,0.11635784341870789,0.1035900327010446,1.042839424618091
0.012350802777127195,0.18562434322605983,-0.01709652850693895,-0.08885961147090321,0.15223984247663094,0.08392908386020015,0.06530965290391365,1.061692438059943
0.005674493446221339,0.1907161804959411,-0.011130258234700494,-0.08001739687025188,0.14914700254395916,0.11982477067228861,0.08764787425597503,1.1644438641867176
0.010070760822944093,0.19407562235144107,-0.002126700523146693,-0.059091092474815074,0.1779556057455932,0.1320511902526603,0.12851391478133392,1.2368901161894315
0.013632667397172714,0.2078123759693294,-0.006484401925723424,-0.07053223567281862,0.1626926562107376,0.12483396881378851,0.1129013545629634,1.243011414090962
-0.010781555140721493,0.19860420676137924,-0.02777127513778263,-0.0946154408767514,0.12820892460943553,0.10339002641948104,0.0801982829826331,1.2896034625544317
-0.006125954333904795,0.19356032469564854,0.004221518306872818,-0.057789607732854825,0.18839374786991087,0.13444417419176632,0.13904124825126504,1.2748733889103943
-0.00204090544845763,0.21583320411577123,-0.0030115643504283708,-0.0642856488748194,0.17264489022438517,0.13563073723197813,0.13965469164447586,1.2477076201282444
-0.011744199498404165,0.2064228780378467,-0.015947262842850446,-0.07124133702636432,0.1733562017100277,0.12415376578570403,0.12832186287163758,1.270053686861801
0.00395512586083268,0.18457703972162665,7.675738826907402E-5,-0.06032100292667635,0.15741705580464777,0.13231620938501926,0.13317126722378297,1.2235852625204484
0.009227847475413463,0.1940603048339803,0.02898564491327123,-0.03396752061931382,0.1751867180089716,0.1660739190877002,0.1595106037900396,1.2295050691871376
0.004112658262959653,0.1983195027672532,0.01162549652675849,-0.04936851559514319,0.1737511980024854,0.16102519333334425,0.15276124859286433,1.2070581739513355
0.0013396911291393833,0.22343292800447392,-0.004935063506181474,-0.05592696168876119,0.1546241620662533,0.13345039220282026,0.1415535884487717,1.269527304242777
0.016040429273041334,0.20095085879975091,0.03744035476818796,-0.004961172428924451,0.18585335927477084,0.18921761616865515,0.2017691020880134,1.2700230594071653
0.01926540479159794,0.20326119288014602,0.022356209557001787,-0.0056934865389522485,0.19777096871682504,0.16921712508436115,0.1961760781809142,1.1800636594816285
0.010699235423163598,0.21819470346895742,0.02946684527224229,-0.024140972122186317,0.1756396644574069,0.15441338856386982,0.17970106899958646,1.2864382104649783
0.0244632996546622,0.209891788138929,0.03637552437739128,-0.006298300317488308,0.18992712393368918,0.19633225180606356,0.1767732658184245,1.2577452314350899
0.035396036089272026,0.1973016139160963,0.052100349581626605,0.012141678168052504,0.21254588106266353,0.19371588033558934,0.2162317901317844,1.2105077515320564
0.023025097442136086,0.19783383901388266,0.03416737382415641,1.9840555574566406E-4,0.19822044022065166,0.17157834571541272,0.1931316752365059,1.2122322996786332
0.015162993928664083,0.18332772636727343,0.02756827768504182,-0.010478859147069055,0.18037790794010305,0.15040780542436277,0.1834187164929277,1.182063954655579
0.024774417524624205,0.18847058756196333,0.061190052107379794,0.028305873686694488,0.21757911600965024,0.21695355847605988,0.22575920604377292,1.12947518529313
0.030577393836114217,0.19752212233090155,0.06054923880495295,0.01643881361048934,0.20007420099057957,0.2016428561045015,0.21872492814217465,1.0763557118957043
0.008435883372501621,0.19009058677290622,0.03367277366220505,-0.004148962029497642,0.17989136922484888,0.17166346310538372,0.19716762543428334,0.9877428417908601
0.02596962237919324,0.1741800397104354,0.05006999374624214,0.007345971125370649,0.18959305582510647,0.17568619871535524,0.20139755313849284,0.9634732721876403
0.03974193796014568,0.1987779081274599,0.0742777663636376,0.03830194142291431,0.2107856750706954,0.21897472597536438,0.2357492482634117,0.9485423864709467
0.016258182058894875,0.16562792935157578,0.059979559094744894,0.02083519882298295,0.1977450300801059,0.19565430544446888,0.21374047949467925,0.9952907111230309
0.00977569870348341,0.16464882971375908,0.046067372220293744,0.004049697000297272,0.16925988755217192,0.18002077845448441,0.19118246327617622,0.976058704036773
0.030054188087898063,0.16170882321588967,0.07500611306470607,0.04936374394294695,0.21782889264004276,0.20938894362138238,0.23880266695496719,1.004789560337398
0.013636944193008238,0.152869375032683,0.07595107355055673,0.06263586387622512,0.21200043795994275,0.22797771438389194,0.2405083528287269,1.0387195129450402
-0.005236332087832796,0.1681712887649163,0.04803805038291851,0.034902705999507816,0.19730079587652272,0.21795975954933353,0.2176538896050977,1.0770345266367924
-0.005365636997451606,0.16033886829774166,0.03928173159463386,0.01463249588499665,0.1574996449924388,0.17294796183100286,0.19342700791719683,1.1077816014610888
0.007817852592654695,0.1599663491191865,0.06360340925628563,0.04877919604755435,0.1923747221743085,0.22865585434845725,0.22194909153666884,1.1057187365131496
0.0036761785709100102,0.1257302617604117,0.05658126913176658,0.04548958616297183,0.19687369474910385,0.2163153521742387,0.23259755943292046,1.1928208031722227
-0.012626580645332421,0.12956735536600167,0.04137562299917107,0.02199210251459321,0.18031925514679295,0.1940052584580837,0.18908291455146234,1.1349393743889298
-0.033181159482338934,0.11293245769964101,0.019809701033908802,-0.014902803633139993,0.15333542316250326,0.15827826487433053,0.16333142461339367,1.142494846923318
-0.019823767395009895,0.11170064083136946,0.04388311175017231,0.008932508654410065,0.17421247188436553,0.1788950505987306,0.17179128162482668,1.144431716915044
-0.012720768287152202,0.10485720238171763,0.04049998410741163,0.021078308134446402,0.16886901843178242,0.20762482442001012,0.2051761970886681,1.105976300589282
-0.019838494433949062,0.11330633124746141,0.0275759494937949,0.00765836658452941,0.16184274703088083,0.17714838739854352,0.18631421892763886,1.1339466027003797
-0.019992088182074437,0.12431647481326659,0.02597509768644352,-0.006151967672001212,0.13148596335751325,0.13028937062437626,0.14097575091671513,1.1733254763163794
-0.007351607528450867,0.1083430325613887,0.0326473234308937,0.014047450405276935,0.1548812575617785,0.15489978714418295,0.16278303997431035,1.1285490068560804
-0.007854982765013665,0.10748166143817937,0.040858995829035905,0.018800567074890615,0.15446671277012206,0.17432506885852336,0.17039680209898855,1.1317674092846595
-0.013015416428716611,0.13381425594591417,0.02481858082043935,0.0011052717817079648,0.1425368149700768,0.15684949138919504,0.15420396594665536,1.1180680293867875
-0.0327325245153172,0.12308263459460507,0.009908191491889859,-0.025818713488064172,0.11968150781990763,0.11582248793505369,0.11746350272043107,1.043243559771373
-0.020745171488862832,0.1150075594293773,0.0358313857609145,0.008526161317422447,0.15645711566313966,0.17087850152101455,0.1658517804920968,1.1867109909342672
-0.009374366043636496,0.1270903160209568,0.03370250495579967,0.00490494913465086,0.15965840941663714,0.1552877316857816,0.15648717826217315,1.1179567349312716
-0.009637312178365309,0.1393281788237248,0.019368652324683506,-0.003404736739907413,0.13076836818577037,0.1278134660184451,0.13576558256329094,1.1019947312350533
-0.03514582313372122,0.13012440590226576,0.011257194786329824,-0.03118628767158025,0.09768164099539026,0.10640677565264804,0.08727029059956057,1.0739689614627717
-0.010672718102382623,0.11788700277210838,0.027137462326075012,0.008223283291602957,0.14992325089846978,0.16155588201257362,0.14443024786976966,1.0473588180446858
-0.0036119057305694616,0.11609223948425662,0.03258278641772711,0.016126360145804014,0.15127597770582954,0.1584690344993047,0.1497516252102355,1.092643273313727
-0.006956259777134792,0.11675503072186887,0.01568224289347954,-0.029003375765098968,0.12451769675582841,0.12996797487014397,0.1125372089365882,1.0464730403106164
-0.041969859325793675,0.1222273582820337,-0.019444063601744596,-0.05725103029142181,0.1019040422984782,0.07624333286989461,0.0627989020397099,1.0592718160740366
-0.029170253084906488,0.11553981965534063,0.003269921977799521,-0.034551828628469075,0.1457392944422131,0.1297275942097368,0.1471424260765948,1.0530371291709832
-0.03573836550466585,0.13796877805768307,-0.002665445849068428,-0.040198762415974365,0.16764278850939743,0.15532976342850444,0.16849150044686517,1.0683499737154072
-0.0376457811281781,0.13097957441266392,-0.019922283055116563,-0.0652284116805643,0.15099954958719614,0.1388932887365039,0.1372454246190903,1.0456572990079958
-0.05780434581902548,0.12280886087154154,-0.021939956955178034,-0.09839808005741679,0.11039446691954317,0.09074740636620827,0.09607184339830485,1.0852049259504524
-0.04110350050451186,0.11517606681701946,-0.023400493685904113,-0.09003463110332165,0.13333816732994289,0.11030680649608922,0.10245751550920386,1.100372429198042
-0.03144373861602422,0.13690860230508312,0.003080280020611723,-0.06286962059373448,0.14535682850451412,0.15350826087817698,0.14459415231320982,1.060561810907607
-0.0350316824537491,0.1253423138500033,-0.0029420423878933387,-0.06864446885527921,0.1356913212790616,0.12609637950666666,0.11721406310175733,1.085671985349324
-0.041887391907153994,0.10841402577957776,-0.029529270457787565,-0.08992580002146157,0.11232685747558378,0.08764305217501438,0.08471920291419217,1.0596568780989228
-0.05448077441000873,0.13295580453402678,-0.013356894390041816,-0.06844652863830408,0.12265739334077569,0.10886588239360495,0.11359048264374734,1.1055577642600376
-0.02846362691707928,0.1259121218291299,-6.701353293687663E-4,-0.05058432199357653,0.14726713719050502,0.154567738391786,0.13272299495010303,1.0138502092479598
-0.027143084312268275,0.11472299638461908,-0.009573744527833427,-0.06008407369801414,0.11460584566037076,0.11153186937991807,0.11244790434168445,1.060187456326556
-0.04872347427495841,0.12163142394085415,-0.036758208548343094,-0.08153779655822593,0.10089222585656504,0.08481108335869342,0.05998396392820554,1.0938799264368984
-0.04159777135272317,0.11334335456337623,-0.02588232304703408,-0.07209485705667495,0.12174715029106177,0.10074746571334624,0.08899637003683013,1.1148406030386964
-0.033912439210172916,0.1295208922864509,-0.009443631005529734,-0.05295859652370995,0.13618821429718025,0.1501850897374879,0.13601884732898922,1.100149505420258
-0.032198177885122276,0.1244062750498169,-0.027408430503302553,-0.059766981993123296,0.1303746754397034,0.1276465051612705,0.11608336807291281,1.1460407647199553
-0.04776432188988942,0.12516395589182192,-0.05258525814781393,-0.1027555132464446,0.10263778861957239,0.09944911633675786,0.09297924666992158,1.10664642255827
-0.0610829444529293,0.1115335917944596,-0.04023973121280841,-0.09561664541502271,0.11061070916722317,0.0883313463240597,0.07936342139651446,1.1047106496656782
-0.053067267414691005,0.10050210176987584,-0.015455733106928436,-0.059307590223917496,0.14340164293396362,0.1366510013997786,0.14224793839184183,1.1097297993060637
-0.03643424281756352,0.13420211181204686,-0.018143089628251192,-0.0545382006558351,0.11140638983899044,0.13366894422012549,0.11944464324730446,1.159547218984586
-0.037387206227915075,0.13420542132633256,-0.020718402699346057,-0.06830221355377115,0.10168573989308001,0.09155979411764364,0.0798228984131116,1.0808251106120352
-0.025347472171208994,0.11740460049469455,-0.03728952442670255,-0.07710146954436708,0.060622955420595794,0.056677491660933936,0.03344193234494743,1.0938815891898324
-0.027635757608862038,0.12257635576457476,-0.009100397102599573,-0.039153648300286004,0.11813392346062548,0.1302587521301398,0.12945463424997022,1.1547622119232597
-0.019243350053823303,0.12438548496845529,-0.014169507287726075,-0.045637555387429925,0.1388424361333257,0.11172811939841953,0.11127799192712326,1.1107463900408279
-0.03796505024332076,0.10104497136254026,-0.03986777407438602,-0.07189384139289816,0.11189094717037264,0.09594788627391981,0.09507465628224887,1.082578071096891
-0.053770839048616355,0.14286747155886176,-0.04948918947943575,-0.1253133315454125,0.10505746233751613,0.07697433079493607,0.06565664953443656,1.1301828187735856
-0.03789966860732517,0.12616049302705773,-0.02817437707648372,-0.07229189147826881,0.1338563598306477,0.14536815432056732,0.1460433341707926,1.1562514060922362
