0.23201284126965044,0.23533845605954612,0.19571954822530774,0.16488765627873508,0.2250921999406115,0.32021076194360576,0.4175868971357389,0.996308408174052
0.3108337680650093,0.28746449565886045,0.2899043565263787,0.2902156828860104,0.1825049056861858,0.33964496193545246,0.44099456441954754,1.073135329460264
0.3422051707063858,0.30070272585436014,0.2800310104662732,0.26466695028607057,0.185704558012861,0.2916960834302868,0.3786592394945952,1.1364441189900196
0.3073643504101292,0.2976483028085495,0.24754587162259561,0.188790974835378,0.16767522644053864,0.26067242457366496,0.32029448310507047,1.1213057267715887
0.3232974483504007,0.3063251935976119,0.24619680497543078,0.18724103012885787,0.19802144504948094,0.2792417186454068,0.35831127401522683,1.1605489132357436
0.3544727301865972,0.32048531721164775,0.28349542477609363,0.21957070830865388,0.2731685760171912,0.35172573545030567,0.4363942794627821,1.240336445693703
0.3579978652492969,0.30945887116287085,0.28917175092897424,0.21613375340139512,0.2691517115496342,0.34933413882277764,0.4132718381871131,1.2383780930766466
0.3546888697152838,0.3147127647489061,0.2710360521404588,0.19916479419190686,0.23336832765869572,0.32655029804213626,0.3851917412458108,1.2144975955335982
0.3529293325521175,0.3076416968456992,0.2518673860926014,0.17804248553491464,0.22331082181860956,0.2870042674009978,0.3281611457589035,1.173466332751128
0.38640774601334654,0.31898367185912696,0.3029854205864414,0.2284209605907233,0.29094241341090116,0.3855929772260829,0.4540634933037977,1.1840935084845003
0.4126718716226111,0.3269878633333011,0.31056570799762084,0.23610602390088326,0.29945190015842493,0.38416650572501243,0.4553877935040231,1.2330092649910214
0.40622959401239556,0.3218077489134298,0.3066625511890055,0.22427325055026254,0.26544753884886135,0.3606527788837895,0.4341676783590227,1.205117004068037
0.4045588398039084,0.3342040704149456,0.2870988942088949,0.1948648920837388,0.24075225585587898,0.32416883826218573,0.38705098642722335,1.1284982384275493
0.4050117614899581,0.3297226046389571,0.30046106165316816,0.20831032049194884,0.25974262793800496,0.35167917727994236,0.41960699955893344,1.1971847723541902
0.4398368688866059,0.34341894682406554,0.3361382826977284,0.2613069620921841,0.30890835291558266,0.417237167863735,0.49180349032322457,1.2438560651758268
0.43185141826712947,0.3374131578839683,0.335779268011204,0.2506836562652662,0.2880518914264847,0.38504216525462376,0.4818504840752176,1.2583544752337272
0.4296128813159001,0.33640350317418344,0.3136803631209105,0.22253733938216125,0.24796240887767285,0.35217918921593394,0.44179888127574657,1.1957543831711896
0.41504878713623417,0.3297453487985061,0.28771473942674486,0.187351320216611,0.19669265158076663,0.31784712251024794,0.40181288650120983,1.1612906742974665
0.4420835245783175,0.3271721539428989,0.33317846271853946,0.23875853747219,0.2715320079375203,0.3964217313346223,0.49538776795891365,1.185268583517199
0.439640062820708,0.3246645005718027,0.33074696170104434,0.24782056428835303,0.26156992481024854,0.4127155053300648,0.49091571922820965,1.180875241416467
0.43474597497467793,0.32368871613388384,0.32230401274328335,0.22407502022892983,0.24278131124401564,0.36809904777489,0.47230237583856155,1.1574275672213807
0.41929431193588546,0.3074880379711684,0.3009662093262516,0.18962074179292698,0.19885351893588726,0.31936432175507234,0.413455165198193,1.1327434588941292
0.4251993623988919,0.31634544993370056,0.3021525666638326,0.18579704722325524,0.2227263779457003,0.34105121423783913,0.4417278245504707,1.1215567049643822
0.43561763153589805,0.31045842329633133,0.31664806816747487,0.22746692209986571,0.2580784740372668,0.40310639158348593,0.487238912275947,1.1661087250186193
0.43479002493658647,0.30963416492825896,0.3031451334389712,0.21872018424363812,0.235038575067032,0.3691316570764554,0.4582346228856397,1.1801543684576328
0.4305366498828288,0.30695335339484453,0.3065248021638431,0.22517454484401006,0.2182127399762637,0.32618020393850056,0.39605219467863906,1.1361965876403939
0.40642338565164937,0.3053666689460074,0.28844077931186557,0.1959939801581299,0.19028623645379864,0.26815813736328376,0.3092284890470486,1.0490587695452689
0.40585954616976794,0.2975846812960026,0.3150951462376378,0.23632263017882715,0.25238144233071774,0.34183220307503076,0.3965074327441732,1.0956341852233655
0.36162988027069953,0.2792718586258302,0.2737725514232187,0.20375098295277985,0.2583598706659648,0.3256808438048854,0.3798595172595966,1.0780706327635952
0.3191255246034265,0.27192855233944657,0.22891469190427044,0.16140834771638818,0.20810468965601592,0.30068372143852407,0.3366137808711395,1.0705196663719398
0.2728152399680607,0.253447907420839,0.18651087886522977,0.10693199916200131,0.2000584073612615,0.24054749104059323,0.2796890139774418,1.0012613825906937
0.2612799650731904,0.22633903434657635,0.17653625106597626,0.12345304794012392,0.22625703710001127,0.2880891553619432,0.3211247490378762,0.9701081231118539
0.2460801159109246,0.23478679125199942,0.17131443537069058,0.12151892018236914,0.24299237865198156,0.30948520238999644,0.3355774994364719,0.993326872175561
0.227488035324089,0.20747048983494187,0.14785456759589516,0.09619293845489357,0.24792019519747024,0.2918025409036394,0.32363913860472215,0.9223944339012264
0.18391611748043485,0.19861501461693432,0.1077107338915155,0.049238625369057765,0.20237566143333294,0.24238381373827766,0.2828459566348031,0.9059304884364197
0.16322414755742945,0.20058135097787208,0.09867444761004954,0.048344769211117446,0.23956151682022386,0.2820975567250316,0.30325436169241715,0.9730857836237677
0.15652009526775626,0.1989098654464329,0.09686407590355196,0.04967095407867757,0.2747087945611783,0.31095687158671886,0.3695688495430721,1.062339217039688
0.12646650275331922,0.21107588337333702,0.07465984273413631,0.01260061583952616,0.2624438515121479,0.288786569467876,0.34300131382843024,1.1383078681295629
0.10079162299127917,0.18978729080702722,0.034323513807899775,-0.03782802115061357,0.23672961869261405,0.2414679166152886,0.3002801588037624,1.0673850390500352
0.09071238871536899,0.17938787558898064,0.015585743653797945,-0.04120273687672715,0.1849821750828945,0.2269927065990995,0.28166653031895583,1.075342805326437
0.14214296097854656,0.1661077090813967,0.06500481606663307,0.011736239939935889,0.2124252591740895,0.2889550406606421,0.3605434210205202,1.0933800941314438
0.1558506342541183,0.16025174790803431,0.06256085407293027,-0.00809519950176317,0.18739175704263472,0.2502870733169853,0.3349064330556222,1.0699728812524394
0.1471339706677897,0.16461164945904216,0.04708715098450696,-0.014487007407525947,0.1389964220953751,0.22904592220857387,0.3030338168119991,1.0808526651773867
0.13069441848918373,0.14030608555294238,0.032766180307355175,-0.050874445817902327,0.11450155122660516,0.17552243896798966,0.23528207633882645,1.0279069174721795
0.18829738144197336,0.16726314182068527,0.10698886633293422,0.04561909386620002,0.1702467092668399,0.24006815440918344,0.3149806064909281,1.1146859211969096
0.2732795534821733,0.17461197207923038,0.2704260466403278,0.2895204908935654,0.1421863754149974,0.2281842622971907,0.2776553872754215,1.0751275221070955
0.20379556382172312,0.19522327137534884,0.2350955763883339,0.2624739472635752,0.09475238080753215,0.1340476067343147,0.15375279785385804,0.9197902968346984
0.10033728509133573,0.19279801160932558,0.12175805775988113,0.1440437912153668,0.038101579349339484,0.07215648351770362,0.05088292051805847,0.7593413329258213
0.05290082575996674,0.19322525126374707,0.08626404327813109,0.085896474986968,0.046812505824846105,0.05283563414146332,0.03433691884972003,0.7218202397659405
0.07772315348688949,0.20197251285631793,0.12023990226044486,0.13536668501915278,0.09709668244150907,0.1448861771618769,0.13271609344858745,0.6987851294036641
0.05940028015207022,0.20711542707418745,0.10051171525952875,0.10283737229028232,0.08427149593903235,0.10732834983574038,0.08744304779539883,0.6927935647154453
0.04060767787504816,0.1839910883261427,0.06663554162004631,0.06289657820769187,0.05824290717831831,0.06993059025169925,0.05034505563623071,0.7264592914649375
0.012385859000942766,0.20526099807344605,0.01746702610720539,0.017351152797778636,0.01877886067185366,0.02969119882808946,-0.014802059587018657,0.6239021529049259
0.038823498732925225,0.1715526639973365,0.05622266940496767,0.05678959242850276,0.0712656903395664,0.08490501384184074,0.04700457640873881,0.6568290128043124
0.04150815387890022,0.20542552738599676,0.06529606290272606,0.06598227917793618,0.09600979456618529,0.11333959752980603,0.07233014255351328,0.6939382165283857
0.03133776050250063,0.1973204661998294,0.04803554939847842,0.049210877992262474,0.08574227925421958,0.0729275681059315,0.03879241471042784,0.6685377023029443
-0.022834863243487245,0.14581909342620952,-0.028530116154322948,-0.0693302870264022,0.09179743151454696,0.039861896494529446,0.024021366052508406,0.7493493484440418
-0.06809088989333296,0.11490483082567841,-0.12169574325814309,-0.19147986566745684,0.07034191315534837,0.01694297660516999,0.03904470107669627,0.8531418813207259
-0.026696047457549568,0.10442238410285089,-0.09925995849836623,-0.18162863964431553,0.11100351760774067,0.10307745394038689,0.1808138730220794,0.9079908416575281
-0.011813631879765031,0.1271187472975227,-0.08178835567421679,-0.15237192968584778,0.12135876130758114,0.13616886242231027,0.1998836876685828,1.007863649931235
-0.005236979105885985,0.14861656213310426,-0.09141922789239672,-0.16548758328917212,0.10705835881311461,0.11611025684404215,0.1622437028888153,0.9854365073796582
-0.011907906075102706,0.13523091131389023,-0.10420347967448787,-0.1880398242020342,0.072839624100496,0.06285222151806054,0.10592433709492918,0.9772500722916463
-0.004802815206361934,0.15049626235164582,-0.10787723033460589,-0.1993863687430641,0.04876588495652045,0.023496873330617587,0.06405687271331509,0.9711473061159431
0.04345211738442806,0.1369799683710276,-0.04509245913592931,-0.11390961314203768,0.13459012409644505,0.14721551914015782,0.17946985556160963,1.010217689482088
0.047236821693662855,0.14410043335407474,-0.04044689699436888,-0.12115704037678764,0.12352217899774388,0.11610245106360895,0.1489274811806149,0.9736198558265337
0.04954668081430842,0.13227322770607644,-0.04923956065394712,-0.1337602330698587,0.10640898132904712,0.08841307557328346,0.12428737010676269,0.9289112648811562
0.03633520680764662,0.13667492586717736,-0.08145084457833447,-0.16507536526148037,0.06463969806257558,0.04561144265923338,0.08392242435792788,0.8983572142125524
0.048415915473322156,0.12864999726998325,-0.053763281611584376,-0.15049774035109376,0.07222382198181229,0.06500930055757018,0.11844222867006178,0.9539338230606915
0.08384550124701892,0.13385908926016304,-0.013584725739333139,-0.10170194171430816,0.11774249847431897,0.12210232661070575,0.18338173551022197,0.9553072951271081
0.08240881601949547,0.12227275484501599,-0.025863588500190098,-0.10901582081061233,0.09612868281311321,0.10289013849997897,0.14669736313330772,0.9046129617280448
0.08164684265459929,0.1377778860559026,-0.02766083912689972,-0.12136194157230329,0.08228719482894097,0.06887231467683674,0.10688357309172772,0.9282018853051377
0.07290617223403989,0.1085023676086955,-0.0540144104270902,-0.13080237778719817,0.05286442810389693,0.04115394152332538,0.0738174041242882,0.8889105382607447
0.10715730530729564,0.13951325040726043,0.00725231499305182,-0.07745474250229484,0.12844903437817168,0.12841809647420724,0.1594291042156523,0.8905244574854689
0.11037008539953388,0.1358128198150449,-0.002088077873811183,-0.0827543456215585,0.11659498788758763,0.12565978169031644,0.1584897770033256,0.9402346429816246
0.10933184326115925,0.14605927213177544,-0.003870551758841154,-0.09373640985747969,0.0970077246944501,0.08484298285464831,0.14123057807370476,0.9139752302900723
0.10667891954977811,0.14630942197630822,-0.016337437632996367,-0.116737842287762,0.0703998615479782,0.05437367536688675,0.0966685263965707,0.9156552013401551
0.1323965377081651,0.16831040772793573,0.02233660857142765,-0.058224103165594204,0.14232405479018692,0.14890126674038046,0.18687340283511197,0.9879557652293127
0.13572728507166032,0.13993633087734983,0.032310328355889914,-0.045410457923510464,0.14825947843357706,0.13850897460970785,0.18920205987078745,0.9174349152872393
0.13241078791062416,0.15378202521191806,0.028338612959670387,-0.06464912091194572,0.13091717102020864,0.11192090811697314,0.17404183545282023,0.9054804770801308
0.12551048652915295,0.15506444198497815,0.013991893048333853,-0.07806539487693344,0.0947603469501578,0.08125849114778047,0.12574825282269178,0.940498871566691
0.14515256942108837,0.17102901147132374,0.0637411400592647,-0.024234681196139737,0.16487577553637747,0.16897804842478803,0.1955061442305192,0.9841839165210043
0.1494182634022027,0.17479910062764267,0.06435975976852765,-0.020463465375698528,0.16633789244314168,0.16993697850137052,0.21213375469000378,0.9576977630423359
0.14988064178319138,0.17774288947781922,0.05270410604768536,-0.025301172166727618,0.16262053822892894,0.15245869213258698,0.1999036951617319,0.9478435673177155
0.14188907162439543,0.1731196753089193,0.03585595589057085,-0.048525036424948306,0.1330952121799222,0.11456678101218802,0.15646424635634604,0.8989581796364685
0.1550635939602683,0.18686352815553414,0.07541370111673044,0.0010031578046633188,0.18683227256431356,0.19390009924488896,0.22589652050559758,0.9617642651665792
0.1580300073284871,0.20433449925659866,0.07560098498489837,0.0032878871228578617,0.19780485900147157,0.19851500077285866,0.2499864464220708,0.9833727433878068
0.15180134423306815,0.18950377426163442,0.059931691936107236,-0.01600437124768458,0.17057984620974176,0.18715907383787891,0.22007320264932695,0.951442697830664
0.1314873503471117,0.18156375280180406,0.04186860891805004,-0.03862783990372111,0.15976385450923214,0.14586846283418947,0.1798566379216708,0.9925298215786007
0.1500860965628893,0.1961428532025115,0.06366209517468889,-0.004616443418043521,0.19984440689520827,0.20846017422552324,0.24071350129739366,1.0264282607972168
0.1522888732586283,0.19387946423055866,0.07051076298084771,-0.003778152944147555,0.2136702965404812,0.21234841151133294,0.2580421893629269,1.0073069277719156
0.1282649191503667,0.17356237469379074,0.043805119397204884,-0.026036404948022847,0.1769404456182569,0.19732013047040148,0.24335276749270532,0.9902048524117505
0.11875745789283682,0.19171827216329992,0.014807697450576897,-0.06778548943055139,0.18102915184350415,0.1714532458049622,0.21653154827625892,0.983496694605765
0.125772386824761,0.18662508552744062,0.03325579447744315,-0.07771854745834339,0.2023198920394759,0.2119328549862974,0.27011380656388106,1.0230539643293977
0.13376030470008748,0.1831308734730454,0.042764483927086025,-0.03723963476668253,0.20494846620080287,0.23979836281772574,0.2878148170077575,0.9822716432688476
0.1195768439981687,0.15409077305038937,0.030685995134234693,-0.04750540890416364,0.18675886796583344,0.21646430945215972,0.25900378396477475,0.9347042335556786
0.0993622335980028,0.1576504884243094,-0.0054250025397940965,-0.08518679672032609,0.1650167545180918,0.17732498164426108,0.2244271645017525,0.9435432194456261
0.07410535685791683,0.14701790678211477,-0.034231449744112095,-0.12325316269762729,0.15905119039475707,0.19555690128197722,0.2658903109320415,0.9786792648565392
0.09420051095078355,0.15878512725690266,-0.01653897511276803,-0.07328401010651324,0.20412308978679486,0.2494414193725256,0.31239336501744,1.0233530520078182
0.08050665868870138,0.1701504172411598,-0.021580928963448043,-0.09169161476553546,0.1894202800376643,0.22153831090154844,0.3014649496210792,1.0601332658407703
0.07319375945384525,0.15376348427082343,-0.048688114668323075,-0.119942296864193,0.16533419122008916,0.1940060101444573,0.25102097138734697,1.112445273700955
0.06484426127674675,0.1661299944860047,-0.04370099398536932,-0.11463903369721995,0.1479734756826763,0.18304627056187447,0.25924709011801733,1.0469655950069268
0.07647505369836434,0.14938180311486768,-0.018369865422607726,-0.08277416543919304,0.1892311332373156,0.23604276111323627,0.31206453728365785,1.111323880821071
0.07833940788134477,0.15152967342979595,-0.020890045546613133,-0.08950896442638408,0.18539635406923718,0.21451468363149576,0.2991250245144731,1.1196946567563506
0.06012657079276976,0.16287285856375394,-0.03012846353925501,-0.1110175251109159,0.16623744470872495,0.19708998588125337,0.2684751057906204,1.0603891194578705
0.05730769145014038,0.16433080346391205,-0.05110966005244567,-0.12341534380204092,0.15547511558447252,0.16518660488238734,0.21462804461352664,1.0380297662341873
0.08619864370302001,0.17563420440388378,-0.016835179874888237,-0.07039377569891321,0.18894087243393357,0.22712598188745256,0.30063270748608617,1.0833518820035863
0.07800954452611698,0.15886332696042257,-0.017997128610984493,-0.06854244896871103,0.16445317303379345,0.19857828573960942,0.2714500456507714,1.1008719187470541
0.0643842518427421,0.1500328212487706,-0.03286084803350871,-0.08363427716025308,0.1511681692367152,0.19183457841923127,0.24542775385859714,1.050470844312606
0.05031249352729028,0.14717061402832565,-0.06011778781047635,-0.10786735293835926,0.1244429963297615,0.1377398205831951,0.19581649706321183,1.0398805148703625
0.06418879703902568,0.13677697372668646,-0.041114505739804984,-0.09490557858492707,0.127693743986892,0.16350677311713924,0.22415689653688803,1.0256098878139435
0.06550183365926898,0.15671184896178753,-0.03090271457304966,-0.0722895953797319,0.16769771256628005,0.1903472168738521,0.2507234118148482,1.0830534378514336
0.06026006952225443,0.15502255336746262,-0.03961996398430559,-0.0909229504790747,0.1519055648507409,0.16575035360032783,0.22716048889047452,0.9992235900497679
0.04384121803694296,0.1364116121618219,-0.06077279138083835,-0.12034672180484154,0.11266288788989426,0.13262877408122767,0.18685117948273727,1.0192078210695714
0.04403480815654092,0.13984980513760897,-0.058692519226563405,-0.10713811928942915,0.13609165613269597,0.1499503057930137,0.20121081195779786,1.0344847649182127
0.0512998669519256,0.15525786378672674,-0.04755472979068845,-0.0925371613054644,0.14842630141451046,0.16813146154921513,0.22797482801736776,1.0337826048041427
0.04303998751196901,0.14569290392922635,-0.05721951361137853,-0.11927713587396535,0.11257550561028251,0.13984856705579715,0.19428593945466613,1.0922371890625913
0.027419332597015785,0.14006879976550551,-0.0811791367601021,-0.1483249023370442,0.10905978516183794,0.1092578047974046,0.15178515451336622,0.9809246082408333
0.03768083254088772,0.14503155659640593,-0.0615369880659727,-0.11167392024350818,0.11910522672291533,0.13956689875242678,0.21876441572635924,1.027207421438236
0.03232659828721627,0.1320237807539451,-0.05542485081293411,-0.11185204887944575,0.14989638104130715,0.1578164462794068,0.20763506256462066,1.0141961504707422
0.024080385773123096,0.14706474969145325,-0.07170287988295897,-0.13419725599196416,0.12545094355511965,0.14288835702117,0.18888765662929113,1.0152668030871517
0.010373321642382555,0.140901299096649,-0.10000791010144111,-0.17452412713477938,0.10319086373427704,0.09527680370212548,0.15120812596235111,0.9781962036913343
0.02231356750499376,0.15538435103739875,-0.07398314822410641,-0.1401572741289389,0.14198396804227556,0.1488001149753992,0.21006260410916192,1.0231110365472693
0.026957214387130852,0.1496854859322967,-0.0783452723899165,-0.14418894348267475,0.1401743952128445,0.15622765366268598,0.205788368356816,1.0566633335799567
0.004446407662285323,0.1350425665374902,-0.09486540886123793,-0.16978677938697856,0.11802359098289815,0.13421709136474846,0.18973792429880343,1.0526152894877419
0.001711275441502718,0.14273501539324748,-0.11231991783611989,-0.19793507036932845,0.10799474710890995,0.1093207759807646,0.15593230699606475,0.9923787568417868
0.01862853121329502,0.15008106763072282,-0.08068193013018886,-0.14476497632688592,0.1532640690438553,0.17371018487016912,0.22333551401133472,1.0536276977819876
0.02514172099149288,0.14449529034970515,-0.0801714251738117,-0.15477333447751068,0.14760865037908658,0.16684342140793232,0.22219739560547538,1.0865334855746358
0.02169964266041942,0.1455919110165479,-0.0961960700575567,-0.16314557592042778,0.1219940946902435,0.13835356059618187,0.18058676181110667,1.0798233512977478
0.0222187540921844,0.15005709455826716,-0.09254397162855403,-0.17693356603985455,0.10556657492675471,0.12187390832294238,0.1571588770231354,1.0257156538200038
0.03538791364169578,0.14773247764658815,-0.0609541223300331,-0.13423135130311176,0.15343199310835431,0.18576945555225435,0.2357751311908003,1.056648379390252
0.04232553832641847,0.13719179469267295,-0.06276310640319467,-0.14073047701878766,0.14422445948983298,0.17045300481141126,0.21100694170899092,1.1027775685535386
0.03385756922386008,0.1616643597936285,-0.079551908948992,-0.15668681994867395,0.11693511867073346,0.14109374687299142,0.18831514097774274,1.0383061414715127
0.04261590914302222,0.14217037911457853,-0.07215627778442299,-0.15783406644392198,0.10017204653064304,0.1315368868686365,0.1682005815413974,1.0761462026801227
0.06463750437924728,0.14498060384007,-0.041029060989239814,-0.11943071012771256,0.1506116333816663,0.1730424781094332,0.22338816261838426,1.0847277655924772
0.05548218539064397,0.16386964450048563,-0.043581617071914484,-0.12868676959850808,0.12826337154138323,0.15090316222101985,0.2208637465763661,1.0761132437417065
0.05544674313169708,0.15112853404380455,-0.05596946738543501,-0.14661527816527253,0.10385511615162786,0.12125680988299734,0.17608211889999956,1.086100963348887
0.07373854383165145,0.14986639926823697,-0.03900298891257675,-0.11732226047785879,0.12264488502317736,0.1439432630238002,0.19862642464272334,1.1339301343135701
0.0768000433988249,0.1307187315919818,-0.04114804434768365,-0.10219027611840335,0.13286960431522848,0.1647868866692967,0.21469592004154808,1.0692141023532622
0.0776756402964667,0.13636054646580303,-0.04638127582536308,-0.11957323722239202,0.13908181500210942,0.1496589262913762,0.1934673400685214,1.100139017598495
0.06289312048662386,0.1380563397598294,-0.0513434706850594,-0.13665996567111527,0.12189033486429884,0.14330419664375824,0.15856119970219085,1.0980754068184635
0.07625350877702433,0.15409366094393367,-0.023058076555775193,-0.09192690966105278,0.16358945100694244,0.19171560542822264,0.2394404761060535,1.15379988566507
0.07982738218807425,0.14902167719163173,-0.03071940108627255,-0.10362415104394138,0.16041208099298349,0.17319053104989476,0.21950137548582305,1.0766781414541717
0.071890714074867,0.13727935567077515,-0.039603910850231225,-0.11656893972544338,0.15068783386080895,0.1534756432850217,0.18194983544709542,1.0809038679826763
0.07323362352039142,0.14933712752330197,-0.029308670070437304,-0.09444442136282084,0.1644608061520563,0.17629561475810301,0.22872926114780734,1.0998414256126436
0.0871362562385111,0.13951989670862786,-0.01817901503848242,-0.08263137120179254,0.16658837113521385,0.19769036545500215,0.25188771581770025,1.0813826718413562
0.07240025910251545,0.16393086522863626,-0.04047309986140976,-0.10671852411004645,0.1643427518071605,0.1709157201165007,0.22617499422496232,1.0412132341985858
0.05893500929304071,0.15239150345252006,-0.05148824444804135,-0.1287898239687873,0.14701477023790446,0.15977975397227856,0.20769663318899267,1.058995451276807
0.07494847118491016,0.15163412883271365,-0.033402218728546186,-0.09357730958899654,0.19596793980436716,0.20522389991656437,0.26202409939047794,1.0935471633747376
0.06453432994990031,0.14387104713923918,-0.04028775372927207,-0.11235347238815731,0.17391460604026995,0.19846638092012603,0.25754101129768237,1.0330489775665856
0.05663692118989387,0.16763459032956846,-0.05022268664964999,-0.13268512819517525,0.1501135487692022,0.17447798251107058,0.2262128539714896,1.036203586586735
0.0677590144386694,0.1631208686460524,-0.04012677430730285,-0.11606768280922383,0.17793659852711657,0.21027088505795746,0.24565247662061143,1.0567353785351985
0.07531267837164181,0.15402828738588514,-0.02646738897696179,-0.09519221270007631,0.1911878587247536,0.2191156537915662,0.2725690999153319,1.045797233522958
0.04887289863442136,0.14944735999427455,-0.046358310354692525,-0.11746295826507089,0.16986660218745364,0.19256939792327826,0.2533574224380848,0.9747438058051936
0.05067388151333686,0.147315740512521,-0.06275393311251026,-0.1370386995009691,0.15074304353123028,0.16436536351328243,0.21890857124281682,0.9786805891472166
0.07042927166340487,0.15658893780907468,-0.030934776798152104,-0.09346772562831872,0.170915978611832,0.22044080401378693,0.27712067761186443,0.9836121162595501
0.07134152382598047,0.1370492138009858,-0.03994571659177955,-0.09320950782904612,0.1873605714350175,0.20647809450901264,0.2773245763054386,1.0779797304292018
0.06627633520292639,0.16103401625844643,-0.04580039092324206,-0.1134464721445508,0.1718224654772088,0.19709206233963797,0.2315220279581748,0.938819305430894
0.06416021943815446,0.14260301047306542,-0.05419810570976299,-0.134193415674156,0.1320359845264515,0.15167553127363215,0.18409489791727254,1.0044041596213562
0.08605174907996603,0.1393048639873451,-0.021931818958640263,-0.09458206150935913,0.19083737701642572,0.20696369001891168,0.2709900868202222,1.0687729772625694
0.07626971622958542,0.14938977212276364,-0.041991072973239375,-0.10099446872867955,0.17946246909776728,0.19792442652264466,0.2384317225786222,1.028934553724594
0.05634560766137209,0.12790523995538275,-0.051372376793006616,-0.12873969862341214,0.15713753276599063,0.1751394768029818,0.2151517910968232,1.01930000600238
0.04764364242783641,0.12424274727247761,-0.07275827397152893,-0.1572321877903793,0.13647077339762856,0.14447197403488127,0.1737032042312259,0.9959706172670104
0.0535848037216015,0.10716084241874893,-0.04966491826220859,-0.12219127575165087,0.1864219239701016,0.20016728869461214,0.22619906162767042,0.9454339880267996
0.03550051587545831,0.1273856786054231,-0.07469989678060096,-0.14296959460951034,0.18207339805298023,0.17322101784077332,0.21936476183714437,0.9978584038722405
0.03214055354093689,0.11675267816166104,-0.08634014115450309,-0.15703068063283582,0.15443287748366555,0.16673174313864236,0.1988880562307871,0.9665939683115087
0.019059022883270004,0.1217465298412362,-0.116976168118389,-0.19308504388483777,0.13196633038899003,0.13053045414728254,0.16209630865679817,0.9998880045655338
0.0370265460232687,0.11881529511430991,-0.08421330070582106,-0.15366191370878735,0.1921500601332864,0.19756963531410543,0.21873762185676154,0.9860360311510676
0.019875936035814355,0.11207241664240204,-0.09601336093080073,-0.1701912113888027,0.17627422794083064,0.17529708109827488,0.21171323885235194,1.0425021960618486
0.016259856050714047,0.11057770686218465,-0.10118613187946691,-0.19381742534824029,0.18072959530014904,0.15472740306055324,0.17350167376572348,0.9883878121454492
5.721215974279041E-4,0.09473709360048518,-0.12411678390617345,-0.20594621142619912,0.13832845194452065,0.1121322982109752,0.12455688850422272,1.020897093703423
0.009225964861804967,0.10214963215107004,-0.10130572009529726,-0.16518888963309475,0.19051231943656355,0.169902647738961,0.20180903846334708,1.0260749513249936
0.0038802705698248612,0.08693425194086946,-0.11140857879231651,-0.18798460217076413,0.18517671651183107,0.1548954954043496,0.18840962282977072,0.9858028373518709
-0.016896016765963542,0.09283679825204395,-0.143241937069487,-0.22580545875642216,0.1652705657243668,0.11987849930285663,0.13201479437201954,0.9543525019826499
-0.03624679642015758,0.09454730361609338,-0.16110998895293,-0.26435562610400826,0.11653176042479282,0.07389716427367884,0.09729066096309474,0.9453791267560451
-0.020645537093265907,0.11814728679285198,-0.13159917401284973,-0.23040810764372455,0.1867347173027158,0.14668860325831629,0.17460948970263448,0.9546350532250683
-0.006715509075683558,0.14287200226928237,-0.14158558114809455,-0.23029414066504522,0.17532952718731604,0.14508516067802513,0.17146838094217376,0.9624226736215449
-0.014183022907596075,0.15898333986651217,-0.13859411423504459,-0.24202937127782556,0.1590069791216353,0.1173073799059307,0.15783658382892263,0.972065034740369
-0.009184993066172237,0.14954510796217269,-0.14361528563805687,-0.25494760407807177,0.15725810598280995,0.11513362016965878,0.1356372338840371,0.9639027082873086
0.010007598289780824,0.1516143882906812,-0.11328708447002941,-0.19753749907219925,0.17977596678889796,0.15311363644845452,0.19298932794726467,1.0243212405050153
-0.0039107781018402205,0.13589192387267146,-0.1259501255557174,-0.20476719640095664,0.16652757739405474,0.12428622613321907,0.16487799690998697,0.9459715798232307
-0.018941193897285553,0.12585191707970306,-0.14159411877135306,-0.22600312209869977,0.13232417492918574,0.10591241247954634,0.14301128265871907,0.9662366872548838
-0.013236202997117603,0.11566320843262758,-0.12759747427083068,-0.209923073722549,0.15612561511345535,0.1412950307210689,0.1753340950745695,0.999062112207109
-0.0067892178235699485,0.1274802048173889,-0.12074470617725719,-0.20796838775363252,0.18147368658954266,0.14918132014073252,0.19150825560929308,1.0014628244375257
-0.005930260114899857,0.12535044561362496,-0.1302292772861779,-0.22716076958483672,0.15601732948416674,0.13172894003530122,0.16885175007011838,0.9895013817828657
-0.017497661988974882,0.13048707384026453,-0.13055520330951845,-0.21932613367268405,0.13702897663300118,0.10714144718079681,0.15281421735840553,0.975952360189161
0.004081281308744734,0.14253353966205579,-0.08993664599507953,-0.17044080663795003,0.19309528357714442,0.16981435592966623,0.21178281237418498,1.0100978240201575
0.012602586144892645,0.14087389647512932,-0.09190703436736312,-0.16256850224789526,0.17960105189046804,0.16426796743361285,0.18735236899890956,1.026229150489753
0.0070027443783695215,0.1470723920421252,-0.0960091392606679,-0.1786902115490954,0.14870702990555423,0.13279999689285343,0.16618480226102464,1.005310018768948
0.007189992937315981,0.12638652820720925,-0.09269584403485376,-0.16241711877428222,0.16475376803399722,0.14691615138162328,0.17990523995159236,0.9350295687433283
0.02261685332473974,0.13982638974140738,-0.06889197602897705,-0.13814428354514102,0.18835893543554258,0.18886681699038432,0.22901934272849178,1.015623986061291
0.0197126872785551,0.14803278086279276,-0.07224903428192243,-0.14818134430537183,0.16176312850186972,0.15098640977340638,0.19917235087454643,1.0143439259075389
0.010105598203516428,0.1402291793635928,-0.08778795934888702,-0.1651394854970389,0.14474139777575995,0.12568684220939524,0.1703225686839106,0.9993921033823128
0.013412326915606851,0.14292339633001994,-0.08150319369975156,-0.13827229550432055,0.194207038478078,0.17844203452821794,0.22857513330223128,1.0336254680761918
0.007845427714035765,0.15516366070342757,-0.06949463842120784,-0.13700467681246015,0.17898218763408769,0.16985280761748556,0.23344585951850158,0.9661908385883731
-0.00910024171119432,0.1395099582627289,-0.09339013596235797,-0.1650972215950708,0.15769527740776354,0.14063213277801778,0.202010685333737,0.9158234000005747
-9.734963157632271E-4,0.1504809216048044,-0.10278863633557579,-0.1837704755300853,0.138367788957471,0.12955361445608718,0.18037803632551425,0.9098631227179355
0.020895693869330476,0.17980487849524696,-0.0650583998144818,-0.13384037978373858,0.1558369493089567,0.1772441800321617,0.23085944355887605,0.865984587430042
0.030073334826690223,0.1936010668829729,-0.0704891030455292,-0.15061015144054984,0.16026374911465835,0.15145912679869,0.21949411358563167,0.8076494244675065
0.022815388756501284,0.19165096876667226,-0.07918118886732778,-0.16964914783665314,0.14127901098925005,0.12545209089608494,0.18178012309227246,0.8272631337927009
0.015318718241144832,0.16978111525082393,-0.07299202011897388,-0.1522825909527409,0.14574128789464122,0.13464151826404971,0.18000660728178228,0.8447610487607717
0.015434515760791833,0.15924008222196268,-0.06438860577610324,-0.13116651960059833,0.16235965552647952,0.16409223634141634,0.22668571808979354,0.8600426639792949
0.007560527058094206,0.1298200828732392,-0.086376828033485,-0.16583093477538555,0.14123314476442678,0.1465011878696528,0.20129332415915036,0.9053080862287772
-0.007698134890556483,0.14194826407245917,-0.1103751959943767,-0.19300756354993293,0.11561137454187427,0.10085125809394863,0.13514848130527626,0.9502707816346068
0.009225838203267344,0.14907279253070296,-0.08325749531829543,-0.162492458158304,0.12844812731731425,0.1377045918791817,0.17698247747687038,0.9818340348794155
0.01567562440103623,0.14978076895853926,-0.08448142224883,-0.14469276312555832,0.16314440731410346,0.15673913480147272,0.18870826784181632,0.9661033904538077
0.005886963969095568,0.15290378811155986,-0.09190911540373012,-0.16629149505608798,0.14391071214339302,0.1385468217423897,0.17867781587180998,0.9658948082703366
-0.00945636281163668,0.13668579996957397,-0.11131162634551511,-0.195331534500303,0.1386001853377019,0.11262392988441425,0.15751325063133548,0.9450430726607911
-8.20998125349622E-4,0.1262803162625489,-0.09700674706480374,-0.1720275059658608,0.16615993488753977,0.1773804387967862,0.21562711774875074,1.0019682221015884
-0.018221892261792383,0.07015391058841562,-0.11468137479414685,-0.19050929634916486,0.1650468446197095,0.1718500363629709,0.21546132357965078,1.0980475759422912
-0.04948043697708414,0.08088701567735557,-0.13894987896893207,-0.21796892307053048,0.1476086058179177,0.1460434975913214,0.1841313686778446,1.187372390671215
-0.04642129021376394,0.07454941291991203,-0.14909416475444448,-0.22231147486175412,0.14963613167727868,0.14760587283998702,0.20110966718710452,1.2233353624910255
-0.03292937564813623,0.07583886921581658,-0.12229205528482251,-0.20884806733879704,0.1718043173453434,0.17255262028711923,0.23070510377848097,1.2992252333987735
-0.04202805946104946,0.10113061732123213,-0.1332666446430674,-0.2105785805552505,0.15695290460972086,0.15361980361464583,0.2055507861884926,1.2482611692381158
-0.05030878974770326,0.12338721508917597,-0.14744426320184978,-0.23055096944670622,0.12703078668880816,0.13229497704077342,0.18323697120555843,1.2624510774540811
-0.02983606479524818,0.1031490752035857,-0.11952856309788035,-0.1982451447646431,0.16212308426608518,0.18324624214372226,0.23427356751850273,1.2645911566370232
-0.02901939604355779,0.10156569593239122,-0.11201727670899662,-0.18624211291235743,0.16476880065208638,0.18090575861081218,0.22447818143462364,1.2201062105729208
-0.021108961003311243,0.09625235301305089,-0.11794382765464315,-0.20596413815741288,0.16872227793414202,0.14915921972937254,0.19509265744546986,1.1380208228898165
-0.03624134638885408,0.09204462578548854,-0.1358229061224593,-0.21577439498832746,0.14220607504749289,0.1463061218872741,0.19178184594765388,1.1387738022398681
-0.018001279827742064,0.09377086034561327,-0.11486982374487646,-0.18032012749815987,0.18276980331070974,0.189344778642381,0.2422748960337905,1.0951267627245935
-0.020624719767660154,0.08969718273353428,-0.11309122697194245,-0.1957564956314819,0.15127584828299112,0.16052780078659865,0.21814114849930233,0.9908491264096058
-0.02734571864787007,0.07827281823262223,-0.11904871136155445,-0.2057568373800875,0.13805699914388428,0.13493029027719855,0.182129889393988,0.9775311474715379
-0.026810000012477263,0.09639528610163559,-0.12416578898359173,-0.1883520739716837,0.16113982438653396,0.17015322315107967,0.21563439413811938,0.9503275395921398
-0.015989064441162153,0.09439309768987451,-0.11531011866580065,-0.18521144339015927,0.17288311941467924,0.19132515842560274,0.24814156174561014,0.8877901615653658
-0.0037538438602192532,0.11721222227413282,-0.09532486746890993,-0.16422113514114522,0.1614307895031391,0.17494818726205724,0.19814156671498867,0.8677231413614764
-0.018400164718392377,0.10481321171746069,-0.10286678569774665,-0.1915020194729523,0.14307137813108117,0.13329146702008457,0.1525632527596724,0.8723232206590812
3.157879713073541E-4,0.10001710368579282,-0.09205504187095719,-0.1569469783615728,0.16548972339168871,0.1480883607161673,0.1709371787003736,0.8660889109409473
0.010189335048312119,0.09921978628713973,-0.05265142252304393,-0.10354067669763645,0.1680483686204272,0.17158458484423605,0.19789691326129955,0.8934493299777684
-0.020471376181502028,0.07255182354171595,-0.08269052869830773,-0.13999706958474306,0.16523881713364474,0.1494105443659638,0.16446552974962125,0.8840228110641086
-0.0536936162214995,0.052460299155728224,-0.1216614185311361,-0.1852867486155971,0.13213547513141968,0.11036810700781428,0.13358722563987344,0.951012093197966
-0.06719501611366736,0.029626866068287586,-0.13688750504279384,-0.21946245526860975,0.13690512804046295,0.09404828365377985,0.12452276100215375,0.9868048822898737
-0.05854804757785218,0.01873391537520451,-0.14031861330331888,-0.2037600125923767,0.17402095403288634,0.14900954875993225,0.17699289237654758,1.0132336592524682
-0.0725063311134614,0.023141697356779428,-0.14223356802989268,-0.2031497081706003,0.14792847417292446,0.1348388623293861,0.16986338987451435,1.0610898997616314
-0.0751507331236621,0.02166092768173404,-0.15295788825506537,-0.24466088103060493,0.13355170157620322,0.11290523171322935,0.13263386989424084,1.0035656286977594
-0.08154619776857011,0.011360566365952882,-0.16261140655583262,-0.25083210560266406,0.12199819246113539,0.09461821446168489,0.11847067216433749,1.024102437023955
-0.06447876175232442,-0.002063970699116832,-0.13742904453860563,-0.22151501859481293,0.16839455487560923,0.14068470488569432,0.17512792524113657,1.0084808893198622
-0.08299073644228969,0.00984037660301161,-0.15058318071087046,-0.23301541898212255,0.16538310829645742,0.11991448824402008,0.1466767616481792,1.103480284123724
-0.0925681899999606,-1.701246879735191E-4,-0.1763670320961938,-0.26170034464633096,0.12125489785122257,0.09929090382551868,0.12466907056835898,1.0111923031780443
-0.11520695627438664,0.004815420082340122,-0.21244176764711453,-0.28300878093840737,0.13365506030391344,0.08917187941112291,0.1320791279469697,0.9801656256770785
-0.10201253265275487,0.003481342080908792,-0.19270038570909287,-0.2652844286846912,0.15630002772166726,0.15291134930829978,0.1735863793767321,1.003648577216403
-0.08869316477724035,7.836998682650975E-4,-0.17731435501270304,-0.2487530066741594,0.14048664140367273,0.12551600135928703,0.1483551528858242,0.9692914139682606
-0.10031441563130028,-0.0057249146911897,-0.18088464992650016,-0.26112598393338166,0.11723874244676884,0.08237793192044002,0.11499758251093595,0.955103556518026
-0.10908013628744243,0.005654551086165888,-0.20114963659177215,-0.2713710863495569,0.10040764144065045,0.08254797270149679,0.08761356880262242,0.9379735351211544
-0.09345895327390255,0.004542095830713383,-0.1699709496369214,-0.23266655858287538,0.1465036483715083,0.129973788260958,0.16581928532755683,1.0043302120743371
-0.09218307049632075,0.005324281371813594,-0.1782449866935859,-0.2481701408580304,0.13506015726699447,0.1222783601747973,0.1474990962125481,1.0324571988581377
-0.09654233748061766,0.0081318438609361,-0.17946943072727217,-0.23629684986892258,0.11844236998815878,0.08759024382296163,0.11378981603037645,0.9765889066947481
-0.0925265552387079,0.00762235974127401,-0.1740857907588051,-0.26135431792039276,0.09347065012288658,0.061132347021719324,0.06997506413404388,0.9484171579151057
-0.07964054353408317,0.014166848784877936,-0.1638661205950824,-0.2106185651465005,0.13387884140954973,0.11784883018967922,0.14185898968875307,0.9949307555497444
-0.10506334588833054,0.018693180774098928,-0.17400831052155646,-0.2326133459694072,0.12758236919713345,0.11497411566389448,0.11205972078063933,1.0162046286724622
-0.11628210852114443,-0.006183257758833952,-0.206444678066005,-0.27166826148513734,0.09866080651863426,0.07148185845694888,0.09550551616394068,1.0350926164620682
-0.1336182962726979,-0.02071703109028429,-0.23343109984092636,-0.29796544485505894,0.07071053885967225,0.053124954947416536,0.06751472767161618,1.0293602845027325
-0.11327303985322532,0.016270905189280038,-0.18791544292190654,-0.2456156855358967,0.12773397592241942,0.11608296961021447,0.13645361403054782,1.007267894293771
-0.08641536035885647,0.004201346109650644,-0.16431059605806309,-0.2227313560349152,0.12109400932616994,0.11297420149038478,0.1252897199663736,1.0120765317158016
-0.09111866263317529,0.0062455988039114285,-0.17172933105183225,-0.22363792627403148,0.0836048972268756,0.06447400995017383,0.059360253400693105,1.0197045795214028
-0.13946446054305497,0.0076402762929423385,-0.21153092914594956,-0.28256018726776305,0.08016172124471863,0.03132828498852595,0.04658769260358951,0.9452277372771403
-0.126704307504414,0.006432332429267343,-0.20926155917910416,-0.27371936559545235,0.10786915322074744,0.10456515517171953,0.12387686367449788,0.9692799868215918
-0.1362891716780097,0.0029400501222985043,-0.21964426128851172,-0.28524948137569284,0.11609493757595743,0.10004514013584896,0.10977872956363185,1.0183057401171882
-0.13871575727921112,-0.005983278439847431,-0.22552274761285718,-0.3204521338508338,0.07931643474065402,0.06721960158924867,0.0844830717225159,0.8933484394429034
-0.13749603755969653,0.006329681898693693,-0.23308526679059266,-0.31369937325159736,0.04974187235475034,0.02951418509235625,0.04817428066536155,0.8860341910551002
-0.12016790231276869,0.020248043999572765,-0.2054137841734076,-0.2552951993238961,0.09610481229674896,0.0908338762984996,0.13305494054677372,0.8520784031651121
-0.11899842847347744,0.009673655984160728,-0.20441078926360332,-0.2757031718858303,0.07698308290208038,0.07632162198481325,0.10152321962346669,0.8016845271017444
-0.13506502057910613,-0.02408469448430743,-0.2459994377456574,-0.3235814787253817,0.05503627650080941,0.05420270967446813,0.07408085337732231,0.7505190546205125
-0.1397668721688413,-0.021209416868485362,-0.2575795812145723,-0.33426928424495395,0.010049416822978125,-3.267846585981275E-4,0.04786899040372752,0.79707346210559
-0.11306525998178671,-0.030179869392659847,-0.21768371600777214,-0.2987038027365472,0.04199383765767979,0.06730271199437618,0.1052641918028428,0.8003107959361456
-0.12288848724644261,-0.030936565316489223,-0.2278377367234034,-0.3057321860021833,0.025567218934084677,0.03744264524791422,0.09941922824747824,0.8073076202144862
-0.10484091783494727,-0.025334596913655097,-0.21701266137281336,-0.29291705746262614,0.004031852303670973,-7.6430574453667E-4,0.033746946881432496,0.8121811720108654
-0.08286636375007479,-0.007354152282473811,-0.1982134502164104,-0.2663381146631848,0.009955928578114996,0.004434843049615037,0.02981769089955074,0.8109797239606695
-0.08712723198965995,-0.012732330001234984,-0.17997933789030682,-0.25130790761351485,0.0759601004695703,0.06186457294489246,0.08986260937774909,0.8354833846007301
-0.11787004100740213,-0.014955200684639791,-0.22272860754264331,-0.29869387439684414,0.05888911970520659,0.06034994760449566,0.08678367663151175,0.7931083437684499
-0.11083592382926138,0.0025421355703061366,-0.24213113787480878,-0.315780072908896,0.027024678430587167,0.01722500603611691,0.07133528668086714,0.7427449749015377
-0.08407256787640575,0.01593157678324794,-0.18311716802630246,-0.25900171814847106,0.06679975486950178,0.05329000834985624,0.07699374874646348,0.7696728794904786
-0.044757253829533036,0.028405559493037337,-0.1222777301362864,-0.18755081910687396,0.09270316679812264,0.07304439640867409,0.08094740547364622,0.8086643253713179
-0.02832024890734819,0.0370333521022035,-0.10456990061070626,-0.16053785141916707,0.0744799573357872,0.04241413737931342,0.061237297602999036,0.7764702431695246
-0.04654902331842865,0.008001814714298408,-0.13036442823792826,-0.1765495301195165,0.06231114053212053,0.007929367815907053,0.010276212903000436,0.7744583813181022
-0.04618116733096764,0.052481818773142216,-0.10470491773980442,-0.14049589644020935,0.11101075231442975,0.08958046471434813,0.09246838449568295,0.734028509052222
-0.04659108930138646,0.04337997778014702,-0.09317619493685955,-0.13956888041627577,0.11870440752526337,0.092867741267694,0.11126515896391415,0.8668195397032518
-0.07164804668132504,0.06629434265907834,-0.1051838120683263,-0.15442592342194422,0.11550982017974713,0.08731653721835879,0.1121203526050662,0.9128217853160713
-0.01408060657179769,0.10300015117475073,0.004830380932715711,0.007861635564062112,0.04045077343552968,0.08574140775663368,0.1476643561667054,0.9820011550201265
-0.010273507026062691,0.12463361048123649,-0.02289513838348702,-0.011846499811209547,0.03193998274705871,0.12473220199514927,0.20285760260300445,1.0735906715714112
-0.07894880612941817,0.09818424416357754,-0.13095548579085284,-0.16030866410107536,0.030557310135792277,0.09772477862351214,0.15053916395503095,1.0105853385683767
-0.12242870821361762,0.08153856504451656,-0.1871412991016989,-0.22845428948792396,0.014749131336328887,0.05258438874507045,0.11494226932105372,1.0247953765759588
-0.1405597738987285,0.07345216870040192,-0.19232338195030302,-0.2548253613301008,0.024579737223912955,0.047664397402628206,0.09592231629989145,0.9948311508397014
-0.10538702179461962,0.09144362132259298,-0.15076873150140754,-0.20485552179856836,0.07374157119514305,0.10433449100504905,0.14263059507673148,1.07056815615291
-0.11521166292032238,0.07541443946393941,-0.16919314725167872,-0.22102907452312176,0.06445918763765596,0.09682358580508492,0.13082896423461834,1.0540996348836649
-0.11984707603948028,0.0748125359455303,-0.18715363633442947,-0.2419794741280772,0.06431366686098963,0.05766926848522305,0.09570817728698434,1.0417535010305192
-0.10285047897869598,0.06942588921230766,-0.15531715639888422,-0.198910768345766,0.08800497399025446,0.10993984203341217,0.1469156671446649,1.0809750096521737
-0.07338977091964413,0.06936985341862796,-0.11755504352236235,-0.1644478796126489,0.11221168420616112,0.12280572586318399,0.16937106212230008,1.0547616855958126
-0.06946194257672436,0.06831757928322309,-0.1179222288385578,-0.15960643814311443,0.09050700046163404,0.10181550825126251,0.1231309153310147,1.0407517730423943
-0.08918624485151841,0.058407182423141454,-0.1425739312720159,-0.1896806306024018,0.06339242055914479,0.06564101261589024,0.08351611954679132,0.972402421229551
-0.0745607510722869,0.06150914297208335,-0.09861002169471134,-0.14069398474960215,0.12218411120509984,0.13074514904625908,0.15486946328267145,0.9867041164024115
-0.06536714270916197,0.07071942618161435,-0.09989204910158983,-0.13954384772767742,0.1378142280324643,0.15122704324984904,0.18084097342049532,0.9861710063149628
-0.07070811457557856,0.04996862733253511,-0.1114705699057271,-0.16328108017814358,0.11589246261431649,0.11670880996946643,0.14249233163727804,0.9872638189109788
-0.08557239349832635,0.06522406415199451,-0.14555988787139176,-0.1975522680105964,0.08897186255508033,0.08889436298830866,0.10924346192946263,1.018420595767742
-0.08683806230427846,0.05985131532636857,-0.14043065699661733,-0.1759844022406401,0.12768696064231386,0.1403912045869667,0.1556522490139772,0.9666019584993398
-0.07722881310744457,0.06176825209342454,-0.12901979533131935,-0.16350336690376105,0.1539636608861509,0.18101932161635445,0.21997885444097298,1.0268328664777697
-0.09008422868786725,0.049335154591113914,-0.1417567267134407,-0.18369511506883285,0.14287617487992688,0.1546472513081346,0.1932397824155244,1.0049776768300869
-0.10273490544594911,0.06813846151628557,-0.15424625606954281,-0.2103951628707159,0.11838461164735473,0.13249293486226307,0.1496332691934216,0.9865481117871626
-0.10644091187565785,0.049060667191587345,-0.1609276597229026,-0.21115745747541043,0.11961970028206104,0.10718470187667087,0.14944702405773402,1.0003075047813648
-0.07284919191150757,0.07395253361937451,-0.12347447483879488,-0.16472013823008802,0.17762478280286814,0.19247931475448654,0.2176905634453101,1.0483392204871649
-0.07411064860706183,0.08042280941337372,-0.1328620309344982,-0.17614232090475063,0.15706202632822316,0.17879322714034226,0.21656275747026849,1.0293657548462334
-0.0901585990144533,0.0654223542468924,-0.15283636731845412,-0.19984956909926588,0.14604004669621892,0.15907687694524797,0.18678395454935354,0.9926604222811412
-0.10568507269195557,0.058550376088138095,-0.17577232799209708,-0.2229945079059525,0.11280900999707404,0.1132388366152702,0.13678625505722286,1.0003148508331277
-0.0861890152711137,0.0503816742852099,-0.1410190425575396,-0.18244689993828997,0.18285815097471037,0.19929233350445566,0.23458778673734332,1.0152976513124377
-0.0959638829703823,0.07220264083654777,-0.14349888438236139,-0.18362857256511628,0.17601138872810645,0.1948431655543539,0.23414851540681642,1.0393946635359206
-0.09824995891296771,0.055386938651974096,-0.16610679188457467,-0.20790350312076142,0.1574141687440484,0.15309127309240622,0.19318760423381745,1.0428050032011904
-0.11437937189576403,0.02655577971615819,-0.20098856528483539,-0.24667845929129906,0.12030733030132135,0.11989846263858163,0.14771344510973752,0.9827557319413147
-0.10282221481479177,0.04076715308823113,-0.15751365173553455,-0.20954909716636638,0.17365938418884888,0.1778953794573364,0.214415187903127,1.0356140468737014
-0.09421717093188933,0.061288114437221236,-0.14929647009026778,-0.19200923812374546,0.1904134416674926,0.2063371082399959,0.2477469100725781,0.9647477785722025
-0.09716881059191378,0.06843290848797925,-0.16968240666587808,-0.2192882781631173,0.16394821208943086,0.17222531640562053,0.19110356751007018,1.0305818929847348
-0.1021937432659318,0.042724691112606655,-0.18529714772653394,-0.24709546178073738,0.13670925313417637,0.12366191869389737,0.15026044944204872,1.0202367811665196
-0.112691983573777,0.04603375610029896,-0.18304971968309097,-0.24642251409607047,0.14401131164199313,0.13515193332712655,0.1623690599244158,0.9878886544448332
-0.09857494439069911,0.061429536677979624,-0.153422345178592,-0.20636729590049924,0.20606888919823899,0.2102719214526027,0.23897466554342417,1.0281933641088665
-0.10770160210244023,0.06601943272155322,-0.1693314650105889,-0.23854901914657056,0.1732926535794953,0.2027476004557863,0.21468646198220395,1.0139707748356663
-0.1121144682835512,0.05724129926484023,-0.18379542917130987,-0.24565341316047018,0.149960018021637,0.1474118672138278,0.16591647872956258,1.001579986619062
-0.11900620878686743,0.05606088928263321,-0.21335801911003813,-0.26539296710053173,0.12333485155765019,0.08605272272524706,0.12088312244026787,0.9649089101398866
-0.10392712106134452,0.056308801032658354,-0.16637868374902562,-0.2134684850533317,0.17701194634207917,0.175048911309216,0.216876883576034,0.9793874699934761
-0.0930104186656579,0.05002974570099447,-0.15669808594504014,-0.21102417091601217,0.17621043157719657,0.17387701547668488,0.18945550721378385,0.9828579721406414
-0.08950062647003645,0.05623827388015708,-0.16117208950734027,-0.21916594471981543,0.1495555640165966,0.13264661852429294,0.1401573845560595,0.9205364863900427
-0.11099784443123628,0.051844454979500534,-0.18148227060606115,-0.23974639934247577,0.08983645666582195,0.06090301586336136,0.06868994816896304,0.8602877295202871
-0.10604626752210443,0.021225726982984847,-0.17060824157968033,-0.23102898700103164,0.11011613935790436,0.08585288252884637,0.10576903898881021,0.7870144915185269
-0.07885237271782976,0.028854800902386332,-0.14835220080805586,-0.20409758977775755,0.13399217693715576,0.15303176274916036,0.16498846763502178,0.8044454108821925
-0.07031951051437414,0.041911283584206524,-0.15161821728148153,-0.21158394552651316,0.1064880215413847,0.11915575116679186,0.14072535470321232,0.7871288456846371
-0.058738906860756813,0.0463856613564716,-0.14596254370861694,-0.21899221225540533,0.09829878059763862,0.06535429196212751,0.09335232437438773,0.7919228947171538
-0.05176512266280005,0.04657347710813873,-0.1329951590511992,-0.2066843886719993,0.10851928776646727,0.0854134081675815,0.10822367869705976,0.7682570658531211
-0.041510236391060745,0.044161285546346345,-0.11309746959171933,-0.1835210214083361,0.14053328472584967,0.14135441180164243,0.17874649430634695,0.8372040583993374
-0.04550999122533192,0.041071564778869876,-0.13431246816603987,-0.20774507120422314,0.103829240315729,0.10868250716973005,0.14626940101794036,0.7710372287497995
-0.0388298154399789,0.040517495292006094,-0.14258977614281526,-0.2353495615380082,0.06203134391486171,0.08232533726872265,0.1076088421974946,0.76839832573311
-0.03511979103845486,0.04386182531939487,-0.13723996410767736,-0.22765117830810794,0.048262603131755816,0.07184783556573099,0.09537635594639501,0.7683545023942038
-0.0043064591175500724,0.055312508440901624,-0.10964731448161774,-0.1930660473541998,0.09502603277590461,0.14039928418852676,0.17377957868247204,0.8420248872346372
-5.268247518406231E-4,0.054213745409453694,-0.10632710018056749,-0.19497712990657134,0.0908085956506273,0.09948025993767119,0.1397768718748782,0.8390624321515079
0.004341855712347159,0.06387788238136254,-0.11482256092368404,-0.20507689794415962,0.04852568319896643,0.0589344112362741,0.08187385437840423,0.8258621758892943
0.012471544048589578,0.07025049588786078,-0.11054631838067858,-0.20704868616418307,0.07161119024134978,0.05361899316659853,0.07442598377157122,0.8155809938498702
0.03723724493698212,0.07709011492326394,-0.07324458358198707,-0.16078339464354183,0.1500177511865225,0.13320074421261582,0.166766524340509,0.8783974509076852
0.0354524108695591,0.07264823635458084,-0.06825695085067372,-0.16597242482876115,0.13239776458416808,0.11429449861260574,0.14312730249595396,0.8753563987917232
0.039500819587280654,0.07289945497464237,-0.09459039101624084,-0.1870161811923759,0.1091965825205266,0.08459832062752079,0.09740369498563178,0.8227900950118782
0.031456513411360174,0.07424232396630137,-0.08161057010015728,-0.1851090305977589,0.10697100794647157,0.09245690226840647,0.10118142271048697,0.8170158414507471
0.06212253607090582,0.08246805694125678,-0.041340597603668344,-0.13885335682696404,0.1571196897718478,0.15745403156415108,0.1616366633435418,0.8809910813731867
0.07590507433600203,0.10200002301906394,-0.04309703198676951,-0.14047969131843951,0.1525879327059638,0.13063790095302777,0.15949831422923016,0.8332239669302091
0.09143600945427896,0.09973919570797987,-0.02520369316621748,-0.11779334365029177,0.10926955769115487,0.09076118728165486,0.08999224331365077,0.8483132979651348
0.12030362037473337,0.10481148690208392,0.0011857276759682372,-0.07383018285308983,0.1228874678756359,0.1065120236607881,0.11450856883762414,0.7608438452202475
0.1147485796982016,0.1228199779749238,0.033571361131289945,-0.02878810174291886,0.16728091299417167,0.14349421464340203,0.134740215770186,0.7815406615384353
0.1031816988064474,0.11490958431462633,0.020217797598184886,-0.051032720630333005,0.14573197377654887,0.1300667111253444,0.11781501232345776,0.7576805927563063
0.07570165171414484,0.10666136338231474,0.005536352741018292,-0.0754739306931395,0.1256847474473712,0.08800465930647437,0.0702329578928991,0.775615881250118
0.062350551946222174,0.09208642529960477,-0.005503155342261315,-0.08494898935309146,0.1342225764360931,0.10721755782971339,0.09157323928572525,0.7391675765639671
0.0823305585464491,0.10518103741592585,0.007299803183774465,-0.049856434247454895,0.1880092926893209,0.17838850298018616,0.16326917874161187,0.7596174272959273
0.06383320056876607,0.10098866225052333,-0.006018126446324205,-0.0717588155460611,0.18059038542397163,0.13869804584229375,0.13596414324987474,0.7594284956902632
0.05129981539425215,0.09017966047344649,-0.02605818428351762,-0.10823259750341463,0.16468277159281616,0.10954910229397011,0.0991784540174732,0.7833943411170621
0.03670222074181505,0.10636156282163431,-0.04090160445260654,-0.12466330435327368,0.15812572835662697,0.10210558855385478,0.10300314360300819,0.818411493132664
0.05634149384397409,0.11797888521375988,-0.018692744498858344,-0.08760016392339523,0.22278347480133248,0.1896472130611423,0.18336941718737132,0.8314310843504884
0.04995588439691651,0.10339292376889905,-0.032723252956068045,-0.10613228754578148,0.2147508334840567,0.17202173930169568,0.18604654837904003,0.8840734285384485
0.03781754572135244,0.08876512140402651,-0.05665263159671738,-0.1401908794372826,0.20911197262158618,0.14763542759860457,0.14572250273970622,0.8772635538045679
0.03276338326241709,0.10450598253288901,-0.07366273522602682,-0.14276451091563508,0.18292388084715375,0.12736991726018246,0.13630806570217338,0.8527949500057073
0.04766743553925005,0.08774530190473111,-0.024940956554282898,-0.10846248392892771,0.25135684673266967,0.21890597138412426,0.2300890977076238,0.9098484903390225
0.050511325596517595,0.09920074348919605,-0.041252306438781784,-0.12378649361939761,0.2288679232202106,0.20103182284946094,0.22237965440481647,0.9024277954053996
0.031728190710818685,0.11106120994327624,-0.06106372891741263,-0.13861063980258656,0.21124757152125118,0.1725988844314798,0.1904826640089838,0.8786982386326645
0.022542805170777617,0.09092975902847575,-0.06897763693867678,-0.15038680702476537,0.19765934309200106,0.1521884830109315,0.17207944913182327,0.8879049367422265
0.053075236142329674,0.08601701024336544,-0.04369686048978637,-0.10509028447812363,0.2533865198878061,0.2357370865070797,0.25107078899489277,0.9147018806448922
0.0437586329840938,0.0920315171995992,-0.04641170891349895,-0.11606132734981171,0.24353524038560734,0.22728738067159837,0.2379323659811758,0.8745638320112354
0.027128108323928167,0.10013425686679607,-0.06215942590091084,-0.1400058487242779,0.21187708301174785,0.18489830350225464,0.2040894918273354,0.9125496924800567
0.02261055842817173,0.09200030036224113,-0.07791439955952484,-0.16067957274252367,0.17875536864054045,0.15675824419181067,0.15735546699590316,0.9117088493016525
0.04283192947994802,0.08058425012500518,-0.03373866406988158,-0.1131378900933496,0.24535673729774016,0.2252276137563165,0.2540886227326653,0.9121514852480597
0.053895431989416445,0.08670074050163061,-0.03328680439199819,-0.10474629853471606,0.25314926067424076,0.23199698157037268,0.27739312356671986,0.9337635144894054
0.03750535844493176,0.06837424071665543,-0.073824956907966,-0.14935385050757732,0.21755430249631638,0.19874263823587204,0.2238066031824326,0.942002743347538
0.010319993883432861,0.07750916565749036,-0.10060741845093212,-0.18908803206839703,0.18523207419141882,0.15937047009593514,0.1887140185093407,0.9618153158325352
0.010649295173560933,0.07288693850757565,-0.08710915850668258,-0.1663736946293224,0.20791099570452756,0.21341897944377752,0.24287269739881379,0.9954764212534302
0.028230053578835568,0.08060026363323641,-0.06839972037054898,-0.14942037879406028,0.23740512195996455,0.2531849185494102,0.30768912853101293,0.9624120248218929
0.03339068909655168,0.0875469471019563,-0.07732624835560498,-0.16638752664584272,0.21262804570741264,0.2187549564621475,0.2553610369735366,1.0069653965389882
0.04191119185583737,0.07876019059289509,-0.06583469084942628,-0.15996957628856057,0.1858732252713886,0.1778762304188339,0.21649394892564505,0.9292863541001843
0.08432845744134254,0.08461222732792754,-0.03215185285949655,-0.11327881989779562,0.19756304386410345,0.17731022013562497,0.17976896787649765,0.9703408658031814
0.08457134724059424,0.11219941532115141,0.004984720442151348,-0.06072510981885454,0.24783913754311843,0.22296583130916453,0.21873024871312513,0.9580842653706914
0.07441254434977147,0.08700468513310922,-0.02309215024438269,-0.09680558786640164,0.22810997114448262,0.20139495931054957,0.20102777960220075,0.9084329523341239
0.03911283988177684,0.08384545046601755,-0.04994289913592309,-0.11185112864344077,0.19131288987966702,0.15318359009455845,0.14546238564948222,0.8764550113892328
0.020655577247866916,0.08547881590082484,-0.053923495680223275,-0.12708307840644129,0.18930886912644893,0.15477464644949068,0.14652357684828443,0.8736908625267674
0.024018241537621703,0.0807261390081495,-0.03372261574577574,-0.10920083517377692,0.25952143431088487,0.22967153112381117,0.22555048376065204,0.8770932584451439
0.014340975723390794,0.07444527589402368,-0.046233093321261215,-0.12396787702531319,0.2429682402926403,0.1934436121412899,0.19840894976537476,0.8763180307878169
0.002698387612682945,0.061412998046818816,-0.08278603245741159,-0.14817249107353836,0.2115103443213291,0.15288644119437328,0.15290813639108272,0.8573533308871468
-0.011009390928161387,0.05901371966732631,-0.08991667474438994,-0.18103808143007755,0.20197861782068177,0.14392187728449157,0.1345843378436126,0.8865309341390804
0.0012749364223009327,0.07216733031337938,-0.07279641857181271,-0.13097692422658855,0.2447313423826891,0.22323938188127654,0.23944334187633995,0.931720274698033
-0.007418423881208556,0.0713007779347765,-0.0806197072044797,-0.14932258938535287,0.2504584038496896,0.20818831124258927,0.20763825840503242,0.9267690468124178
-0.014678205349021978,0.06748320205401848,-0.0999754057857308,-0.18228491457225085,0.22114622843196918,0.17940707150172133,0.18437562720198042,0.9347513674124313
-0.03267834726367825,0.053549587386641284,-0.11902416715411504,-0.21099572820896362,0.1860407114325906,0.14884045952066957,0.14770142764529764,0.9122006463260046
-0.01481178022542708,0.05797018158059107,-0.10304186582082081,-0.18283714804776324,0.2578459238705278,0.23252459456504837,0.23658468358213156,0.9067528030205321
-0.012090188851361355,0.06927128905581595,-0.09688912788683159,-0.17860816144622654,0.25657064642442123,0.23908533487827896,0.2344355409687782,0.9483569227819331
-0.016717697731393474,0.06949186203851254,-0.12179718862676932,-0.20205212927860067,0.23342392484636354,0.1973226687593888,0.21432879071984517,0.9537462485689067
-0.02781280773286032,0.06440510605221328,-0.1425385215503877,-0.23509412206143265,0.19182548047934375,0.16154670379211333,0.1440133183875101,0.9314983722402268
-0.01564702768221015,0.05791793769232288,-0.11572030886897787,-0.2040643536615373,0.23764847229373948,0.20826617774933867,0.21831976479244142,0.9173927386036969
-0.00656647713267039,0.06898221439842156,-0.08851002480230327,-0.1797078566850313,0.25474227048587705,0.2300813682572459,0.23555883587685877,0.9201258277704764
-0.006781105364627217,0.07479363391554995,-0.08148575020430981,-0.16783860153250335,0.2242693196809757,0.19089101554199467,0.1868079344938298,0.9084057920638389
-0.025566177375049605,0.06575683605077046,-0.0942610976488692,-0.18311089562949417,0.17692858906296183,0.14817410164884673,0.12779229858108707,0.8859069935101556
-0.026275019962474225,0.06715592831171602,-0.09203268067722423,-0.1668291384127375,0.23500198970619185,0.19855065854944928,0.17736585276851413,0.8931943676506636
-0.013810324397219052,0.07362930107299659,-0.07343127073345625,-0.14464024552973836,0.2437778584243231,0.2236697221233384,0.2059784574049892,0.9293697326468405
-0.015400220775684344,0.08488191976308418,-0.09101795339325677,-0.17080620249307424,0.23320019261278424,0.19251177927713803,0.1894451665767438,0.9321127862038725
-0.038345481095321904,0.0783369413928143,-0.10708443951740854,-0.18487099021079514,0.19878445168248882,0.15254976299142978,0.1258694406473275,0.8879640126738835
-0.03624444242466887,0.08416419805090959,-0.10056833470797769,-0.16929812711140185,0.23169970469647455,0.18550108998339487,0.1828137613874729,0.8433302786099522
-0.018635646119779227,0.07240674494633362,-0.07836382273657559,-0.134121003111281,0.2541100359267449,0.23376639810633237,0.23669722046852446,0.9557763036745555
-0.01825888117584753,0.07487389088505196,-0.0968982273059118,-0.15921536602357972,0.234029756341463,0.21588958002781095,0.21180682848826002,0.9347790554963247
-0.029335332826211806,0.06513875088129792,-0.10730074155183163,-0.17367466790562494,0.21692325890928008,0.17970350596717596,0.15704381587690147,0.9704042537470169
-0.030415334261118143,0.07373448849377473,-0.10380539673681638,-0.18855045465585596,0.219553681733762,0.18126057046963812,0.17577368316414663,0.9268357042510089
-0.007561572519274961,0.09435507912611345,-0.06751193586432515,-0.15006948899117722,0.27461083752430027,0.2563649078284202,0.24272865225299378,0.950403227249216
-0.007172334410313708,0.07913607690990407,-0.08587867163209045,-0.15346124179175133,0.2575431517590253,0.2247696349144247,0.22389536859002923,0.9203848645328995
-0.021734214682320563,0.07519934001657269,-0.09072136669124495,-0.1555997263132954,0.21814290485878046,0.19240514892379393,0.17975521056154198,0.8795139706672891
-0.030709264570124052,0.08190256381044808,-0.10400491201550162,-0.1743596772272748,0.18931792836982272,0.14847361505897363,0.13792269323362405,0.8709739228530514
-0.012838154822198432,0.09247985992104403,-0.07071319482513692,-0.12346046644916389,0.2776135266586594,0.2478947743124583,0.244040359238711,0.9691189758844652
-0.02749389575598273,0.07838917982891377,-0.08262967467581807,-0.13210700413941712,0.258791866850372,0.227860596562508,0.23720796632753183,0.8918403553007965
-0.04210839179591653,0.08376957076405885,-0.09769862990269915,-0.14094665749506752,0.23036366676206604,0.19386420042755464,0.20046532737609585,0.925169021892404
-0.07001804947915688,0.06508061708863497,-0.12821916105586373,-0.16661874344851177,0.17931700042499749,0.15087149612586856,0.13463967351503536,0.8726689410184499
-0.06064385512302436,0.09536094796435088,-0.09962751733211028,-0.13469761203515584,0.2420848292404139,0.22473489722984755,0.22705468736211942,0.9076359115858699
-0.058422525978794916,0.0873151805648302,-0.09567260047009675,-0.14415089183728408,0.23317254231684195,0.21126975236692525,0.21022742896160565,0.9059496882194626
-0.07719576385369928,0.07768770851612114,-0.11337627079333266,-0.17023409751191265,0.21009330428502954,0.191086376793921,0.19616149569409,0.8803097368169699
-0.08703901248069454,0.07203900405034881,-0.15060237110917551,-0.19998266661521585,0.18646516212164307,0.1445291814032753,0.12211629958059825,0.8620086695424625
-0.07143029859064501,0.06829290993498809,-0.11779195525278399,-0.1637843888736468,0.23571600285278346,0.20927769736139684,0.21586690076236176,0.8747991472314287
-0.0697680826666064,0.06977166790396892,-0.10658111071122357,-0.17162635145239105,0.2210801853312029,0.22601037558514342,0.23320668522160037,0.834843645993327
-0.07242741928717197,0.0410447543910281,-0.12902903355942874,-0.17746611483591643,0.20352422709895573,0.18242556565799206,0.18415459178026933,0.884862116918703
-0.09012151525121695,0.05075828489223423,-0.14803326204034356,-0.21763947106590098,0.17679011253354948,0.13877522834832032,0.1353939415182742,0.8251673291487016
-0.08042077671328907,0.036081583624632874,-0.13547722684627866,-0.19942105117783593,0.20270441276330578,0.1772361008152405,0.174261961838431,0.8723932182873511
-0.07697733904506224,0.058833458699679694,-0.11468981070499004,-0.16645175772729115,0.2295262550794011,0.22132815508312187,0.24013611980850988,0.8688197141969647
-0.07347829501892755,0.06617294411623176,-0.1285666580890511,-0.18687816769955717,0.21373794321822379,0.20061569359186904,0.2103239493112622,0.8932359040195037
-0.08306778530071915,0.04873585979232621,-0.1358889762691119,-0.19955235645237457,0.19632461920188513,0.16955279886690686,0.15688473766123331,0.8629982432419692
-0.09555486889749082,0.05093532998013586,-0.14726792765286817,-0.21351869204785118,0.17277765512229126,0.1351699164205106,0.1452820355835034,0.8574730136228015
-0.06991486562028093,0.06787662050382445,-0.11764070917569922,-0.1612811895972312,0.2295277613109931,0.22570640248372242,0.2323386349250327,0.9357052152839092
-0.07259282171574158,0.0644730829204982,-0.12215109150343717,-0.1732591814385751,0.22537048973094614,0.21477326037463823,0.20743863159980028,0.9053315392927392
-0.08037304924146757,0.05494442863138711,-0.14312246352921404,-0.1976684237451901,0.20201396409951336,0.18776278196708635,0.17490309832768208,0.929348375844765
-0.09238185534721007,0.03466195039852088,-0.16651195450041428,-0.2232971127091259,0.18141714466203937,0.13708051549249767,0.130448085298849,0.8418966396167117
-0.09181500623794972,0.06045485207706666,-0.12853952935600194,-0.17808521396459603,0.23074431699524467,0.21617639362919858,0.2101413795284162,0.877220307764181
-0.08398782610920463,0.062222242967291286,-0.13329070103646304,-0.1792959270708488,0.21776380819174232,0.21264137050901377,0.20466128878614065,0.89541807554078
-0.08549200406265697,0.06992359765335052,-0.1414399794168686,-0.20005174754823757,0.20202908342535264,0.17842353944894518,0.1872609309648829,0.8846232549991164
-0.09607496693560305,0.03950395793346041,-0.16338662394245307,-0.2289579076840706,0.16872632678698704,0.1406308865476288,0.12366984144874917,0.883149595725726
-0.09110041195625285,0.057975280552447536,-0.14168147995251013,-0.19614910732569846,0.201863472532703,0.1815088277558758,0.17184669673139,0.8723174362081056
-0.07673070502792406,0.06461412301294778,-0.13210648943600473,-0.18141169396840043,0.2225107194730475,0.19893292530338352,0.18247466894397224,0.9387050374772118
-0.07762553711960596,0.06673860518666302,-0.14762572333252527,-0.19796179197780306,0.20124475131620886,0.171577013323143,0.1756185997370397,0.8593057832046468
-0.09278567432740015,0.05131273959824946,-0.15396879851455816,-0.22204693046807522,0.171303428138079,0.1381699705962039,0.1212718384834763,0.8872137910744108
-0.1029252528924707,0.04858275875995828,-0.16399554090713528,-0.22130948442621617,0.16378059958314456,0.13427139272052346,0.13768496069494227,0.8666576802966828
-0.07408030843897523,0.071209957711999,-0.12669575773627165,-0.1777153997141144,0.21283421887359857,0.19974071290197712,0.21278589708942297,0.9220091473776595
-0.08097271093622488,0.06842811875787745,-0.1364682027725617,-0.19487814278527457,0.1976347455923188,0.18198960120266758,0.17026960360267904,0.8627321116412522
-0.07603500232862835,0.06510960129296697,-0.15305946410652466,-0.20852952663697633,0.17681909486883224,0.137717061135738,0.14076883060078257,0.8711922726394968
-0.10012177551043086,0.05811421019869906,-0.17243032877262165,-0.2421430870747024,0.13948689427782734,0.09509305729638888,0.08797471928546433,0.8783805532861382
-0.08130255746447937,0.05626265525074266,-0.135864599838111,-0.19188807228742472,0.19047569473494544,0.1869683604629789,0.17617688506345602,0.9314663443171011
-0.0836790992587281,0.06043965696838137,-0.1381495312208479,-0.1901654658908148,0.20964782536365512,0.17851874335917486,0.17950703188007078,0.8435678281798841
-0.08203526886664927,0.07460676171839556,-0.15031012794937093,-0.2084960939088034,0.17357880334163556,0.14698833392042238,0.1372776350394767,0.8679567838126606
-0.09121773367411108,0.04349515969247564,-0.16344042925007102,-0.23547034945571166,0.14896169485825705,0.11373740714070066,0.1037303011266944,0.9040948379473974
-0.07569833380871951,0.06569859232843046,-0.14461822029721416,-0.1978259948297032,0.19252588197559378,0.14849925736967776,0.15485608710377208,0.9336484311005775
-0.06938683597984069,0.06237621300402936,-0.13713556833091728,-0.1970563919224441,0.1924164911925471,0.1699436548766663,0.17734729647306074,0.9033939960998902
-0.07700785400358126,0.07216856473662005,-0.1463387499379903,-0.20104618909602429,0.1803764338351652,0.15708688101931848,0.15076789947051458,0.880022535501771
-0.09625695461875926,0.05324742888006641,-0.15952801354550428,-0.22579161733057215,0.15573809011347675,0.11213602242903778,0.10754492620423559,0.8821319383331347
-0.08396104818749457,0.06180445694404044,-0.13982342552728147,-0.19968503438110627,0.18300002415229905,0.14769516126925095,0.13927688045890765,0.9175536329320908
-0.0727591972647342,0.07032206892655825,-0.13197447732802495,-0.18268073603999313,0.193864275860929,0.1733665353844751,0.17628879849368323,0.9317325775488854
-0.06812992317877441,0.06490667200387856,-0.13834741321917668,-0.19396884127676955,0.18196942910588582,0.14952295864408263,0.15669009802164402,0.8576931400487228
-0.08732093056524814,0.06170783314085786,-0.1517555689243406,-0.21454778319487222,0.1542566650228121,0.11724411359002783,0.11577156779574327,0.8691384243145888
-0.08588417158166385,0.06533820257888431,-0.1462409317559046,-0.20549717159807496,0.17044526677948643,0.12391505056008528,0.11024784288407062,0.9063523927707673
-0.05967850908128025,0.07680298752270066,-0.112859088419904,-0.16341217130046115,0.1997696649630398,0.1937267977991562,0.19186736724211556,0.9098435310721391
-0.05906279217460106,0.06826193873239025,-0.1250422972934449,-0.1704845831789264,0.19427742874468915,0.18508998835336457,0.16742776282996086,0.8845423935756096
-0.06322633029481921,0.07260173689226143,-0.13622474165324047,-0.19455932073998158,0.15146645828075772,0.1453039771863153,0.1277421927260843,0.9007770424074597
-0.08010322945294288,0.07438304130543255,-0.15003875340616235,-0.21253818987130427,0.13685617738535355,0.10416867814989968,0.10726162220767763,0.8794815408988986
-0.054895019848102425,0.07957822973586856,-0.11613131012344746,-0.16693184353419288,0.2045566462815407,0.1914142936853299,0.1970730432266528,0.9494367561969909
-0.05442729107345056,0.07609624935534437,-0.11244223603747595,-0.16049456694669434,0.1947814045599675,0.1812104881058647,0.1737587890752504,0.9344664003196816
-0.067136944733351,0.06519870951076386,-0.1307280419039621,-0.17368258998615493,0.17440061179849778,0.14985198614589904,0.14826002471849678,0.8970624398774312
-0.07104747585004417,0.05617107889292741,-0.143134944861324,-0.21224387044978765,0.15241097030283055,0.11715672944423582,0.08010255185646682,0.8970399118759528
-0.05901812984526199,0.06536966929952233,-0.12846325489582006,-0.17672534353826358,0.2007205614397893,0.1737851794862329,0.16334081757183186,0.9286288862443318
-0.059027613215102456,0.0896988777054475,-0.11827462571769154,-0.1672975943703392,0.20693651286268352,0.1964738666715638,0.1765478371154639,0.9343889172138572
-0.06484369486943983,0.061540087720236086,-0.12485268179567646,-0.18331594208509083,0.1897336735094664,0.17215826725504674,0.15059041644342291,0.9022350778499779
-0.07072681025464503,0.06260981674375844,-0.14843597836738093,-0.2057691270406839,0.156062301734809,0.13787717297396493,0.12193650803882704,0.8947897011659396
-0.06374954728183214,0.06335771430888971,-0.13636605780659994,-0.19393090557305132,0.166557205723615,0.14495033284525322,0.13202434610578523,0.8282476311438858
-0.05974113456297078,0.07283549983169564,-0.12076497698291278,-0.1713185372183549,0.2055985548756607,0.19498676299564593,0.20673102716556385,0.8953489862904974
-0.06482128462276984,0.07516637328180685,-0.12515235378516384,-0.18688805426001526,0.19462413205144163,0.181824161657409,0.17680948683465555,0.8797019993829267
-0.07608832458857723,0.05064072066090271,-0.14591972765514807,-0.21165945021222915,0.1585046016135909,0.13592927697477383,0.1460404263256405,0.908343850609319
-0.08205058998394082,0.05682751038183774,-0.16979042748904818,-0.22892423033033682,0.13141293588072941,0.11690508482771297,0.10484410924546304,0.8917286134110249
-0.05472929194138346,0.07584930746453673,-0.13078875561114245,-0.18844957792313044,0.20020328805083637,0.20785237844202742,0.19558479180107266,0.9217624822264909
-0.0654274236397175,0.052446589371252614,-0.12783612815201617,-0.18929243632529347,0.1952858731975332,0.1921994080125905,0.18734098496852272,0.9183086417574293
-0.06655800233322487,0.07464353888680976,-0.14584469415512605,-0.20371600277620688,0.17481584937804923,0.15852665619992515,0.14519076936407915,0.8865224136893477
-0.07918272397951498,0.07324429702996067,-0.16228073360924244,-0.22822507376178963,0.1522099071473469,0.11463047114392752,0.11311814678675071,0.9429163860270511
-0.06161106618967115,0.0772934017251968,-0.13602575850318716,-0.19505401314727794,0.18399072139338213,0.1656796538560491,0.19250836082180126,0.9178054146887813
-0.0676320033310514,0.07103824608072715,-0.1330955972176055,-0.19156873079718187,0.19750532643364133,0.1951844398197508,0.1973110551750946,0.9437287075046255
-0.06963795476752833,0.05902353466547172,-0.1548760425741022,-0.21138112339550735,0.1900117145415259,0.17195867672617896,0.1653291182786927,0.9146671500246475
-0.08790110219390224,0.07825723536881855,-0.17162361720705577,-0.23481519739895318,0.1614261551250354,0.13217232527094164,0.13471655421571027,0.8930843037136571
-0.08065661390621466,0.06237440446938615,-0.15290024788271217,-0.21045991014890372,0.19430856291645715,0.17669138264258968,0.1748686770577643,0.9034992138033147
-0.07457690298334865,0.06000497295946615,-0.13570147022283643,-0.19706709809702433,0.21247562342105406,0.20694803888712335,0.20545471737583654,0.9238351836429705
-0.08099181141411721,0.061168246127752096,-0.1468863988849258,-0.2068950690871272,0.19254653824772122,0.18891085232563612,0.18143867566278077,0.8809781788316289
-0.08822685308715508,0.06618866274616089,-0.16038636702036302,-0.23634924009624625,0.16383885496371597,0.1514233521503143,0.14617358626448448,0.9104395180077682
-0.08595129156205042,0.0792150017124729,-0.15429244221705962,-0.20043481301963922,0.200343584328954,0.1774192487041777,0.18493326469262175,0.9273358821806907
-0.07366404310004022,0.07215412233897815,-0.14028120076153258,-0.19578676875509798,0.21189080384236442,0.20079298399336265,0.19853599454661097,0.9186984353338132
-0.06910079641688491,0.07769797666281222,-0.14892420200719042,-0.20837755851234493,0.191533121141785,0.18428759182260432,0.18228184513809542,0.9159408805463913
-0.09253061835687916,0.07869883202033286,-0.15910717391437418,-0.22925966636183867,0.178167781830896,0.1516499322898127,0.14781032700704164,0.9340629796444035
-0.09085882163607303,0.05990612727110184,-0.14688314370615937,-0.21496896616120847,0.1996201860866229,0.17628710973230485,0.16746323385394332,0.9105339458130828
-0.07146662315688584,0.07471869476079558,-0.13204644894357895,-0.17861750099323473,0.22362728065262819,0.20333376924798038,0.22198931951727718,0.9487149338350322
-0.07750939100425486,0.0636600232510601,-0.1369640146349977,-0.20393438565965644,0.2176305206241841,0.1876240227156692,0.19020077855261042,0.9755737043712921
-0.08883752517063523,0.05905382958257131,-0.1648440327259683,-0.22151178359995574,0.18255395916378958,0.161298102298265,0.14948027595347518,0.9042134919330003
-0.092540304932861,0.0627674362437328,-0.17513088930301968,-0.22967030053262197,0.1824825823014234,0.1374776118044004,0.13467041673293173,0.9217709477121862
-0.08890669312884718,0.05727115951126387,-0.1409826309758298,-0.1939518817498549,0.20689716827122856,0.20588476454053606,0.20690064963103383,0.9858118917842393
-0.09333416694960234,0.06777524483127503,-0.1532090746675145,-0.20227801735261172,0.2043926501357792,0.1800254492952126,0.16962970295062985,0.899442167910632
-0.10731189676789354,0.0503870484657538,-0.15803304011758781,-0.21851290611127638,0.179318253930589,0.1625133988520871,0.15018831364356908,0.9206976705782416
-0.1045665108468301,0.027320205474743425,-0.15549935810845117,-0.20532612029030162,0.14736192372330253,0.13265020305815473,0.1389520838825042,0.9400683806859508
-0.06555727130175498,0.03033409082984624,-0.10674157833963469,-0.12898719319516752,0.18080013343049503,0.1983771259912823,0.21389806238613107,0.9584660498368062
-0.07792755516923865,-0.005299418054298899,-0.10218525652343706,-0.1496647773360622,0.16724489766157907,0.18787860087512268,0.2169558226566254,0.9891289020218033
-0.032159840787720835,-0.004532832154515928,-0.06865063338014994,-0.08950693561613644,0.11296552453165745,0.15672366153314568,0.19195466117545107,0.832188751712815
-0.015122150070405824,0.013594508455889692,-0.05790369724421612,-0.08745083692578226,0.11683967183005839,0.12599218515562663,0.14927624570839151,0.854012325401131
-0.013730911369155923,0.006352509338186416,-0.05134391108569224,-0.07261345177765498,0.16337604927292101,0.17918403129090127,0.21059069273567246,0.903986327739173
-0.02662364057642333,0.032925996477350034,-0.0753861178298121,-0.11078230741687449,0.15245842354326455,0.15767878357377357,0.18585158971925808,0.9185184058275224
-0.048131514114355664,0.013091536791702052,-0.10338874126051549,-0.14706213371682653,0.126854551280519,0.12812143420742816,0.15343313634606878,0.9280648651816321
-0.0648775220784188,0.02086704577953727,-0.12425583909254923,-0.1647926474596215,0.12005088235250579,0.09558494233943564,0.11166087584025486,0.9479200090212364
-0.05455491495831926,0.008136356684062207,-0.10357113330861017,-0.13898264897948576,0.16186977125607116,0.17071504318577996,0.20076399199607678,0.9219261580403009
-0.06270666407680864,0.00999514346589353,-0.10993593107807115,-0.1630832130777865,0.14238683337068972,0.14662784459854536,0.17503887242637967,0.9230523940366556
-0.07031915043316146,0.020171042375953657,-0.13671113945152283,-0.1756317368622311,0.13092641523365361,0.12046385352248169,0.13605760992397137,0.9882224010683941
-0.07510056306421035,0.030737864637094187,-0.15788930240556337,-0.20454128375541802,0.10073074729634389,0.07472026211779138,0.09171335286115752,0.9324645972266613
-0.06742000568103328,0.032050112164346264,-0.12029811170715937,-0.172853898861752,0.15860288391392158,0.15665033871625808,0.16864593032401504,0.9156811776647719
-0.06575196041854074,0.022301873339043238,-0.1122103642527229,-0.1673507889222736,0.1638251767795975,0.15436666733421145,0.16599088444164084,0.9277078136886333
-0.07376052942064623,0.014799585393354173,-0.12577444480002076,-0.17414232553352826,0.13948004841690553,0.13695966172965304,0.14503861947708208,0.9329098441396941
-0.07505234737383792,0.03124675685739274,-0.15042249798301272,-0.19480908258552243,0.1138940771860708,0.09852158834993952,0.1114762123392578,0.8979423466519647
-0.0628347750668786,0.04047576910839297,-0.12257072916882378,-0.1638207861968236,0.16654777896676876,0.15473961121900404,0.16707989834727874,0.9105483288417091
-0.06250423201184635,0.03925601073219362,-0.12668744427423745,-0.17865722606442894,0.15941102568614235,0.14656042651709206,0.16060179481115133,0.9090232380551472
-0.062366587180038624,0.018864874226458675,-0.14583599178385295,-0.18943227660324297,0.1351160654846274,0.11054118417847567,0.12656953659017997,0.8995384472203464
-0.07653672553598685,0.008416491437066548,-0.14509058201498587,-0.20207589370825774,0.10877890720912481,0.08415005653400258,0.08534284421516665,0.9169763087645773
-0.058222453329352025,0.029888891298156833,-0.11157245228062723,-0.15416920415616575,0.16524277970460677,0.16145810985476738,0.16462935645763513,0.8981569875283816
-0.054460668499079934,0.03948154702613932,-0.11260918054556429,-0.155901443280718,0.1578691057127691,0.13741747107740893,0.1376261133935378,0.8759330255780278
-0.058485995774949937,0.007285551603223403,-0.1343407364169183,-0.17527660782828783,0.13549037575896872,0.10796559136616646,0.11697880257038187,0.8916149496001278
-0.057047796434255255,0.005442742003383273,-0.12429218485225475,-0.17105750588314866,0.12095866656645954,0.10975516373858171,0.12038676467482293,0.8552703874060105
-0.04004030133328915,0.0279674710197107,-0.09901033720947053,-0.14653369294449864,0.17067403282686544,0.1556134811626621,0.17038131924090677,0.8816923279530585
-0.054769761841000845,0.030134225179333736,-0.10734891133497892,-0.16716830644875313,0.15921769288364027,0.1356850461722817,0.12128073561043701,0.8493656796864417
-0.06655682880193556,0.013943140685633015,-0.1325685909106408,-0.1870251843916595,0.13002632307083817,0.08366558327719853,0.09129825882426564,0.8650621803470122
-0.05772453260585385,0.045284874272610555,-0.10854314055371225,-0.17386973289589552,0.1590381774407664,0.12599526798252292,0.13805684387552597,0.9058004655724436
-0.05417353900027884,0.035571842145139906,-0.10468550629469914,-0.1626702255487831,0.16937095647910488,0.153993997868546,0.14987451411800365,0.9596396120920886
-0.05737063822687127,0.04087655666418112,-0.11284835441216728,-0.17978896349590126,0.14922239155271036,0.12344559754947365,0.11505372607497454,0.9630204223358437
-0.07893415176760538,0.004748954014712772,-0.15198091699442506,-0.21063549149434108,0.12878750460136634,0.08896780245624075,0.07279465042010164,0.9082741820416727
-0.0689005821236244,0.0354031856848699,-0.12475234362683074,-0.19468690146075923,0.17089306385094938,0.12643537169094105,0.1453456924749747,0.9453006924868698
-0.058591621652151545,0.056768959871085156,-0.1257921280694001,-0.1892042979337391,0.16370984847944667,0.1334516564322958,0.1489636458751118,0.8781287277997829
-0.057542279533049925,0.03369315095026504,-0.13295359611590557,-0.19568180450994402,0.14417484280103776,0.11147369873371271,0.11656278290535917,0.9162122809027313
-0.0778646430617691,0.04427950926646178,-0.1414591095256314,-0.21717133257811852,0.13586933301370818,0.08378817795747953,0.09194048591840841,0.9111440059183714
-0.06279079068723521,0.04313239646305474,-0.11298110205281521,-0.17850260289042547,0.17122020876614727,0.136610465182318,0.16477852530391235,0.9436465380459572
-0.05298577910021323,0.03488608862457539,-0.11814282632910408,-0.1771547626700989,0.1730240627107069,0.12859994099903352,0.13931423023699804,0.9106409666426144
-0.06151893074962841,0.04252500543056145,-0.13099607184887477,-0.19256451484694043,0.1486460663555961,0.10227921251410783,0.10409330360457947,0.893514127470507
-0.07606453737986285,0.058605688827164173,-0.13471385697725433,-0.20119914426045057,0.13948367352563074,0.08551371831924541,0.07373281263796717,0.8936677263103139
-0.05274203615094922,0.035626287645374344,-0.11535686601399647,-0.1639008236244731,0.17234442731423377,0.15774871491582254,0.1577767407684032,0.9303187595903227
-0.06273997044987031,0.05811183679480661,-0.11842646718912081,-0.17739964938990146,0.16721745941792815,0.13754207357347825,0.12004289723520792,0.924089649040953
-0.07194761626377887,0.041093773064376574,-0.1263251452624376,-0.19879970088006163,0.1296510863158288,0.10353980706646217,0.10232164542484296,0.934391968795508
-0.07976565990989343,0.03817762446177181,-0.13926293044354562,-0.2058128536660666,0.12125798572715342,0.079566729795672,0.06843668405460653,0.938497456062791
-0.05355549117865163,0.05454033462450622,-0.12236909117931674,-0.15277491237526744,0.17496651046371522,0.13966091229737887,0.1531033361313012,0.948836243658929
-0.06778330776817344,0.043378216976357575,-0.11671915988747972,-0.17353821122967733,0.15721426623032428,0.10893926029329662,0.13064850829149496,0.9228385977240605
-0.0776517820044883,-9.279027660052674E-4,-0.14313901369477483,-0.19939528264050546,0.1281144095196592,0.0964164134267576,0.09374410171125949,0.8048467847969247
-0.09216549282800574,0.027070331825852598,-0.16413788398963278,-0.22792796181103664,0.10554468450596133,0.057269229062903625,0.05959572468287745,0.7875345150643829
-0.08736300622500326,0.014034360661367554,-0.13613100778364573,-0.19019400382318463,0.1562633817200019,0.13644146904170668,0.14789785061576027,0.8556947974429581
-0.08537717528791228,-0.01734618694756608,-0.1366973870641732,-0.1861343364710758,0.1266978494239116,0.11988620100230317,0.11654130364155497,0.830365224217734
-0.08906847904419667,-0.012935968331122136,-0.14465605962766317,-0.1943590755604922,0.10819402489225727,0.07693923832693442,0.08792297098572213,0.8469843019773674
-0.10472716111805512,-0.005829702029414338,-0.15828266994822238,-0.22233329309561814,0.07174670023314567,0.045429312642405094,0.049260122896422544,0.8772784580916202
-0.08819396076231932,0.014777518699919043,-0.14330635271701336,-0.17869310671800376,0.13197709711241185,0.11647816723641431,0.12063764877432095,0.8483991140265787
-0.07487967989439376,0.017689406772572414,-0.14345064700160842,-0.183406431519771,0.12651228159692335,0.09517590672975712,0.10922721223836743,0.8619994509736818
-0.08274799012459264,0.016312859934299956,-0.14716607711346122,-0.1895029085354047,0.10282142077942637,0.07984207956657209,0.09165308938386295,0.846576188381039
-0.09186572943630215,0.012632200686535588,-0.1536263185752822,-0.20416994052632645,0.09061521987662532,0.05671300351759655,0.060233178154050514,0.8236347693686625
-0.06480738586883142,0.03201063012266268,-0.11501696700293279,-0.15374381667140014,0.13223969998081084,0.12884219387176485,0.1474765467629837,0.8761073596680071
-0.06606925970480446,0.027112836429439527,-0.12407844512385224,-0.16752044251048526,0.12407873795557484,0.12662413456817928,0.12544782625669534,0.8375047407880514
-0.07502857248686372,0.030667026058329813,-0.13093915354275465,-0.19149624099826745,0.10058776109166709,0.08301407366245561,0.0987754192077401,0.8358665135022438
-0.0730870810876541,0.02047805663010549,-0.12848548933457773,-0.17238276240399855,0.10096580231137399,0.09135560124234271,0.08726386411461479,0.8289787910430372
-0.05415407634463732,0.031007207772914144,-0.09684390051910043,-0.13567633316133051,0.13719068905082454,0.13824582242784753,0.16575255750733897,0.8773084554491314
-0.06217792086596417,0.0245627763505345,-0.10324949446765376,-0.15034402595526153,0.1341986655807301,0.13258904660880672,0.13965858442158854,0.8326370498987385
-0.06721997737575161,0.019426715831191918,-0.12088965434859245,-0.16593312015583522,0.09829786465967194,0.10007307262140684,0.11203196284065836,0.8342808291500993
-0.06006822602108916,0.036192287525983954,-0.09920066147500002,-0.14681624467275492,0.1315184634272443,0.11562812320146562,0.14756384277066195,0.8271465532488079
-0.04311439513367997,0.04601643387847003,-0.0892500228559627,-0.12583238060747856,0.15638699171698117,0.1645685977413709,0.17990649153617358,0.8856133134572137
-0.05434747416617092,0.0474706428972554,-0.09957413494492282,-0.13781800320053028,0.151272332289701,0.14339625905394904,0.15508997180375844,0.8520178338373713
-0.06442256604970012,0.03142590480176677,-0.11339755117374924,-0.15361402746177988,0.110387947090388,0.09634464814924999,0.11262279899863845,0.903258910258301
-0.056397126621653304,0.036177021404308216,-0.0960844480720389,-0.13719528827363964,0.13260138965636975,0.1324795366431205,0.16245204895070464,0.9136382649283163
-0.04698578199958618,0.054079272217746194,-0.08537785042947632,-0.11843748168125418,0.16386881337889922,0.1678812886990887,0.19659991586471753,0.9636956534274846
-0.05292804064144541,0.0475945675725766,-0.09110555761779088,-0.12789483659056639,0.14376096497042065,0.14592261374712612,0.1557278451949335,0.933086908853616
-0.06800002254992055,0.041453721065802945,-0.10425840209086942,-0.16650839448824836,0.10760797761368146,0.11484815725532058,0.12198036328294784,0.8932082785416993
-0.056400086125361265,0.026949179468783252,-0.09066523717678777,-0.13790510951535895,0.16187276324157118,0.17189393370488404,0.15763635095949813,0.885734233649403
-0.04759254041857909,0.03347410072786643,-0.07786671190896037,-0.11228457467262673,0.15358402263724497,0.1688974556779119,0.18094839637677695,0.9652415588633385
-0.06027878133270131,0.032932529971811994,-0.09479440774366732,-0.13524427545162787,0.13246418216589292,0.13622213304279404,0.14575863931261823,0.8879657276668773
-0.07775250692716795,0.015961818080043697,-0.12068087920780632,-0.14751764571603637,0.11194103708280019,0.09823924700372276,0.11963447494099563,0.8925157415122577
-0.05415502575530147,0.03781772143082532,-0.09139821154182388,-0.1182525671531037,0.14167760912847902,0.17100950942367124,0.1832721221649817,0.9140492241848084
-0.0657007372430683,0.04111600395130523,-0.08482670110034807,-0.12407615141067914,0.14131179509222783,0.17501731617603994,0.19418245368646225,0.9147856558828498
-0.06601275769932441,0.01263170144409681,-0.10378012354959838,-0.14150337567245963,0.12978055239674172,0.1559056454212495,0.16410041864550276,0.8961217827210088
-0.08132428395268149,0.016539771907369383,-0.11774356359479458,-0.16476679350622325,0.10932678076895427,0.10509764126424462,0.12965366350003624,0.8914269292234931
-0.07064143986845764,0.04229753183977872,-0.09778404717440951,-0.13413494911762566,0.12291169418521977,0.17000199706044616,0.18234320205499624,0.88876674550174
-0.0689680773631425,0.0283882249609336,-0.09654733887414979,-0.12637304508741562,0.14856212493730386,0.1575739331402859,0.197133447778989,0.9103509544891857
-0.07823869941488942,0.0377909153819249,-0.11398064158780824,-0.14218450019049153,0.13379681061152576,0.14498501322561239,0.15500155243446292,0.9233792869717689
-0.08198213023961937,0.03291053578513081,-0.12692426628561637,-0.17114854906611277,0.10538607163757657,0.1184966637692005,0.11996958590552909,0.8751869988042466
-0.07790511310736604,0.02488148058870085,-0.11717428642489369,-0.15089554552545217,0.11308695877379037,0.12262698228132113,0.14530188489502893,0.8963124597325964
-0.06882210650669955,0.04974350605627498,-0.09332386162407419,-0.12283041080247882,0.14331443067002891,0.17421022479575035,0.18923839715684654,0.9229091085048653
-0.07102619688779359,0.046204648260124145,-0.10291611623764053,-0.13807449452701567,0.13816740660492802,0.15130271716596597,0.17937585845565096,0.9012099019535371
-0.07553869532736687,0.057698613229420256,-0.11540873089832066,-0.15022350620107655,0.12221729804529627,0.12316737718045201,0.13351945761712788,0.9486966351084893
-0.07857505057882878,0.042032974630653974,-0.12164150411240258,-0.15996258896073712,0.12545951023433843,0.12848242795432846,0.13654713232607035,0.9086183962595286
-0.06491312921039416,0.03950219957591504,-0.09137202528017634,-0.1240833202510529,0.15730667347300747,0.17676384615076823,0.20246663434012482,0.9308666559677188
-0.06212242459127995,0.04902042105513765,-0.10006696991216944,-0.12652194996587013,0.1450931824405029,0.15862817437489454,0.18431014817687044,0.9464448231505604
-0.08017055457999028,0.05395668233682194,-0.11379490355978626,-0.14498337676817047,0.11511759046514088,0.13885726372758647,0.14022795435270496,0.9069901882712855
-0.0906636731668902,0.05276989132037982,-0.12920560583606025,-0.16399527234532163,0.09561123305457053,0.09135245267727862,0.10491936686137877,0.8906480639699098
-0.06144614659772393,0.040905156510345875,-0.09418009790893359,-0.12196199901602864,0.14170356921098665,0.15892995198551926,0.170196292169441,0.8817969003389188
-0.06105052288289125,0.04498939968064962,-0.09455338784875235,-0.12295811840146509,0.13127802655295503,0.15118742799941873,0.17345310622671792,0.9318863870311587
-0.07236609768540245,0.061548561208308566,-0.1102352913708919,-0.1361373932577472,0.12425724854886917,0.13594561090357218,0.13849164600415337,0.8903275202071237
-0.08385672533279469,0.034007648940034385,-0.13041346554530506,-0.16028207569558367,0.08126759825392456,0.08927104135170284,0.10505260019803889,0.9237499787420548
-0.07733059656583866,0.054557379877804485,-0.12259533286039184,-0.1496158638422579,0.09733491782901656,0.08304747832786813,0.11084035350308179,0.8682459614212882
-0.07005251792553421,0.06160052458601269,-0.09871987770166886,-0.1305033902310966,0.13486862060279609,0.13756668491321372,0.16167346935389773,0.9420634038394631
-0.07384793112930885,0.05255038010690016,-0.10619041972147147,-0.14320533353703735,0.12305284113326373,0.1142825579532065,0.12244455425503994,0.9646936859401096
-0.0881482595166632,0.0411831716203669,-0.13679160754186231,-0.16517546419031998,0.08050526736491656,0.08101751788601406,0.0909582639552412,0.8830856682074721
-0.09118277902458896,0.040356640552000694,-0.14311922783881725,-0.1768800343093188,0.06656595371603133,0.060517575443695105,0.06430188981229702,0.8845394054001857
-0.06997881214194916,0.04328851749563818,-0.113647510599472,-0.13006230752232983,0.11145848319386178,0.1154637484706101,0.13344993342607211,0.8598238624840635
-0.07167392919890234,0.05503415738466784,-0.11155351042181978,-0.14364302638399948,0.09987833956043034,0.09121647650524699,0.11602217928087452,0.8428669991343092
-0.07812658628771803,0.04606624541232997,-0.1250068754607095,-0.16046233516685632,0.06862457112323969,0.0571501771734974,0.0745308591302762,0.8184645127060226
-0.10156902961977092,0.035550033497362174,-0.16399227066310607,-0.1896885626683249,0.06467208225415583,0.060653492442334214,0.0639495831387714,0.7990809737677143
-0.059322762224950754,0.04824040921895388,-0.12262782575475689,-0.1534577525984027,0.10337723938601366,0.09859722827855422,0.1140105303891005,0.7747463404451802
-0.06455618669118685,0.0674321862111032,-0.12064050102703752,-0.17324908055813593,0.0812080960508103,0.08114772388167645,0.08992414469545622,0.8306655529539981
-0.05991481073960899,0.07841495846455558,-0.1311180601182866,-0.18573885531032078,0.0637984240276633,0.05265406598684105,0.07027761574296965,0.8259567369332285
-0.048332386302162744,0.07926310264361199,-0.12449725442974632,-0.1802394302885849,0.08826159190836605,0.08482371095804515,0.08045393823790048,0.8096430295927517
-0.03133071940034912,0.10672424058339723,-0.09630643837722555,-0.14721564296404782,0.10631010083817795,0.11187926890871225,0.1076192791944169,0.8421828462981432
-0.03765772168229953,0.07814185598923519,-0.10975215986075218,-0.15285638099968435,0.09829169409341194,0.08203331841687383,0.09563294749713647,0.8650726816189082
-0.05003708112414684,0.07913203294259102,-0.13030033085675197,-0.18041316240164507,0.08608037768213711,0.06193937019647649,0.06403386907538652,0.9221045034025982
-0.038176434988420244,0.0944733414143522,-0.11336236794142932,-0.15500076816501163,0.10674241061168355,0.11260760645647301,0.12665973177419157,0.9282750038539164
-0.03254318684444682,0.09823626684040056,-0.10610816049676754,-0.15416499569668474,0.10341560741456296,0.10574308438342794,0.13031911263350046,0.9185685428263888
-0.025875811968582074,0.09887124578225197,-0.10692102132121217,-0.16387294064629387,0.12136402636227987,0.09726848917750644,0.10262431099874159,0.8599838054673379
-0.039656794391165325,0.07609245014026561,-0.11538014119353412,-0.17673935560852572,0.08862711381600585,0.07954197598320453,0.05818044459921341,0.8791679067532434
-0.017488311603955312,0.08650011211910469,-0.09040828610228428,-0.1395336933247551,0.13683318485369486,0.13034616335022914,0.13524646421466852,0.8979732642085104
-0.023909471406083745,0.0667287492507592,-0.08095531749785266,-0.13641361288377465,0.117836572358131,0.1280595145378205,0.11876744226518039,0.8926282806575117
-0.029222532094351786,0.077384375014697,-0.10468951313992905,-0.15473925580477954,0.10936375517136238,0.08795698619922832,0.08979484916815114,0.8354327780554787
-0.026028430515781565,0.07957515413936883,-0.1091368491915398,-0.17161168278568983,0.10688393335501212,0.0920538784026399,0.08444748643571479,0.8461889767880052
-0.014019463858507629,0.08541961855867501,-0.08300848390447643,-0.12953176838158825,0.15233462233009545,0.13409557047688803,0.12291691076189881,0.9050009744194549
-0.01993968342283863,0.06846872588198337,-0.08374581327515745,-0.14959056126525483,0.13552099080693314,0.11413439858631748,0.11257341324134071,0.8505889844817934
-0.028845991442941758,0.0740695791412193,-0.09241497810547922,-0.169278964407121,0.1038082949007553,0.09523752410466961,0.07668257732606087,0.8583899608734253
-0.04348413119005455,0.05975195746098244,-0.11031244005729461,-0.16809908938093104,0.1210667569151895,0.09567891318422114,0.09090550458982712,0.875043134388803
-0.03436846766731297,0.04947537080946306,-0.09843330041943045,-0.1367174515904998,0.15387879083447553,0.14207117788698542,0.13412054749831592,0.8885388877256597
-0.04988702762798125,0.07455032860606783,-0.0984123312533211,-0.16266500467971046,0.13802209773575627,0.11374835906251517,0.11990682748200003,0.8509434483515107
-0.06240859715076459,0.05445955485566785,-0.12683320749531046,-0.185304872424776,0.12390494793445793,0.07514694316641098,0.07408086839807543,0.866289780659395
-0.05084594783730848,0.05193004344324113,-0.11029618329416813,-0.16220337616556457,0.14216283622395143,0.13144691130051236,0.12284414743078244,0.8832418287765716
-0.04779309324547895,0.07387579597143829,-0.09839669485942444,-0.15620922556252145,0.17304765821886192,0.13934308638357057,0.1405578619815836,0.8748502571373025
-0.05265923793244255,0.06211406975053163,-0.11205831274405864,-0.16801648592439222,0.13631690622186957,0.11611798432950661,0.11919845719494948,0.8600322591956533
-0.07431927186842868,0.05973681775024334,-0.1309733457076092,-0.19897463191472511,0.11686707853438215,0.0941502547276204,0.06598686835692624,0.8524292658974559
-0.0489394399202707,0.07014948270653923,-0.10410838002906031,-0.16552676159423327,0.17526397662271362,0.14290162382592317,0.13650875319625078,0.8317356932208799
-0.05001977651020222,0.07315585406222432,-0.10414111723995215,-0.16568023768250223,0.1748497194826866,0.13393872573993998,0.12447640878210567,0.8951302508450629
-0.0643565642934941,0.07573815978690504,-0.11592233142416937,-0.1779869013516615,0.15536375827448287,0.11100975445087023,0.08242085241869015,0.8358424408159033
-0.07948490202930317,0.0629666794528773,-0.13979683220062275,-0.20134262411487813,0.14958412482403485,0.10547138741506994,0.07946473530776078,0.8501599289491528
-0.07248184520454812,0.07294019990817437,-0.11983595564690225,-0.17177943378141525,0.17978836935621728,0.15344035371444473,0.13136882784082796,0.9548299535040088
-0.07422319162642044,0.07587323253212863,-0.12442490323251422,-0.1905775815931463,0.1626657370734005,0.13060200989226164,0.12305293035054411,0.9282030134500445
-0.08482333711433429,0.08700148222148862,-0.13901098686668278,-0.20556031847626854,0.15758763335430281,0.10003264738537367,0.09386351593101205,0.9483229127509719
-0.09570828222986699,0.07885027055738246,-0.13632031826296387,-0.20258337969336826,0.15170086025551024,0.10110074606764698,0.10962425304117834,0.9173037078795541
-0.07200904984879825,0.0549075925796568,-0.10813484884698854,-0.1736912232644645,0.171246356803689,0.14053804074188436,0.13711990485366604,0.9748264129999865
-0.07108197094592196,0.06304570800853897,-0.1234897502713965,-0.1923927868454067,0.14629970047459742,0.12684756477620257,0.11105933094072029,0.952761825372031
-0.08318899097458622,0.07051388731885178,-0.1424498255183102,-0.22254133966125267,0.12057267864038707,0.08460577721515479,0.08005393117462627,0.8816300891981514
-0.06593790889469217,0.06259090431579863,-0.13094435037791452,-0.18934117004183515,0.141186141865214,0.1082628368733064,0.10367503055582286,0.9231417046888877
-0.05506384926246571,0.05816273085305872,-0.11258001979520674,-0.15914894610103014,0.1578227725104054,0.12651921922051929,0.12591416911232675,0.90248530091666
-0.055874490149186024,0.08038323790384362,-0.12016405845771774,-0.17940483113599506,0.14908159013115346,0.12932395070338368,0.11478506720030543,0.9629197687761416
-0.07249489941050821,0.06797114621405713,-0.1288390855399162,-0.20282440566942275,0.12117421179663494,0.09677429380298211,0.08536690198993419,0.9242459808483057
-0.06061078571685101,0.07078037006688645,-0.11196142097143554,-0.1691582288284678,0.16672249041883494,0.1462202679556714,0.12827093796093583,0.9410898090613192
-0.05290016931127304,0.06046868334739719,-0.10353315496672577,-0.15452494452606363,0.1678246912970258,0.15045034877878066,0.12988918943163102,0.9626904710457336
-0.055434936025532344,0.08187629885581248,-0.11019165460768787,-0.17350714796058803,0.15683454979306036,0.11981528888542287,0.10197990161905614,0.9348829058995698
-0.05725862771427631,0.06627951470492138,-0.12505652737334563,-0.18091823814986702,0.15678265158247992,0.12265424417896975,0.10631307859068811,0.9045606144432572
-0.04049495824515006,0.0816719131236805,-0.09156491705841482,-0.14222660138651816,0.1893099772843968,0.16132301043736455,0.14120957459555414,0.9619729854600951
-0.04885130020236516,0.07123660231679156,-0.10346470988194553,-0.16135921038526624,0.1614945175143653,0.12930904399153909,0.1236138984714546,0.913321722784247
-0.061691197879895826,0.09591231115461123,-0.11898553897554096,-0.17575434607463697,0.15699618906777707,0.1134898111186724,0.09990215151043365,1.0344051162986188
-0.03919069354191652,0.12124570305913192,-0.09184917369256601,-0.15498240790772405,0.17575575450483089,0.13723922883064468,0.14505856848452917,1.0456296260138354
-0.018342571052366013,0.10639411921126421,-0.07575372560190859,-0.13007256274540324,0.1914368966921338,0.15312950039929926,0.1452753416450887,1.0910510109292526
-0.017218413546497762,0.10749059717214601,-0.07558357531720884,-0.1428510542744046,0.17459884587065533,0.13248722627878487,0.12741565368347374,1.0611008244421722
-0.015441362327063316,0.10596493236754032,-0.09323922124451435,-0.1394375284719806,0.15481882982329748,0.11996958337489523,0.10293222736595971,0.9980691642514843
0.007634472845005284,0.10410282582461769,-0.05705081625384579,-0.09982892273848172,0.17879400357452696,0.1529782429738215,0.14860980121201883,0.967871184503486
-0.004030273265406014,0.0874553372128504,-0.05996074153820487,-0.1032714210560127,0.1640279530802647,0.13725774888157902,0.1323488294403595,0.923300164509878
-0.015148785766408445,0.08969693368906916,-0.07916026934670724,-0.1260832733602171,0.1514950484660419,0.11810176277394363,0.10931099106696772,0.8832438665178896
-0.011318922306377276,0.09420830605185006,-0.07190944062503726,-0.13468164719744852,0.16414926035103405,0.11918311466465004,0.12350181575833682,0.9344191901621318
0.0021311659682471534,0.08945125621910624,-0.06667315782896531,-0.09704953279093524,0.18565955484335037,0.15600366782516298,0.12771521417792578,0.8947958189391384
-0.010171091943389037,0.10129237725628738,-0.0667383938880025,-0.12314156165488965,0.1567199295503486,0.12717549536317507,0.11711502725949127,0.9238998209571576
-0.026187710076594317,0.07775562194193994,-0.09321845782012576,-0.15723775137493243,0.1559357673632436,0.09607601607455599,0.08436448940559434,0.9786577542088706
-0.013119756489839651,0.08778850794726975,-0.0692843966420193,-0.1321075234332944,0.18284851839182537,0.1427907345210327,0.13404077119219876,0.9120305107243506
-0.013540097496726775,0.07192749436723062,-0.07241337219042757,-0.13165334909653012,0.18801257083060965,0.13922600946987052,0.14132626075946314,0.9310077619757522
-0.0224975124717142,0.0761607608050367,-0.09148583682238949,-0.1516029010425966,0.16271355103892648,0.11332840093892714,0.11566294018666767,0.9278835444521314
-0.032359525585584734,0.07256265428126304,-0.10429439934873802,-0.16705651758116477,0.1669064041906617,0.0972735157223703,0.09052942457941363,0.8899853964202986
-0.014764125199338864,0.0890538844951045,-0.08223677914446557,-0.14687438338921602,0.18962350692956517,0.14415513976333946,0.13861964859123763,0.969651964876385
-0.029409948799700318,0.08103250109015536,-0.09176864726083167,-0.16151306843292312,0.1803238286318604,0.14639840840646345,0.13402359880263404,0.9869292660224702
-0.04281193613892405,0.06213786218971405,-0.10619243795932234,-0.18153942605981851,0.15392500166511483,0.10486890058465816,0.11440112773707678,0.9655257817829099
-0.0495937191732334,0.06362748785696881,-0.12234747421531106,-0.18936890100687037,0.1550176739620479,0.1281680698280345,0.12171303840027357,0.9108820420805677
-0.030640211928311706,0.058550018569672665,-0.09878282058484938,-0.17782208931226456,0.17056682824727185,0.14399561612289116,0.15663210992146892,0.9586779277876362
-0.04249420990514385,0.06090935088415304,-0.11071808933558439,-0.18052677138028586,0.1613862641065562,0.12352653715864598,0.12569012991147455,0.9222656268100238
-0.043380346558384034,0.0862557643537682,-0.1206026404409933,-0.19464441440931934,0.13419134694220802,0.09479432579010369,0.09558834552511125,0.931317138515567
-0.021408347237647615,0.0914682332840448,-0.0943971574272001,-0.15747618275286696,0.16476923952192823,0.13573292003868345,0.13399910380630398,0.8994499718087599
-0.017652310357999232,0.07401556864690079,-0.08382200117447823,-0.1556925118333916,0.18868236713622794,0.13793819948859762,0.14792470187068682,0.9295531659949046
-0.02464669624172391,0.09173235389597645,-0.10993368906561748,-0.1751119271129425,0.152845314043634,0.11545934431455178,0.1198900982996294,0.8390796130782857
-0.03553187245212186,0.09849722980271848,-0.11999517022120978,-0.19194184814584095,0.14574931541297806,0.09442241168762659,0.08557239155829241,0.9010203376917553
-0.029708121250812895,0.0677853179296021,-0.08921154806894493,-0.16187377603940306,0.18312229498407995,0.15082184567985646,0.1424083418662145,0.9029620328425924
-0.02946951045730967,0.08707081891383492,-0.10311220739321078,-0.17428435230655784,0.17323815262963646,0.13296564841369057,0.1193445245547819,0.8797089729602262
-0.04026040566876591,0.07852817301312817,-0.12187046544064097,-0.19770144772015802,0.17065484814779464,0.10235256693637912,0.0897987101527784,0.892306304327728
-0.05009487087539402,0.08330053766710173,-0.11466603937344155,-0.18759283044016678,0.17310313141224895,0.133158871102885,0.11692759410209291,0.9800704632707131
-0.042543589961578504,0.08664273898005447,-0.10376967424312904,-0.16779073229768254,0.1982712435190889,0.15400239479339614,0.15106568290324096,1.0396962662260427
-0.04360587911327009,0.0937178706721631,-0.11502095649616886,-0.18253695597751515,0.17672669895097237,0.13219890272925955,0.1318710457898942,1.03578259876071
-0.06691604928938955,0.08186336048077701,-0.13598422301589164,-0.20494622964237225,0.14546253532044037,0.112881360786371,0.10091850873282034,1.0677629347528612
-0.06012446086384122,0.08044157053820755,-0.10689688723391716,-0.17040614396907772,0.1989626400918421,0.14855183694616622,0.1564799227498802,1.0654907810740806
-0.058562726783300156,0.09647648951108317,-0.11419674495292685,-0.18163681318103247,0.18288144563754857,0.14249618793974128,0.15321379836231466,1.0396746100062737
-0.07311359730852475,0.08652750798446104,-0.12871012467122067,-0.18812654529202572,0.1787686032238065,0.13070279931502177,0.13459505008013106,1.051771194710847
-0.05485495823156042,0.07355333102625466,-0.11346677373763589,-0.17280525523159748,0.17747909401788609,0.1386627960328185,0.14244403566478056,1.0198159342997783
-0.05333996409377164,0.08310793372014302,-0.08711600911577937,-0.15002150670685488,0.19174731664809766,0.17436894445809462,0.16901094019140822,1.0296972000352438
-0.05716436628324919,0.0812906312901454,-0.10129766580527386,-0.166518315992856,0.17958596813052663,0.16208087417683964,0.15995924215637322,1.0059244373809195
-0.05999469268261723,0.10204231499257006,-0.1186834026105988,-0.1757819563229253,0.16500399759738954,0.13767107680081203,0.1475435064331253,1.0541278854838274
-0.04074105580896853,0.08899594194053027,-0.08121126945365517,-0.12810076973163345,0.20024468109658639,0.1920490565306775,0.20111777259249777,1.0628218539169143
-0.04140483516104738,0.08902998359978023,-0.09342060132976812,-0.13358309000387322,0.20139254365806541,0.16700355696499464,0.19216908676123998,0.9861727403392614
-0.05207302574294461,0.09445042070804666,-0.09233380683238238,-0.15379189830400927,0.18316060351210423,0.1547151558622658,0.1761907833422792,1.0694779925042308
-0.03758987804618045,0.0956377745834758,-0.08395936495897278,-0.13610598985903688,0.20254917240072762,0.18635299069062558,0.1765405966695345,1.0510175036131064
-0.030643914446182835,0.08284693712393025,-0.071076954133513,-0.12118292164204952,0.21798376109601347,0.19046370849518177,0.21056546880097038,1.0152092222945073
-0.03603802120901648,0.08220806460335338,-0.08875642851327248,-0.13552671385087106,0.20429672278095412,0.16618965119056817,0.1850225146767235,1.010248491787419
-0.04432512146405761,0.07176112282856148,-0.0952165342451328,-0.14644858592607676,0.18444692047495545,0.1473963821103754,0.1710556096670375,0.9836608742070407
-0.035032454591642365,0.07764740247708982,-0.06358315060785637,-0.10910025551664901,0.2248951885828146,0.2096084085985584,0.22053378638234492,0.9522411496683978
-0.033744700623508234,0.08327311234442225,-0.06970178873817295,-0.12063070047462611,0.20985620373135583,0.19378416754106126,0.20918686739819517,0.9028108778436691
-0.05646280964432908,0.06595061213571167,-0.10186842674745553,-0.15977949419654838,0.18698125007938993,0.1686964021431475,0.19094326832081773,0.8261772143498527
-0.03818634333336897,0.06138719441288085,-0.08211379896544935,-0.1346903229652814,0.19977656840148678,0.17231682430766157,0.1955902286461597,0.8125147936870234
-0.02343302199256394,0.07774828222153148,-0.06040248418565487,-0.10975665267082803,0.2203230102521948,0.21361866979586977,0.23121231890371957,0.8037457028287828
-0.040496789174424216,0.053869422525857566,-0.06992518128695258,-0.12641680984745948,0.20548158033226682,0.1843978504082418,0.20584225952774157,0.8318283441944564
-0.05243609952377253,0.04429195648560813,-0.0837236329201555,-0.13950657166993807,0.17192203994333394,0.16688645514624462,0.1751061511342046,0.81230982596409
-0.032824805034561116,0.05110467258648227,-0.05365865189091544,-0.08902826807809808,0.21703492406329905,0.19837789789601956,0.22368428685635525,0.8480841835721441
-0.05556198908859388,0.03572866176407538,-0.05902483013877945,-0.08800425322043363,0.2129075255920129,0.20917050375579704,0.21598878397683416,0.867869716493589
-0.07186475710400095,0.040725400344509416,-0.09237735551266943,-0.12326116880730567,0.1878189147231812,0.1906571955700354,0.19020828716842053,0.8878407343424612
-0.08034247742223123,0.034032395821602,-0.10151390593800882,-0.13845882054433717,0.14613599294482657,0.14710411961061173,0.16316279958139543,0.904827008580991
-0.06828310251412012,0.03297858424673575,-0.07969384791650513,-0.1081181328390988,0.1801517146958601,0.19949358354748142,0.1971021671872435,0.9129690304227646
-0.08090763565841681,5.373177008336227E-4,-0.08795296529894084,-0.11437787635616634,0.1798219685037686,0.18648676583082666,0.19253472073686048,0.9759223746796042
-0.0937654835953227,-8.244670906768503E-4,-0.10818430898631543,-0.1419889245978412,0.15898813647339077,0.1576466593877528,0.15700769349658203,0.9193982299476073
-0.11792060428015867,-0.021109727285500826,-0.13461994399345378,-0.1837874271900905,0.12646062321984997,0.11980263512429482,0.12526988299063616,0.9167964704677118
-0.10168627255920021,-0.01492159800195747,-0.10751852218690838,-0.15434782502942476,0.14903079285408016,0.1461676318848815,0.14328427181633202,0.9224500077091979
-0.09253910645274366,-0.018924634170410806,-0.10788332811421333,-0.14328499812151124,0.1494748600484752,0.1681417974617216,0.17209234974197374,0.8990692328669978
-0.10093114708727652,-0.011833981999928564,-0.11730627666697234,-0.15073678208839186,0.13857850648267026,0.13801176384790764,0.14429678849538585,0.9171602746516138
-0.10189142025203782,-0.004958136416033251,-0.11796797731454745,-0.16403822779470995,0.10304821577241599,0.09090681989125055,0.09838778744669063,0.9359972486768476
-0.08465541274136433,-0.011285214688629308,-0.10467127958842247,-0.1335882172797062,0.12585885497811944,0.11837130783516342,0.12952660396648683,0.9086832630672792
-0.0874447274915865,-0.012294386508720098,-0.09921660382457811,-0.13195463506469576,0.13108311879341458,0.1333350758603818,0.1286200026870013,0.9072358798915838
-0.09814169182935306,5.177027068324624E-4,-0.12001169646112385,-0.15281427141547235,0.11078823607626057,0.11391953077139758,0.10976513556146791,0.8933731551168517
-0.12041728973528129,-0.007771882695139468,-0.1331008617533036,-0.17723356759768846,0.08367773323893121,0.07388271372936778,0.06558668292420318,0.8252329758114972
-0.10564704682591441,-0.00962290677535542,-0.1061553416775613,-0.14093126724213267,0.12239716356074375,0.1309996021510198,0.1275702070283651,0.9494275919102468
-0.09531944726481459,9.474256756803467E-4,-0.10526710412112626,-0.14275598605252723,0.12058974377939226,0.11843002048395639,0.11616779609648512,0.8939957069639237
-0.09503698216919804,0.010400951797557373,-0.1166650661998442,-0.14361457072870115,0.09818475423099143,0.09030362472606979,0.09008605230986931,0.8736370837261874
-0.11379833741669325,0.004995505244478615,-0.12372902541154969,-0.1696612794734937,0.060605110444006335,0.062004936356512594,0.03701328077416834,0.8465334645036269
-0.09361158884270404,2.3588492969882358E-4,-0.1019110561403727,-0.12595105192265732,0.11432509976389361,0.1237857110064162,0.10756737763278826,0.8372059932402078
-0.09088832984368557,-0.003079368676977584,-0.1018080549357456,-0.1257156821384618,0.11642168043237178,0.11835480599590067,0.1088958822937266,0.8731680847130339
-0.09596447489284846,-0.009109572107911426,-0.12051693172827187,-0.17039091346776886,0.0864989254944302,0.08889360022540871,0.06711150456280371,0.8305301142865784
-0.12567508931596996,-0.008268536785977207,-0.15745481456430632,-0.19950515219621953,0.06415341801344202,0.03899230298251801,0.023686851198276793,0.8297774329279644
-0.11340528212117926,-0.012124626549797596,-0.13695377061452263,-0.17941850987336472,0.1117754406345845,0.1016799439352578,0.11090429957617676,0.8409364207178366
-0.12461704444465369,0.001949140577923586,-0.1471293665808417,-0.19456076198987776,0.13554584926184574,0.12892177878989045,0.14310271928188395,0.8610825764056834
-0.12571654818303607,-0.00525223811072334,-0.16361305463405817,-0.21518946802085615,0.11374592081469513,0.10698418362308193,0.11135064324582632,0.8324071030488316
-0.14057626259022332,-0.01118795129982049,-0.16630366005818828,-0.24213088037341565,0.07495965680227673,0.06244927387742997,0.0656101050080087,0.8588794874716279
-0.12014647691772004,-0.01322779152293381,-0.15815740883883678,-0.2260850282082812,0.0971530282968329,0.08409039239951023,0.08538557526549596,0.87419183566426
-0.10880077298851407,0.007587854608475386,-0.13141347317758953,-0.2003863224775395,0.10919739671864462,0.12319428870551932,0.12546554063368137,0.8504955018179888
-0.11177707794317293,6.877476705030028E-4,-0.1377414173285314,-0.2037915473665139,0.10065806705960853,0.09619936356151133,0.09572243566713998,0.8638836806965118
-0.117636549755508,-0.015964447968236775,-0.1623249024995445,-0.2236357046971721,0.07409679996448854,0.05398619984111742,0.06364325815794444,0.8356225089951779
-0.12430737725802767,0.006613964186453186,-0.14337662581628444,-0.19978347649584144,0.08628092390819216,0.08543331673119314,0.0945544749986581,0.8800641401658825
-0.09969056329610831,0.00380645122086358,-0.130881785375086,-0.1808871193449465,0.10791015563007639,0.12071589496127566,0.11431391665128232,0.805294152418063
-0.10780255291661929,-0.00529858837233281,-0.1397764976142561,-0.19103189983311106,0.07961615110457729,0.08279375123617368,0.08829666225209064,0.8381599050080055
-0.11983675736369992,-0.0013483044966174501,-0.16195804813741027,-0.2113683698100978,0.06309260694616647,0.05004270150263616,0.038747865328331466,0.8536529036342762
-0.11229222087974589,-0.004323764441768657,-0.1483994952112243,-0.19468033074863178,0.07911467669407066,0.06989589024640147,0.06384359194575978,0.8791558278364607
-0.10232682311031716,0.009071196856542008,-0.13120498798268843,-0.17611313744955354,0.09688723793125917,0.11577423274892606,0.11301566028019128,0.8734277781562703
-0.1068616060214609,0.002184523414972203,-0.14881590944930914,-0.18465699469085906,0.08199874137089246,0.08980017390033518,0.08541967129170057,0.9079255412528985
-0.12459598068116232,-0.0019260019903351022,-0.17852749496858758,-0.23335811597879652,0.0582584143385504,0.062172384022083485,0.06359647979993455,0.8640264353018909
-0.13040718001017063,-0.011398645120613324,-0.1676995771532285,-0.2195118200371518,0.06215770803723243,0.05245552151568635,0.053863420121826856,0.8678855281163236
-0.12309637085287542,-0.015460679033640762,-0.1420763268434255,-0.18412678691272455,0.10057624864511566,0.10956761395133681,0.12103660102380068,0.8839322413949849
-0.11049264999518674,0.012326817993636649,-0.14158924768090742,-0.17850240349657803,0.07010029825511868,0.09649912680439376,0.09477749750383618,0.9180710338808218
-0.10447326916656838,0.01911540534046323,-0.13543680104416939,-0.18090929250636378,0.0582454817695804,0.056432625641713786,0.050570371512567366,0.8479225263093244
-0.09556131151172592,0.002526543161646272,-0.14780289054426693,-0.1847178431382795,0.018279977827177177,0.019626487001791378,0.002909674602585826,0.8512899008992653
-0.09745370965588006,0.008296761844009931,-0.1204284962245588,-0.14992587729164375,0.0796105570009971,0.09605446918429414,0.09695664750320226,0.9158561426816296
-0.0962088968206137,0.009898753803373059,-0.12728548339961554,-0.15987853434196664,0.09159018412623232,0.07815257418878654,0.07508571265682641,0.879257257810235
-0.11180312545688018,-0.01328545557976854,-0.15730460538042526,-0.1898058222036113,0.06912548293776644,0.058919087126675825,0.06029691966607168,0.8515293545645355
-0.13301560490227413,0.010518200530905436,-0.1732336614444619,-0.2440060887377988,0.05553603647937593,0.04163006421634286,0.03817059102448155,0.8854865499459159
-0.11310216385626096,0.00609391466065172,-0.1479915744864103,-0.18947404681793623,0.09280316574447495,0.11122272920775728,0.11883676156572011,0.9191032350339207
-0.10587003840957973,0.017053176397266723,-0.12890920286594665,-0.1788776346004035,0.08648385394603834,0.10627496783148396,0.09374401072269896,0.821576262908031
