-0.07896218446551716,-0.11244149523994422,-0.05931887350577756,-0.07112736471517818,0.06876207321568133,0.0941687386287276,0.11611821257927159,0.09446540570184107
-0.08360998983701841,-0.13750147252475972,-0.07289071916901063,-0.08353266311570919,0.06516212440152473,0.10005532103082294,0.09966468782249491,0.10527735100330561
-0.0847720057300771,-0.12446311413130307,-0.07590871429693885,-0.08886552497961418,0.06665161916987332,0.10121170252891748,0.08366478254829562,0.07842396437270814
-0.07773698531557342,-0.1462817420750222,-0.07606982874108305,-0.09153079307875676,0.07080310560586138,0.08722511597817087,0.09793764673953186,0.060512276123400106
-0.08244236921164551,-0.14409375929409685,-0.07393730597771,-0.08046171369015391,0.06149443410842872,0.09443280144440208,0.10937604282316117,0.09593559322190093
-0.08400043976890421,-0.14038212288115667,-0.07828763390143686,-0.09426271956161271,0.060703675087799315,0.09610114732722223,0.11450916151510197,0.09456796059379212
-0.09018401503572536,-0.1457835577535501,-0.08564858350191816,-0.08813683658428118,0.0556646946320076,0.08440270032431572,0.08548831472572556,0.0732830027283796
-0.07280428149489382,-0.15263432188024206,-0.08296025895764986,-0.09815954399601512,0.04486020016753216,0.08628280799828307,0.08727881471675844,0.034622307421960784
-0.08256896105604819,-0.14695043078535175,-0.07463015646932532,-0.0989953173456172,0.06680816399171752,0.09548687385662616,0.10178740262835037,0.09318956642919866
-0.08353852049479295,-0.1388831372088959,-0.07597869546688231,-0.08387949617019923,0.06322568569185484,0.09299878316067746,0.07910292803865777,0.08232310260771372
-0.0770948926300108,-0.20132720510770774,-0.09348672736453849,-0.08467844595076814,0.07540787697078594,0.10318825031826749,0.11274302154351855,-0.12924818171917582
-0.08797903686072518,-0.28042042974119913,-0.10077208796047467,-0.07063226315451777,0.06357883536220832,0.0937537619019451,0.1430559790010514,-0.3373796709234916
-0.0670978052254082,-0.27595806460644295,-0.09022153174335858,-0.07754399047389927,0.06472302433689597,0.1153391521703994,0.1502307471606173,-0.30046271167837135
-0.06512968471220157,-0.2650647551417151,-0.08642105429066932,-0.07417045984960549,0.06724260019606935,0.10441209867205163,0.15135867468714742,-0.28521824943684404
-0.06752838533493462,-0.26049337061251515,-0.08934282595331383,-0.07079353701643065,0.07057069131634061,0.09841589772998442,0.15724523230266488,-0.30704831976019464
-0.07469436889575234,-0.27168174394807104,-0.09434704151559832,-0.05732915524088531,0.05723223918201733,0.0908065327451559,0.14928445890863956,-0.3353240311080822
-0.07352867312654858,-0.2773090520699523,-0.09563046548277007,-0.07644040003855868,0.06782474953426443,0.1099458925482532,0.17254553057448266,-0.2844783271216901
-0.07808922279518753,-0.2643178467948744,-0.09250071778442157,-0.07111758448576437,0.07461151746184881,0.09157195753957753,0.1528388739156309,-0.2861296214496719
-0.06957773600017277,-0.2752457970483534,-0.09771229095692895,-0.07066731398001042,0.07332346197389526,0.08259955965842827,0.15811151533784093,-0.2989881928417659
-0.0753440507449711,-0.2787873067764778,-0.10244793501178305,-0.08519792472984805,0.05853997414072615,0.08088092389457627,0.14314283325237706,-0.31551427878379684
-0.08248991114219471,-0.26842462471085893,-0.1026877486859694,-0.08672299640117972,0.07043567606184284,0.09646015868562287,0.1609489821904032,-0.3081297195873001
-0.07810333295276069,-0.27589468731633365,-0.1087418568759148,-0.0879757418700773,0.06733485626051394,0.08888955415956702,0.14536723931584114,-0.2819411518542352
-0.07143579729724285,-0.2877578944078489,-0.10702065803292042,-0.08791153296038884,0.05078565007896174,0.08238434100077598,0.14289676220209988,-0.30850255736829973
-0.08780345222926418,-0.3134526645291648,-0.11280220397914278,-0.09452027156147665,0.06253641139044804,0.07532336888418341,0.12551982287130622,-0.30251637844272616
-0.08840170133261584,-0.3066510616889506,-0.1121882711614685,-0.08887966025740777,0.06923908032733073,0.08163663702269705,0.14960202103021597,-0.31962371933265726
-0.0921425499582143,-0.296165108547625,-0.12147523664210542,-0.08377853112227511,0.06627924890716284,0.08642733153071962,0.15928832220894532,-0.30082329067658986
-0.07698188071963664,-0.291562961856733,-0.11494529698152109,-0.10175152737675595,0.05658352564469759,0.08567630596728182,0.12421982820067586,-0.31606651086834076
-0.08024632444868007,-0.304078280295463,-0.12703410400198403,-0.09181576076446246,0.0542787169569338,0.08186097532100889,0.12791454182893772,-0.3347597942049585
-0.08096426120603219,-0.3040958599324649,-0.12337422068971397,-0.10225791237250194,0.05729377859672942,0.08187011189626381,0.13659160007115542,-0.32761985304656766
-0.08550685611085863,-0.29558220454789913,-0.12700623294333807,-0.10065316290275671,0.061555039964342306,0.10218646447801472,0.15512117484117005,-0.3110394931762733
-0.08327416400532009,-0.30474572272069406,-0.12206601867318882,-0.10819485454941066,0.058063345563065624,0.07831478351134871,0.14245843976973102,-0.31710362748465387
-0.09385237219131469,-0.3133935987445928,-0.11652899374026884,-0.10010084302366037,0.05232832055940687,0.0821993385404195,0.12237624959903329,-0.34703217373805395
-0.08525089207058115,-0.3184806332301428,-0.1280714541954852,-0.08930285879514085,0.05395067893863238,0.07678552528488204,0.12694921293699962,-0.33685471165056025
-0.09018117144417762,-0.3089808902490219,-0.11896167583787373,-0.09273780497815963,0.06745229485667543,0.08426295281233662,0.12962317985814725,-0.2826853710214867
-0.08906605828118735,-0.30145678370582274,-0.11899460817157617,-0.10397819764317762,0.06190582786732075,0.09001485959898664,0.15916203554260885,-0.3152605825259717
-0.08893033921586592,-0.3053233160274418,-0.1328413681984538,-0.09988293988767787,0.04496483754450381,0.0956751423134202,0.13277722398409886,-0.3285273471809488
-0.09777640737196731,-0.3240888379935705,-0.12628558689144428,-0.09615510393409743,0.049543329047299266,0.08531783929390158,0.1296037316906183,-0.35115735784640906
-0.09093947618121664,-0.31042648521398486,-0.12822806710992626,-0.10298077974327927,0.06168100967131703,0.07189122674531527,0.14711004665700203,-0.29088359506018213
-0.10216038534247444,-0.3155573311443024,-0.1287857377349755,-0.10828094267014242,0.056431659992692444,0.0790491956624115,0.17110534212098322,-0.2985178302712309
-0.09648717438165662,-0.32612761142903796,-0.1418435724794078,-0.11084213495312412,0.052445903375666285,0.08667183776314343,0.11979784373628262,-0.32587531185913465
-0.09905115664376166,-0.32022880243540053,-0.14325740752085178,-0.09761307127062532,0.045533451314853715,0.07381807937853488,0.1297617464962444,-0.33002659331845857
-0.10246483895656215,-0.3133736012599303,-0.13220569635830984,-0.09832317591485217,0.047517598326545965,0.09182594496365311,0.14734207358784154,-0.2959647186588132
-0.09420019138295732,-0.3190624561255824,-0.127950463796434,-0.09965574498989334,0.059016356689509344,0.0854979997736269,0.12837130150740714,-0.2982465855107975
-0.10166115396051302,-0.31028206258069624,-0.13366182299194387,-0.09997503664504503,0.05705037615163956,0.09030284878744521,0.12680846819487895,-0.31376437593931766
-0.0981051319831352,-0.33024322028788466,-0.14597043908628124,-0.1056452600412559,0.06357233703360812,0.07859674762747607,0.14412616645585835,-0.3352794808706104
-0.09828967815986084,-0.3246314456739341,-0.1320004754381785,-0.09496962925826603,0.04982627971138777,0.08889668709206955,0.13254594751967058,-0.3080098699323401
-0.10414903353997705,-0.31364973901396326,-0.13375578457243967,-0.11282397957290052,0.05551295693281162,0.07974387259099538,0.12583140065354034,-0.3237397433606397
-0.10214896973486938,-0.32314264186523667,-0.13795304135744857,-0.11123140176783097,0.04870065014407212,0.07275788470612132,0.12882707395666282,-0.33875042333303756
-0.0986600188980892,-0.3205838161096765,-0.1400855348300869,-0.106084807238574,0.04952869852659503,0.07565859459842808,0.12712142079709277,-0.3538211778228547
-0.10679373646120113,-0.3255065083463258,-0.13610554001496933,-0.1089928057980459,0.05947340818574859,0.06659988388984645,0.11596868024942558,-0.3088002278635225
-0.09965409686166689,-0.3263418330122022,-0.14130438206876764,-0.11389895945043692,0.05177519047440841,0.07425728503301941,0.12769513538247904,-0.314249983286395
-0.1154009949344019,-0.3313060667569825,-0.14365911946060841,-0.12135814409389724,0.044468373947915314,0.06946767633926437,0.11229681697845063,-0.312723636047386
-0.10900995317519604,-0.34750556459338744,-0.15278146403778275,-0.11951608725104665,0.052901681825131656,0.06625789610768179,0.10760678818089155,-0.3571194929040867
-0.10416306859097205,-0.3291209424619142,-0.15031418086651455,-0.11737314569093577,0.051915441085726065,0.07534136316851689,0.13681292183395286,-0.30379647355432343
-0.11200496383833684,-0.3292549738560863,-0.14643257379192745,-0.12790779398707378,0.058328958054829586,0.06959498897935378,0.1107295015023052,-0.30924179288822307
-0.10876477967956899,-0.32864341996523644,-0.14809328052118165,-0.11335544612692545,0.05454360013352201,0.06373659042657587,0.10537765877541538,-0.3184025819551959
-0.11574966738011275,-0.34292526526073597,-0.14480700079027337,-0.12568986217936232,0.046468757859837936,0.059972027449021525,0.0957539921083565,-0.3527104213953435
-0.1133740235992761,-0.3349914622050118,-0.1389523878918703,-0.120464444622066,0.058680982731311095,0.06723883203557489,0.11066486220894471,-0.33143821263676665
-0.10529400016393567,-0.3280398768470617,-0.14916400403241695,-0.12650806614915175,0.054406574036574694,0.048823360453454444,0.1133468777686249,-0.29511189063930104
-0.11268570242466364,-0.33362902504740755,-0.14928153020500634,-0.13101831710871686,0.055651143688254176,0.04519824480451348,0.09933493084984829,-0.34476052257717
-0.11725025490808338,-0.33822507269660534,-0.15292185346180323,-0.12928192133339947,0.04457338228048772,0.05360025720364208,0.0828631167712286,-0.3724310273633699
-0.11807919152431236,-0.3394225312548722,-0.14838766747869442,-0.11854525675752373,0.06348582647736102,0.051006185446615386,0.09762941133154673,-0.32402716461633496
-0.11369215262616443,-0.3256984606771225,-0.15262267303407864,-0.14159192567863105,0.05043247560319029,0.04821504122248882,0.07910687964859606,-0.31211856275684835
-0.1132342931282729,-0.3371802814225693,-0.15289888116827058,-0.131137078143589,0.04854180893132737,0.055652497297275096,0.09006549585343313,-0.33530251022660246
-0.11312287015785115,-0.34169831384800575,-0.14851443001476045,-0.13613997569857886,0.03639775635466626,0.030939096140037266,0.07496348853932308,-0.37172711878972453
-0.11858037426615854,-0.32491878283644327,-0.15402775777036842,-0.12734755861787023,0.05776557572789147,0.039449401913946955,0.08162377643759955,-0.3148591359001862
-0.12060153935473725,-0.3227818449950609,-0.15592135524964013,-0.13858029769996366,0.0492006745115532,0.05397480644050459,0.08581959403517968,-0.3299556992402727
-0.11248041877032952,-0.3260766971869815,-0.1569874977516375,-0.12939643243827015,0.03785345427449128,0.0477222086191418,0.08695357983433731,-0.3281313967916856
-0.1134330090989047,-0.3368353133006086,-0.1510557595890161,-0.13776180651201408,0.034254033070152186,0.02759004410913053,0.07293970003912544,-0.3540585042040653
-0.12139127997999698,-0.34958386448737055,-0.1655411022041151,-0.12315968596611483,0.0319747855672322,0.04106091071053978,0.08096878369575929,-0.3399523053932501
-0.1224121421347547,-0.33397475861013715,-0.1599402635688005,-0.1308848725444931,0.04966906257070317,0.03963926006837944,0.09710319955975924,-0.30539400371348907
-0.12562823599656583,-0.3334777636945692,-0.16146066078874993,-0.11914224815483107,0.048339967744201066,0.04951608272118963,0.07438781647922739,-0.3294838347543175
-0.10858694586377257,-0.33380518409785925,-0.15318633056553047,-0.12883024077701566,0.04929585445821093,0.029664382765070278,0.06641258636402628,-0.3668136186143084
-0.11808454643966239,-0.3499214998180389,-0.15673305909157323,-0.12610693955801366,0.031065479294218004,0.023320896091356957,0.06686402177709333,-0.3961845064438859
-0.11293186075639469,-0.33253554193871104,-0.14888171176379073,-0.11472667856485184,0.033319834246727034,0.031170281633324748,0.08025115113900338,-0.3495256477659979
-0.11599812274323684,-0.33673025028731024,-0.14656861990376982,-0.1205485774530894,0.03780698828510947,0.031184920031865217,0.06774084093785249,-0.3404905324332689
-0.11397008562163859,-0.3458069319540196,-0.14653243543552447,-0.11248106376448751,0.02591219726709203,0.0274930732513378,0.06412228113322005,-0.36584072110212196
-0.11514718010907088,-0.35917426188334756,-0.14968848004345892,-0.12077619121149771,0.029829258118669374,0.023870953485291255,0.059472246625446035,-0.378352533367325
-0.11617665746771813,-0.3451375273003751,-0.14921778765216148,-0.10489945510635995,0.047788740892952264,0.03674447449623887,0.0793764541926672,-0.359722031679019
-0.12038345304913568,-0.3391467956534699,-0.14528375232280819,-0.11944142171023925,0.04244964138230647,0.03048377802663856,0.07070379624382009,-0.343253265409196
-0.11575367164577295,-0.32668123711392616,-0.1416744942630559,-0.11501578544454179,0.033652707446433575,0.02996668328042627,0.06612734943506603,-0.37673093713095784
-0.11671522392380151,-0.33177904291520804,-0.15623391326727457,-0.11314922886707583,0.02492538501311854,0.014835669523563804,0.06484777740105768,-0.3893370936522148
-0.12357540317543565,-0.34560466116406663,-0.14348253529064806,-0.10701557772788042,0.03262398700568018,0.021551617684427742,0.06754427811291999,-0.3930693120216134
-0.1161666689828385,-0.3388498698670084,-0.13773238480003736,-0.1015899925375352,0.024660106338741845,0.03020947339985592,0.0758852964452548,-0.3544131092252827
-0.10809260422592694,-0.3273645085158507,-0.13821255504272828,-0.1167921273745666,0.026189876414775305,0.02699799026891814,0.0734475725322846,-0.3513696216100813
-0.11577956283934356,-0.34197447375121803,-0.13924651350875977,-0.10426779094325515,0.019275445901754694,0.027602798266625404,0.05842228454216834,-0.38229535652045016
-0.11970860690577981,-0.3404087487867143,-0.13999599113724104,-0.08938454593174597,0.01346681534087253,0.013523287383064901,0.06868778682261716,-0.41947213602484806
-0.11764033741850347,-0.33442567167970966,-0.12393494677716209,-0.10030794354475016,0.03180825868934788,0.03736547261820196,0.08752919508435818,-0.3378119485458074
-0.12090992764079136,-0.328764169281098,-0.1320296421291429,-0.09267926468343012,0.03049039758214397,0.023736981961313793,0.07712561223812761,-0.3594906860353598
-0.1124929641115848,-0.3249650540424673,-0.129175600481071,-0.09780984878496338,0.024757091489569904,0.02491568722237424,0.06016478700068816,-0.3825056827979905
-0.1187860442481951,-0.35212509290448446,-0.13298603088483343,-0.10286294443941073,0.015493269975277613,0.011840435962079805,0.05436656531469252,-0.40603479005421733
-0.12263227622772346,-0.34522431474897586,-0.12650049708530234,-0.09131375619398506,0.03344535798119394,0.02375431390749602,0.07786190516055526,-0.3728165598390873
-0.11690733613401746,-0.3515393338382865,-0.12749142658125626,-0.08623514565921615,0.02443095977230622,0.03312721670037621,0.061202834257683206,-0.37515260942972806
-0.11757185217351529,-0.33057962306719707,-0.1226275017841157,-0.089952345905851,0.02494055806616143,0.02394966069350281,0.07085849238270372,-0.38897571053147495
-0.11932357539732302,-0.3537973741473541,-0.1292137458937969,-0.08953771698098098,0.011153002695078398,0.018639283387821757,0.05350308666276654,-0.4097584905134387
-0.11202629822059378,-0.3281115338863361,-0.12993515023953747,-0.0991033109320504,0.022142571004124104,0.023594563109364003,0.08167759284113286,-0.37563397226205225
-0.11973888098853105,-0.34349939334504953,-0.12725342820769908,-0.08346532955282375,0.030224369206090035,0.017545443687710195,0.060657610649871484,-0.3820618652065909
-0.12642179826449207,-0.3426319324390342,-0.12990902635427135,-0.08233354728268101,0.00822450063369799,0.017556590349377878,0.05827228003027792,-0.3948323465172348
-0.11780293572976219,-0.34035951668527586,-0.12762866397429273,-0.09425277367022107,0.00946933721659882,0.02117716513143924,0.05987431382040091,-0.4193540224092673
-0.12089486239825295,-0.3583692005010428,-0.13078732393669043,-0.0906438761526821,0.019473294176679083,0.021490558043825634,0.062289347888959616,-0.36648601488687416
-0.11860599983696155,-0.33977599039620626,-0.12762719255365332,-0.09820373781141063,0.02083932100532611,0.016391188661031196,0.08185388552438717,-0.39701186676884687
-0.12519252769796965,-0.3496853088076825,-0.13996090275028666,-0.10224505191721472,0.006879416239598599,0.02282232937778723,0.05643229694325691,-0.3913015922185272
-0.12478588428558922,-0.3614394698951421,-0.14070261290394184,-0.09799867775584933,0.005278114728524915,0.021371099800003138,0.05508898871650755,-0.40259303107452415
-0.12688716534307865,-0.35797884120620765,-0.13361506786643082,-0.09912375833499645,0.0056638888832426515,0.01321503040789845,0.07231838889740307,-0.37888470136210395
-0.129676305331475,-0.3479002646884386,-0.13887908885850447,-0.10141677060193169,0.02395812729268409,0.017973127056103252,0.07129354325059267,-0.37084710423105566
-0.134665289285007,-0.35960513673958666,-0.13706838843637575,-0.10097319432123603,-0.0031873134538007524,0.018670032697872534,0.08334948399287304,-0.4036296613720959
-0.12369917787287407,-0.3776093178774493,-0.13741863821874625,-0.10610136162388129,0.002128139423533628,0.0027629461512805238,0.07046363850864866,-0.42572258449487976
-0.13216968859860806,-0.36378186811691265,-0.14026769323084454,-0.11462050659043097,0.016399963075246084,0.013830145767203005,0.06998930816345673,-0.37086295013195425
-0.12891117716072364,-0.35291528364978864,-0.14272359974781135,-0.1255772694195765,0.021780329778487602,0.0253375973058942,0.06408107455239302,-0.3795439328070462
-0.13529602068098184,-0.365163455807399,-0.15904450971982775,-0.10876394367783138,6.600348272987127E-5,0.009728418930873034,0.06734778209758309,-0.3933613302813997
-0.13417921191216078,-0.36629996354393013,-0.1584899507428863,-0.11713291263023444,0.003390384059168017,0.0017149544630611793,0.053869441489876324,-0.4220675781109605
-0.1358754147995909,-0.36296326437236875,-0.15005982902087336,-0.12201994723926818,0.014452710741385969,0.018052360893187964,0.06631615910275605,-0.3695665352250733
-0.1320676273289921,-0.35583891261223183,-0.1554036055882007,-0.12137406797455441,0.018918073572850413,0.007430663218232669,0.05577291279704411,-0.3770292707522142
-0.12876660907087525,-0.36385629420619203,-0.15638703050793581,-0.1347081397966211,0.01659154499383868,0.004904846205838016,0.06607210004871937,-0.40122536273811116
-0.13678154344708318,-0.3821014788929536,-0.16545907258045667,-0.1297205876470613,0.0069396845577493526,0.011625029620819233,0.052671985537223895,-0.4016182606481685
-0.1294826448943402,-0.36986446553630586,-0.16334172747865322,-0.12432762352799914,0.016137184580337333,0.014992863393264227,0.06280121414057292,-0.3779463513159998
-0.13734960080478426,-0.3612194820349239,-0.15732391820585268,-0.143448996218922,0.009560754423274462,0.01735834352778048,0.05979894246197482,-0.3850135575991598
-0.1312231854304917,-0.37266049377657023,-0.16899908175193543,-0.13326755304114196,0.020885775319657567,0.012012527857464579,0.051561506559479164,-0.38103967749657586
-0.13816248283950508,-0.370037475247207,-0.17110819269979224,-0.1387220264140589,0.0035286238603743783,1.6498880759274482E-4,0.05082302921705247,-0.4185310361075754
-0.1340691025090528,-0.38382845315520503,-0.1688422258271433,-0.1509222966529753,0.01636050738676788,0.01825955336560585,0.06628868919991401,-0.3924572233287967
-0.13943304427114372,-0.3801690180719866,-0.17312444738450786,-0.14204997209931386,0.013907979561848683,0.008422706206678973,0.06449296766130315,-0.3717495828279082
-0.1376081316095523,-0.3762960532910574,-0.18065790552328975,-0.16119066418567976,0.02542418852411255,0.0032725166842396255,0.057646713986692466,-0.3794749538082852
-0.13955249628266841,-0.39173026522714893,-0.17878312629438164,-0.15782455596787742,0.003147422717725814,0.011446552151523895,0.05075044112950817,-0.39370412797753146
-0.1375606290550517,-0.3925554744407141,-0.18023203306736368,-0.151338624792415,0.015153177174037564,0.014464837240693298,0.06634867452588165,-0.388896136125941
-0.14699775153428837,-0.3932656265631771,-0.17713579970698162,-0.159840416814876,0.015238095862786172,0.015654582901054138,0.062575954607273,-0.3701258038331552
-0.14201097832980691,-0.3723565365298147,-0.18710189128290308,-0.16817839409502636,0.01673698939551935,0.005047488905368459,0.06764464525417882,-0.3843024367481316
-0.14767296583198075,-0.38314548318897934,-0.18995701891992312,-0.16659358285407946,0.0035332375033893942,-9.119776605376219E-4,0.04903608567415487,-0.403344407821436
-0.1471790656955641,-0.392116500219567,-0.1869219048240025,-0.16764440932233668,0.0049923283785816,0.005820825535402942,0.04872080715809533,-0.4194225940334582
-0.13577685659428465,-0.3906901369516269,-0.18076277880863206,-0.15067089296384484,0.00749079146013651,0.006972040612339061,0.071536302076417,-0.3607683567435407
-0.1379535143212497,-0.37791409089341016,-0.18113529310371443,-0.17401489901383715,0.00936666955883901,7.661324660363769E-4,0.04691568639842837,-0.3883742304058059
-0.13154277240686005,-0.3751135799364182,-0.18626914871148217,-0.15942518315073775,0.00979136415255847,-0.007305902960442333,0.04600583249360544,-0.3938959302690212
-0.1438683524086953,-0.3881425823443215,-0.1791975686830851,-0.17037691809973654,0.014774610836324578,-0.0036799191140658195,0.058941854615268345,-0.40117733841539205
-0.1483294455138166,-0.39649629157262384,-0.1816727757185942,-0.15907351566631592,0.016788937091521114,0.0045671388145050815,0.060214846527914694,-0.3621231890777787
-0.1402324107576472,-0.38764459882887425,-0.1934138146136372,-0.1660716202382472,0.00649752110620858,0.00331400385296543,0.04938887594787302,-0.3678646324353553
-0.14513858464562607,-0.38577833044090926,-0.19227316059811095,-0.17017231009069095,0.009088350501765428,0.004289546573694933,0.06302927949871041,-0.3984994872830906
-0.15501723583863494,-0.3957464539307974,-0.17635691049585034,-0.15463524767214884,-0.0022098405354855724,-9.270610626935555E-4,0.06132046148414244,-0.4292771453042555
-0.15922359184158644,-0.4022933402391631,-0.18105604960764818,-0.1354611911847345,0.005730487250484659,0.009499956330816376,0.07005054501181184,-0.40166246406518824
-0.1516390523969044,-0.38988046409249705,-0.17881471681143254,-0.14842674508391027,0.00604179754000643,0.024564351744624544,0.05586283930276667,-0.36396781850412097
-0.1701583527152419,-0.4032006704037531,-0.1852506255717729,-0.14412410458657587,0.010419001900414324,0.008454641422512113,0.05794545361333586,-0.3669420045911005
-0.16300877949966242,-0.39642642430576475,-0.18353187284168493,-0.1490484747925008,-0.006067917131367526,0.002801672286352821,0.06877215189807544,-0.39004796949934867
-0.169090926434649,-0.4100485572363328,-0.18967444070494144,-0.1496882962951603,-0.003633674208986204,0.002910627241261554,0.072477607025549,-0.4154561571838291
-0.16472727456751937,-0.4109385275579056,-0.17466432954652047,-0.13351706469742228,0.015751115789999992,0.015416465619070008,0.07826822584380745,-0.3751443016996997
-0.1772141185375416,-0.40123325429547296,-0.18480359886406164,-0.1350602529476413,-0.0014645754468506891,0.023137062341017825,0.08159947041098486,-0.3645052874583973
-0.1803721699750461,-0.41232641912346424,-0.1917339589881747,-0.15690666152928306,0.004085169031127371,0.011343322524036812,0.06619796564049826,-0.3846042182428653
-0.16864585653694775,-0.4208689200855059,-0.18961644106642445,-0.16960790060670972,0.002122642236660518,0.00945597125484903,0.07426420297324261,-0.4096987360272568
-0.16828371532581346,-0.4278348608416826,-0.19799541520289865,-0.13733989084487436,-0.007748147490103593,0.0032887585803970435,0.06021240347954478,-0.4232471894742191
-0.17851675635064254,-0.4255378574283661,-0.19813757760138428,-0.1530150133306029,0.0031408857724430413,0.017150540637606505,0.05920387562184743,-0.38296115598135727
-0.17792173828779462,-0.41674552497841216,-0.19852511506214113,-0.14944409492564856,0.007692420432538165,0.024898738172758828,0.06764515067776951,-0.3985740314027889
-0.1729975872175638,-0.4194199599768923,-0.2006622831899909,-0.15237729273407136,-0.003503345463631887,0.01181630919763518,0.07238798905876831,-0.3895633565129816
-0.1777162785363038,-0.43158010300163957,-0.20596385925337965,-0.14715703646238254,-0.004693543069978752,0.006415930415685059,0.06733038299930251,-0.42576938516788637
-0.18868662758943483,-0.4341564177988057,-0.20055183467644253,-0.14731806091963878,-0.019253358524791937,0.005616641705834342,0.05981812951466221,-0.4457253579604718
-0.17731120563259112,-0.42999085809372906,-0.20326851948764968,-0.14984150005869046,-0.0031277662841725927,0.007962934551528026,0.07053944170745492,-0.40720090531831504
-0.1754348382243842,-0.43724132577416486,-0.20276146894918448,-0.14381808210305075,-0.010826656019641645,0.002973516949788149,0.05988144796796561,-0.42478812860877385
-0.1858942988222344,-0.44437659584899697,-0.2013855872984603,-0.14384583741152945,0.003947864333137586,0.009478501794201101,0.06539887343975487,-0.41076412925488354
-0.17204539337000974,-0.4426855842904267,-0.2098940800111889,-0.14461361289798735,-0.019027984030737983,0.0174610923136422,0.07554136991768685,-0.45492038916010835
-0.17581783749962948,-0.4420542280070229,-0.206389535186158,-0.13438975451162338,-0.016654585139396372,0.018012494975337665,0.07046304350823736,-0.4479685758144648
-0.1766489391768733,-0.443442939369731,-0.20633884793406315,-0.14483584906678768,0.003967884294997796,0.023889111249138013,0.08482214989960823,-0.3843835702799755
-0.17182203966861295,-0.4404258332569333,-0.20168838415076115,-0.1317571159914378,0.006356411732482731,0.019824205946954707,0.08475733312403824,-0.3874484173277657
-0.1756579134583727,-0.43867305606891815,-0.20160701271067488,-0.13117259760705158,-0.005280859149287997,0.024729761422503584,0.08472574356459937,-0.3957828931900221
-0.1762925848423334,-0.4467790690566391,-0.20311433582406338,-0.13899873105626265,-0.0075637507470446,0.019522234817587292,0.07227078360603553,-0.4491238721099988
-0.17205282599904917,-0.4481203829890873,-0.19958736899510773,-0.12700460293687196,0.0030207762889406,0.019090400815667225,0.09919984048389613,-0.43019282774792844
-0.1612895041519055,-0.4432457847273269,-0.197008580567396,-0.13297827758726685,0.0012420586099845595,0.02503309697701508,0.09689402296587829,-0.3921779585517323
-0.16942499287899532,-0.44059266219617,-0.1914552778269721,-0.12643929428497852,-0.006658683301194014,0.03739753237909199,0.09823424109746029,-0.41723363905841293
-0.16942439357654382,-0.45060333575088557,-0.19722725319773707,-0.12120858853284372,-0.007389028410333906,0.02707137892316385,0.08069068025649617,-0.43322307196554305
-0.16726414830706843,-0.4537443635593035,-0.20022424084350005,-0.1186245193130965,-0.002419712343165257,0.016580727665233354,0.0960275870453915,-0.43331838538470396
-0.17161299183966558,-0.45069579701600027,-0.193175113015298,-0.12503049635983524,-0.005971374144776322,0.03065290994062332,0.09300505561256683,-0.4177050501726499
-0.17143187217182548,-0.44011919868239385,-0.18599511698656054,-0.11281898042281556,-0.0011292880921310213,0.03451800166597692,0.09273775772091017,-0.4082473909987746
-0.16139655538483189,-0.43956502124501035,-0.18867114596877482,-0.108893431305395,-0.002367251886361894,0.03390058046095033,0.0921555510408987,-0.4335131330897209
-0.16870352187376766,-0.44298676430500195,-0.18502350933200087,-0.11156652724799937,0.001186423414958782,0.029897286810632095,0.08218845357769745,-0.442543134246182
-0.17058781563655093,-0.4435874793854258,-0.1835273242045621,-0.10325268972439412,-0.0037199685769721672,0.04583655114572348,0.09425153946181437,-0.4282240604270849
-0.15968998523154102,-0.4407189499993547,-0.1796351795630236,-0.10069637897400159,0.01067960442700104,0.046015803193298614,0.10938595188834033,-0.40373448278806195
-0.16278770799168127,-0.44562248461943105,-0.18597935780833683,-0.10147004301208833,-0.0018262040292942711,0.034074547846290486,0.08627669083489183,-0.40334467067118185
-0.16384503256321706,-0.4392916782880867,-0.18677173243405512,-0.12093833262591121,0.0044445619286929364,0.04459326880072676,0.10646080064274824,-0.43050224145675015
-0.16002471956857633,-0.4520552549902354,-0.18303092333367219,-0.10907491177641448,-0.011177568597314877,0.0321896699292283,0.08259162003150769,-0.4545086731868493
-0.16000924881725517,-0.4352075538017893,-0.17512616891936783,-0.09078360598968502,-0.001507824573105849,0.055678403866151756,0.10418134487901175,-0.4108673727091429
-0.15061631062699948,-0.4402924087856423,-0.17050184718690578,-0.10411002533773844,0.0037193597500650316,0.039145776774522405,0.10590456559366639,-0.4131135982617892
-0.15124845581551608,-0.432833087773007,-0.16956277729484848,-0.10084718551620728,-3.9674423866872154E-4,0.03446537665836843,0.10438542524200155,-0.42511749036089375
-0.15931578320913187,-0.42995175948487885,-0.16754615118457306,-0.10108028590774926,-0.004201862679514596,0.02144910951605996,0.0790358454357863,-0.462601068510426
-0.15669679713422308,-0.4307886389511089,-0.16602315585097205,-0.09598469114610782,0.0026603220427151024,0.03698348148648082,0.09269206126528072,-0.4231020165409163
-0.16704787333685459,-0.4372670783599355,-0.16413398228001694,-0.09660489820348846,0.007203455388620673,0.03785235902426963,0.10006088095220388,-0.4140080085692484
-0.1573505159486618,-0.4314604005580474,-0.1706071235359657,-0.09920733827475252,-9.16563903741713E-4,0.033081368758801154,0.08923023887896302,-0.4390176705548984
-0.16170198838865413,-0.4386154643886234,-0.17452439123793725,-0.1010923833626954,-0.005726282776198115,0.021003418770112754,0.07825121061764075,-0.4636016151210258
-0.16955570147884388,-0.43905395151248006,-0.16849704524022951,-0.10108424887731758,-0.0031621522990562013,0.022003546788975564,0.08705492787940271,-0.45744121333500626
-0.15847477773464494,-0.4190900614793725,-0.16539085639312698,-0.09930876852497637,0.0023865112034056847,0.034146745250944785,0.10019092518869405,-0.4155449589706576
-0.15226467537054342,-0.4329174245539944,-0.16634956832982084,-0.09501751024351685,0.0010457499938764585,0.027151110105968664,0.09466696231502517,-0.4598291811866763
-0.1551847300359735,-0.4328826593405156,-0.17209963227852942,-0.11052165256975968,3.5097107353016264E-4,0.019042461705210092,0.0750968471133715,-0.45454104561354347
-0.15657548508679603,-0.44681121654982875,-0.16664006259343997,-0.09088444043122847,-0.0015156646085321608,0.018650226175204634,0.06688244068497798,-0.44970344501211407
-0.15391703409279137,-0.42057179832021596,-0.15084812763288227,-0.08457659294219141,0.0058518573115508375,0.025828481396326278,0.07159816165865907,-0.43685379781875194
-0.1491378144994195,-0.4324710594552544,-0.15807783443811588,-0.08326736404407284,-0.0082997500290027,0.020467087327717633,0.07716544872013702,-0.4444279910394668
-0.15716995591552224,-0.41736032541796847,-0.15935949464402172,-0.09663504552912497,-0.006930007432184936,0.018657708222049398,0.07894965253033974,-0.45458651388333904
-0.16503021707046028,-0.4179767126173153,-0.15475878144529864,-0.0725660697098889,-0.005306433091241378,0.025943230073393556,0.0800781065864151,-0.46596692978619125
-0.16375214213299952,-0.40907499929821023,-0.144844876489698,-0.06711225991594177,0.010933826793771062,0.031151653834965702,0.075963714926053,-0.41255629456580545
-0.1602504430834098,-0.4011690532319741,-0.13959831639490838,-0.0792699507584143,0.0013948839487482486,0.02857592685631161,0.08692533623494003,-0.41734548221070955
-0.1624652966838741,-0.4183155577826474,-0.14751376831354418,-0.08605571786310678,-0.008443518315995357,0.022185954125210457,0.07459091825585645,-0.44943636122403136
-0.16115302672318513,-0.42450959869708327,-0.14739335234215498,-0.07752554273343204,-0.00586595436218769,0.03085840971144941,0.07752218063861689,-0.4621171258304333
-0.1633233414556695,-0.4015937280015198,-0.14201323657066336,-0.09165000050489283,0.011250917316405559,0.02741062441456761,0.07363710368649166,-0.4154222416047735
-0.16906132063509188,-0.4220459850750631,-0.15007310312638025,-0.08695534829957963,0.006947522757657493,0.021156995630493558,0.07554315475228157,-0.45376686351965945
-0.16223676185183528,-0.42836752969968916,-0.1614883087368624,-0.10081917949601134,8.999562561619855E-4,0.01471231304390046,0.08536515856758468,-0.45342166462532774
-0.1684791133919274,-0.4263081821026445,-0.15905006067521799,-0.09165036295033162,-0.009284788345432681,0.0022721842509180862,0.06326541009056715,-0.4394693380073912
-0.16145432927732156,-0.4093936038981494,-0.152887980105118,-0.10133878053406718,0.0017400498126693578,0.018443704022681022,0.07368503020678398,-0.4175917212671713
-0.1749804371693694,-0.4238018168275782,-0.15926110633729065,-0.10334304777134917,-7.033227603431829E-4,0.019154943743646183,0.07295695524376572,-0.4288194603096972
-0.16598519890829394,-0.42159793928704353,-0.15931922018485525,-0.10817262292246033,-0.010800884425672043,0.015085146115934906,0.06913526863777267,-0.448745163868293
-0.17302286814586182,-0.4331860872095551,-0.15398054841705897,-0.10058664730733059,-2.460308281451998E-4,0.013106971065965955,0.07035848443930055,-0.44642014113350365
-0.1730638427100999,-0.4210549097208957,-0.1608774481508793,-0.10951176346722587,0.006344154449355721,0.024736547686686084,0.07387085688383212,-0.433392976714528
-0.17518334443222258,-0.4271870429466459,-0.16150147886928493,-0.11458848868972703,0.005589176568021247,0.017026826494131477,0.07404472335389217,-0.4306954154738077
-0.17775357463887642,-0.4303023064854421,-0.1709240208942305,-0.13151715399874903,-0.005138982064576565,0.003792687021091849,0.0540544454336501,-0.45102894645943603
-0.17933248434867777,-0.4268399778665491,-0.16024147663634855,-0.10351682889406807,0.009774879466827733,0.013961608489188584,0.07835039019114122,-0.41450513777637044
-0.17781453523812935,-0.4233086207777738,-0.1603059483152511,-0.11636674643876276,0.01091755593789244,0.013404744709834108,0.06755240668592731,-0.40365992819202134
-0.1769617842399953,-0.43138470739435314,-0.17376814038055752,-0.12426621224448046,0.0026598533371008674,0.010394403540617454,0.06035798648493804,-0.4239333352057098
-0.18458009630970892,-0.43423669455754116,-0.1730870312726609,-0.12534004794243528,0.0038215553782384956,0.017431530164952858,0.0606453709332143,-0.44992116716298475
-0.17719293005672734,-0.4278687191046756,-0.16777762394035317,-0.12236412875625194,0.005750141870700875,0.01890423919768306,0.06935270844994673,-0.40497047959950633
-0.1817764690362871,-0.4275951514296146,-0.18415784282119585,-0.14045490287676526,5.079922655257785E-4,0.009238378816735254,0.0774017850496992,-0.4113310906216407
-0.1808434129295566,-0.43874833328365354,-0.18850036870658116,-0.1435821566993575,0.014935524659119877,0.00881083159624297,0.06724912008692309,-0.41410296430640064
-0.17845375760585336,-0.44207065061082074,-0.18863593014035454,-0.14858517266088622,0.00886545034588211,0.003282116256567752,0.05874628757162817,-0.4374358088059993
-0.17573681812908662,-0.44091613161644116,-0.19421636805903786,-0.1451395693918877,0.02019539691847065,0.023297488644331343,0.046109484228713776,-0.3844231274158764
-0.17352261191554802,-0.42731333617829004,-0.18640406276805374,-0.15163690163628793,0.01048860580223992,0.012961454568288736,0.05920360254621169,-0.4046604239797859
-0.1712583282711009,-0.44847437814247687,-0.1925613530272663,-0.1546840251589789,0.00887296440900577,0.004678926027346832,0.04789760297992221,-0.41523109059492863
-0.17468808989225876,-0.4506527316895568,-0.1922775089889265,-0.16449935503211935,0.011453715374812282,0.009148118659111632,0.05244876311277727,-0.4000656062732767
-0.17341510862210296,-0.4398004767890762,-0.19363846851516936,-0.1637394943230855,0.02169646935271759,0.00418989039716821,0.04718364481032729,-0.38194427623016564
-0.16871273808722445,-0.440492021977028,-0.197700338519649,-0.1592171815697214,0.014284323412638265,0.003672354755912606,0.033300665764829526,-0.40413670260459134
-0.16727316621267732,-0.44482187841959003,-0.19758407197979136,-0.15938065218844175,0.0016536544127374918,0.002032700268611973,0.042979660560597786,-0.41614037191436387
-0.1711669694266061,-0.44998687472401183,-0.20320064122888098,-0.1594427141009177,0.013132468738790051,0.01127539002271377,0.055633367225701294,-0.3877863961310731
-0.1600778517494384,-0.43001018245676903,-0.20344580466852927,-0.16663301819584328,0.017587026694679153,0.0034642905980638303,0.04446947133673296,-0.3699766794427368
-0.1648186098820883,-0.4405953461680606,-0.2030452271836897,-0.16077737016741617,0.005082621345048051,-0.0026824512626212505,0.02129461605197735,-0.4009038063190779
-0.16099290781310088,-0.4447155469159998,-0.20282412420385526,-0.17269567475763403,0.009762155055113922,-0.007209789194345058,0.025168423099978254,-0.4184834086976086
-0.15397899480328597,-0.41803157930464563,-0.18962126265743073,-0.16122862902333368,0.02057430170975528,0.012238357843345593,0.030307705270986213,-0.3899498356269373
-0.15352171189625466,-0.4110332587944536,-0.19214283895015713,-0.15589707003768588,0.017933512074378297,-0.0017016577241162712,0.03691150911959553,-0.378489088898854
-0.1518907169723453,-0.4226024634785888,-0.19195957216570778,-0.1599346203070698,0.010660620930031516,-0.008536103298413728,0.02407576608801431,-0.394953382353853
-0.15215122256865762,-0.4181581639725391,-0.19360330022657263,-0.16123309102961322,0.011451539068837762,-0.008583168647535343,0.023376086606446758,-0.40377028665402426
-0.1515357532427113,-0.41235597316539846,-0.18852393422017386,-0.14970484814845395,0.016565987827810064,-0.003300817694127841,0.018706064791342427,-0.35415808361501727
-0.1456285346631851,-0.4135301585407764,-0.1903918730718026,-0.1574314058713047,0.024386069848307095,-0.011795898961442133,0.025768032146331644,-0.3820134701178406
-0.14837592083549803,-0.40700500266151424,-0.18631254073454967,-0.16406492264609385,0.0216805380598577,-0.011575617499099782,0.0042528172743435755,-0.4183273979245165
-0.14948513840086142,-0.4177932524057539,-0.19051156021869345,-0.1602245902419713,0.010959822230228011,-0.016819017355993903,0.011318368985518815,-0.36938889141879966
-0.1518594857938437,-0.40702246786214946,-0.18830051874772724,-0.15800010861463534,0.026682616591722476,-0.015158286774900045,0.023039458145366867,-0.37354042289904477
-0.1445621413216067,-0.41247101944955694,-0.18977786735787988,-0.17252798162566055,0.016671995935337323,-0.02536744634026807,0.02075059672442526,-0.38205192013942213
-0.14746644578824356,-0.4104651311317521,-0.18773075485387883,-0.16716666383455994,0.016188143521438363,-0.03227309482029372,-0.006253539173970126,-0.40598832212710106
-0.14235075683140808,-0.41197780008604545,-0.19095491640030338,-0.15876450127518021,0.005036382959095639,-0.02033049583914477,0.003755366981176269,-0.38930276115023077
-0.14986290464899993,-0.40408269052988377,-0.18112488101393773,-0.16627999365901833,0.025388003790401004,-0.010463534142492403,0.004794074106038898,-0.36971302336393413
-0.1539990081334521,-0.4047754253492867,-0.19635296095427096,-0.17025536042749181,0.013651814382234008,-0.025627140692831733,0.010411480631483658,-0.3872543929369748
-0.14205610921631343,-0.4152090018128605,-0.2061636913679077,-0.1663336994057111,0.01144836676545181,-0.04030750127647132,-0.0038552528800517133,-0.39956722788973226
-0.14620352482001153,-0.42128001058639764,-0.20264662777532674,-0.15610952206921988,0.01220631143707582,-0.03200736381733286,0.01037379967381776,-0.38000240276582703
-0.1517822247808266,-0.4154221063839635,-0.20072606168294357,-0.16868037712616396,0.021804728277321446,-0.0201833196010288,0.0159647946761163,-0.3726088275965432
-0.15261286641245447,-0.42201673336801065,-0.20947636249252452,-0.17619290346643177,0.012724276375459769,-0.027617020295367906,-0.004115746810018127,-0.3921656321154408
-0.15465040039685718,-0.4201430598659648,-0.21307117363109482,-0.1865942701163324,0.003919594678455028,-0.044706650052592896,0.001878269649648463,-0.4041803837307153
-0.16250458568529239,-0.4327027261195341,-0.21061489051038068,-0.1836243599109459,0.008779178500514871,-0.031648449366067685,-0.0030791500186812815,-0.3825430233216057
-0.15758732043275048,-0.4138153354452046,-0.21417132489195523,-0.19177528821380632,0.012259638959379626,-0.02518572117542655,-0.016848316143539935,-0.3772691971126783
-0.14965654274913479,-0.4245652421670908,-0.21869680428550456,-0.1756452287221428,0.004969730150382963,-0.03396023377861013,0.0015440485978836182,-0.3982648021810651
-0.15489822544162948,-0.42611780306946395,-0.22012151276769673,-0.19228545900060523,-3.408402447656077E-4,-0.024342231774923687,-0.0054991710170431566,-0.42407304682930497
-0.1604873270259506,-0.4290745829657776,-0.21650087473514892,-0.17980731772465078,0.005419026112476359,-0.041717322404752184,0.0031750601777065933,-0.3933409157765374
-0.1598033246788785,-0.41462108371070044,-0.22426686012915006,-0.1928599292137717,0.012244797525582428,-0.029986612453903386,0.002740618528761012,-0.4042136312500455
-0.1638565987071627,-0.42246607400557695,-0.2179613882723716,-0.18952676322510412,0.002591891187283009,-0.05321433750266827,-0.015171234006577597,-0.3945969688902776
-0.15823174915569965,-0.42966405833940985,-0.22210572870517306,-0.1880040059590541,-0.0021134250432979936,-0.046558130689684986,-0.01872114751373105,-0.4185207918309716
-0.1653404880265355,-0.43312655684992635,-0.21301705230822607,-0.17860539625098162,0.011727866817136567,-0.04249464631267792,0.0022803324383563984,-0.37296803268542483
-0.1645806112339912,-0.42344237578402927,-0.2210639983179188,-0.18784711871826237,0.001431673325089531,-0.03166329749671598,-0.019195688301588038,-0.3850025666315643
-0.16853458110702596,-0.4395477705483912,-0.2200368620081769,-0.1873640261341937,0.008488887869822041,-0.04700156744330599,-0.017783101123885526,-0.39747804849632273
-0.17186315274571348,-0.437310738793992,-0.22957943660422234,-0.18723264188473268,-0.006362069263030992,-0.04006882278554779,-5.74457177873475E-4,-0.44137165307168824
-0.1707139509910527,-0.4344912061010919,-0.21955275152877976,-0.18786744653217707,0.018346431575992212,-0.03319021231297081,-0.00794436204081663,-0.3927297773592964
-0.166467061936282,-0.4393066405966783,-0.22381407786184293,-0.17961242312569514,0.010505315030122512,-0.03232239189733559,-0.002223584732572034,-0.39637889111486685
-0.16537527833936153,-0.436042593999354,-0.224448994994891,-0.18838408516647967,2.1505097028937703E-4,-0.03165745042962922,-0.0019657607391846345,-0.41090349943069715
-0.1743012499443296,-0.43672012305016533,-0.23458199022151557,-0.19165338475250399,0.003761974749404392,-0.03704768218824268,-0.003629748164382632,-0.435289780034316
-0.17199587777024888,-0.436114115708705,-0.2257538873651548,-0.19350822021075018,0.0031054309602598466,-0.02841000364439934,0.010735440111034705,-0.38205846885786937
-0.18210058006356444,-0.44367655695438674,-0.22209929112559007,-0.19119645292102463,0.011960931981202964,-0.0217390584643471,0.005011621249673024,-0.3920366089783202
-0.16619075587181256,-0.4257146443330899,-0.22915024285226096,-0.19040022442848917,-0.004271691366776092,-0.03380687952310321,-0.0032764954846354103,-0.4166270589225019
-0.17030741880849234,-0.4440994227194417,-0.22786820228027702,-0.19370716116866252,0.008442953695789367,-0.03561717774293297,0.009775319943360108,-0.45089934156051265
-0.17804879867703716,-0.4221040089737729,-0.2235460572554286,-0.1819378480378727,0.002263817140181937,-0.02401655126124406,0.0104549338272685,-0.3923033451395839
-0.18039851027303927,-0.43681214977465366,-0.21819897406722133,-0.18828491890042245,0.013684125623676883,-0.02264961437147442,0.007832486996811997,-0.379316137704955
-0.17799966998727446,-0.44359814328017316,-0.22867396293849573,-0.1871411953102996,0.0012206300522598931,-0.029265731655484916,0.007152448870997979,-0.41967164593166467
-0.18235706516038494,-0.44945996183354636,-0.22419035893630684,-0.1884955544591358,0.00902248740370603,-0.03783665114581924,0.016065220724997532,-0.42553352870662764
-0.17802493573346592,-0.4331076065040602,-0.23159584299668662,-0.17266589840366442,0.01643261046600128,-0.010292242812957276,0.006715233390743286,-0.38632807158810917
-0.17567713934786627,-0.4358422857500729,-0.23184721448976287,-0.1937798575766929,-8.959902619888398E-4,-0.01190167613906661,0.01486360733780179,-0.4124418228180556
-0.18282383562624002,-0.4514234314351393,-0.22620382333032066,-0.18805168859179905,0.005233866275615891,-0.012853971710713837,0.011292937496554304,-0.41447683765977295
-0.1797359194901306,-0.43971463375626313,-0.22920575205028845,-0.19342619575240802,0.005414566665235239,-0.026295264068336075,0.003411957501578903,-0.4149185813520304
-0.1723424422796645,-0.4373637031305541,-0.2283995018037734,-0.1839170315294654,0.02927725262452488,-0.009748839948575101,0.032967636891988325,-0.379990652200465
-0.17667035349158414,-0.4465135154198432,-0.22428468370411536,-0.18793129862654007,0.006701850313893176,-0.010711675699814287,0.024626637545104517,-0.38873992979129895
-0.18601465448091856,-0.44119051329666104,-0.23493168998556788,-0.19071838457697607,0.0012897965388256323,-0.024969919033025374,0.003495768521928611,-0.42210397859000054
-0.17800216579934208,-0.4416981925366589,-0.22729299532702754,-0.18661713107176917,-0.006763071082116579,-0.0174679739968249,0.02065731773591128,-0.4181935651702724
-0.18359823099181785,-0.44055567296371123,-0.23138004631192646,-0.17437983335690257,0.006035674642481948,-0.013631034414111336,0.011432212226551927,-0.3793086437945235
-0.18597289358299957,-0.4461487742843289,-0.23089667954620816,-0.18138744363757184,0.015189840553478147,-0.01026139001738794,0.008497927422439955,-0.40580884891320396
-0.18746882180164184,-0.43382231484402345,-0.23212993613813823,-0.19719516167249623,0.009843506059287455,-0.034537896251356656,0.0023448584639268726,-0.42069920196862365
-0.1830660483605218,-0.43967788470328256,-0.22553204390957576,-0.18827310415867354,0.013729285051778341,-0.027755293097413748,0.01287818107740763,-0.4243434056551326
-0.18052020477503147,-0.4419235896439008,-0.22238965862834728,-0.19122777784746575,0.011683235446604138,-0.015225862961338488,0.018776363484660736,-0.3856851023535224
-0.19039750595649318,-0.4436560432540574,-0.23917574546223405,-0.18126356185762035,0.005872120471867381,-0.013621517629025654,0.007868445641739304,-0.40331853842533816
-0.19029965358182127,-0.4497296199761111,-0.23757502090373805,-0.18266517386520084,0.005651053033447072,-0.03755761314569591,-3.0927869377889383E-4,-0.4340782084260752
-0.18056864187317062,-0.434474586534792,-0.23242835446024107,-0.1828908453528569,0.012601990539960556,-0.026872797419537606,0.010982544364111805,-0.3845098722511572
-0.19074927164153183,-0.44819388818719236,-0.23377516475581894,-0.19325711754756392,0.00806200830270494,-0.01593082248686918,0.028190594563094546,-0.36917802218448226
-0.189927555029356,-0.43641921653080895,-0.2362419295983312,-0.19538782141694488,0.00399799135417746,-0.03068016777376049,0.006145444552170595,-0.413592480697783
-0.1839559712312483,-0.45566481726172564,-0.2397209742805843,-0.19403037400185738,0.006219026840210356,-0.02094104380251047,0.0018114770421873106,-0.4199384913310839
-0.19271651138353071,-0.4397228659802569,-0.23475797381827768,-0.18223155708675273,0.014866518667500621,-0.019640293707789493,0.0069956705138860984,-0.3907524829515389
-0.19550421279752608,-0.44491612169325545,-0.23886503388710717,-0.18654798331537642,0.007630481368707009,-0.02571951073946833,0.0016006086828753592,-0.36434517676906697
-0.1880372148994771,-0.4485428615358189,-0.2329737103422261,-0.21013940012585355,0.012472817315802588,-0.0326946210001818,0.003016991122068536,-0.4118925178795681
-0.19401152660173535,-0.45114911349537956,-0.2412334525062497,-0.1858555650606896,-3.853565154597943E-4,-0.028900568354506644,0.005651920966956391,-0.4331969743071838
-0.19300284976631718,-0.4484109821547537,-0.23865243340736975,-0.19193864630660365,0.010884965020480294,-0.026558776697517716,0.0041577974300047475,-0.4050925113824725
-0.19631340002032924,-0.4530750125572261,-0.24339419835290033,-0.2052418398891438,0.02470764175406686,-0.02514092253886405,-0.015421149068352052,-0.4018088738221081
-0.19264256211294387,-0.45858811928599996,-0.2462755837674609,-0.1986531442666472,8.756908780477851E-4,-0.036289572417644696,-0.009707276690262306,-0.40128801162570277
-0.19535534447119018,-0.4624532788472519,-0.2399294574148351,-0.19439977609407522,0.005644212647567274,-0.029103793008686697,-0.0037363112096096157,-0.4258077793164962
-0.1881917999111734,-0.4372766187541434,-0.24168479692817432,-0.19069709611498376,0.004133733318650753,-0.02898243222867582,0.007372407386793377,-0.39414014068263764
-0.18620858475698468,-0.4471331445877846,-0.24965595414204808,-0.19389999116870743,0.002694880499050961,-0.03840482904151322,-0.016910657708060047,-0.39599577060824387
-0.20423280967770277,-0.46230845314457497,-0.25245297398602656,-0.2048745815185877,9.2157898332882E-4,-0.03089064764266668,-0.020598408682203376,-0.4404908037461393
-0.2017106229719899,-0.4511998582206176,-0.24386771692082498,-0.19298722765521598,0.009823321848642244,-0.028542085361776756,-0.0023256472178420358,-0.4059959066059949
-0.20768105352616764,-0.4473125582403201,-0.2443532633029294,-0.2053676134128528,-7.578092809387393E-4,-0.040314090656371995,-0.014781104921619171,-0.3947187468039976
-0.19329519419973545,-0.46394205648038,-0.2534863271752354,-0.21427259143632846,-0.0016483805030486662,-0.038150319533457155,-0.007829782415701047,-0.41028030163940943
-0.20594434535153266,-0.46238375993465913,-0.246957815119315,-0.2019351434001091,0.007700438984683276,-0.0384754446218743,-0.0026684668517274654,-0.439874181420082
-0.1958582622935552,-0.43951197039982004,-0.24429211169420834,-0.20937860861358878,0.007657773033494873,-0.024075482552352936,0.008235425521691037,-0.40025907462698973
-0.20000613148003404,-0.4558138518626324,-0.23891339726811567,-0.21235646927686824,0.008180169392966542,-0.03082379557397458,-0.005599476157560443,-0.39712673011171085
-0.20629221571725168,-0.45062846580930255,-0.2504091949296921,-0.20884862924888173,0.00720725800387362,-0.04454544889875291,-0.010743349894868049,-0.4282483941813846
-0.20448075093997056,-0.45304322002062464,-0.2485903648359412,-0.21549618663399328,0.013846620807598782,-0.02166498157855199,-0.01557332443847875,-0.4106207477705167
-0.19602876304166372,-0.4513449752279575,-0.24613430735310868,-0.21806649184083687,-0.004627226187002739,-0.03903466381544477,-0.003491399895092809,-0.38302307264146024
-0.19070614356410526,-0.45707442423725697,-0.25315844701056395,-0.21082742652262912,0.006889081082477691,-0.04933331296391865,-0.005323273453585073,-0.4057901564083888
-0.1952279327581919,-0.4685316130146312,-0.2502394077484707,-0.2195145095420148,0.0027982558999656423,-0.05456724861215572,-0.026366653612511094,-0.4262029214599535
-0.20272288248432388,-0.4532439234175142,-0.253918544114248,-0.20617438838631133,0.008720633154359253,-0.038996243207355265,-8.567665687917844E-4,-0.4057961282806237
-0.20015713341849847,-0.46398186250462264,-0.26026613739004184,-0.21882831015547555,0.015512701568835994,-0.03135484444732466,-0.016807403965409116,-0.39986204539432735
-0.20552093408056357,-0.4550565395029934,-0.2645677474143635,-0.22596897561056428,0.006731612902382729,-0.04130892876919601,-0.027672990923050658,-0.41581686686862634
-0.2054913479821338,-0.4657200284609532,-0.26155069482285,-0.22333271112542671,0.0065175886492862675,-0.04752867398462775,-0.027161866583111042,-0.43638382646344204
-0.19755222485139,-0.4634307278078565,-0.26258764240395593,-0.2262034245717728,0.00459877443713458,-0.0393236724806214,-0.008171389416643705,-0.38793375338375813
-0.19501412068145405,-0.47055254611224423,-0.260789428443149,-0.23066230414355532,0.013772633306585185,-0.04615134453354823,-0.01831551065050648,-0.40011573599133626
-0.20300487248604876,-0.48151498886653143,-0.2689661274691107,-0.2348390501854092,0.004500160953871103,-0.04653738662863212,-0.015561050653625525,-0.42720994592529904
-0.20751912773600734,-0.4679779846461391,-0.26660147206068474,-0.22595405652313424,0.004957215044640989,-0.0467194748189646,-0.006517107674586925,-0.42037034290384184
-0.21158790016588042,-0.454104059610575,-0.2657584186846804,-0.22760875458591825,0.0027090538329574703,-0.027418326147029656,-0.03158596416433467,-0.37281094492961625
-0.20383644019414277,-0.46532588665675945,-0.26394600862472173,-0.2316139848377832,3.1578596536999614E-4,-0.04613404214442823,-0.02300052239119192,-0.4005353230886683
-0.20946723651681884,-0.48158511268813525,-0.2808696806119081,-0.2411639933976802,-0.007194203491850043,-0.05004299300398991,-0.0401816425076854,-0.4249357696861062
-0.20807293930247422,-0.47411806604944123,-0.2759589406072365,-0.2464940545484955,0.012926979701793205,-0.046910252025669744,-0.012320919667917781,-0.40110686950743163
-0.20827791588847583,-0.47414685025218983,-0.27992262519502037,-0.24726765434505088,0.010973385129184195,-0.039777103652644974,-0.02530054791419938,-0.37436482991994013
-0.20971056963548598,-0.4742503996079109,-0.27680463867353045,-0.24736372851332916,0.008819658603745782,-0.052485815659699064,-0.010969020494431226,-0.39498178013117413
-0.2060989196727869,-0.4728529916272165,-0.28067162520292616,-0.25506277775975805,-0.00772148010469063,-0.045311153362356325,-0.029550188406623996,-0.4249780947046469
-0.2137013187535338,-0.4648090774356024,-0.28131620965379917,-0.2530321319262442,0.02401049788134494,-0.04293690364458208,-0.015748164552032238,-0.37793751847884927
-0.2061523356937992,-0.46164827903429273,-0.28514891535081244,-0.254581010462724,0.006135532303610989,-0.05215244956216469,-0.004567735459119468,-0.3823289019522086
-0.21294233458092465,-0.4773929257824846,-0.2924530575607235,-0.2646882718643125,0.007641536895645441,-0.04910467490878799,-0.037142144611104315,-0.4240898326459574
-0.21037204379618732,-0.4812951559965377,-0.2927951671667758,-0.25508148138057213,6.151726009322508E-4,-0.049224853638169655,-0.015284624981946809,-0.41447489537599413
-0.21636212385658635,-0.4786781116070031,-0.294012020339934,-0.2674020233645183,0.011088980819176066,-0.034464218457403904,-0.031227957381946992,-0.3840186218937165
-0.2120516937984735,-0.4789021589850504,-0.2926077089593458,-0.2665658800758385,0.00252899069858525,-0.03963106438522991,-0.042065279231504084,-0.39109016347256015
-0.21611770993006138,-0.49146841283323367,-0.2961195786519461,-0.25616080132349467,6.352130581841638E-4,-0.05888223297217595,-0.03184294597102321,-0.4173656989701232
-0.2127471272551551,-0.49353958821987587,-0.2986185824857476,-0.27435589549248485,-9.149589317661424E-4,-0.047135203964765386,-0.00634383799277001,-0.421330898005817
-0.22136169078835005,-0.4830173813742938,-0.3026623411715244,-0.26316814562937885,-4.499638872745855E-4,-0.04425752299180438,-0.019597270232813768,-0.4039975849990104
-0.21690947614039532,-0.48379429448688666,-0.2983879210774053,-0.2640620918544531,6.985045534011772E-4,-0.06512789450165318,-0.018669364601870526,-0.4120441618148651
-0.2207959548782031,-0.4910385136955502,-0.3058877115678058,-0.2765429934997686,-0.014004096692867996,-0.05279347569245494,-0.019183557729407226,-0.4322677727085577
-0.2255908807752072,-0.48633725162271285,-0.3049334868834463,-0.2642263225488846,-3.1954399323029905E-4,-0.03956275593418503,-0.016195692695678044,-0.4028469410753967
-0.21971384068873645,-0.4766267008163329,-0.2986465831394492,-0.2652922695943277,0.0011779718594055566,-0.03560349041555697,-0.020049448197277255,-0.3914743552640559
-0.23182918474355144,-0.4823161378343677,-0.30191152231967733,-0.26322602353962743,0.015944784951478993,-0.04773440158187515,-0.017344460475550598,-0.40655249904020996
-0.2307241370003504,-0.4973979053196057,-0.2955352927295637,-0.2517116898030927,-0.008631621827261765,-0.04215529454895002,-0.023202111712298513,-0.4309592923976386
-0.22964389224535067,-0.4892572329145334,-0.3027486291115355,-0.2614161454710441,0.010228723137011791,-0.03903219839013471,-0.0016093560605507944,-0.4063355787671095
-0.23258413818256224,-0.4842272153151871,-0.3040208446039591,-0.27636907276389455,0.003312976968502169,-0.03755905282425657,-6.5447212316988E-4,-0.3987758668273038
-0.22933697589801516,-0.49233652279468787,-0.31174615517515475,-0.2702559051805275,0.004045683434283057,-0.04924916148048791,-6.765432778188566E-4,-0.4183630014105311
-0.22829779064492262,-0.4902419208442237,-0.31579361395613353,-0.2706711512513682,-0.01122851888196022,-0.04862591039411814,-0.01184290575586858,-0.4403636356052654
-0.2253644403939019,-0.49152081076059406,-0.3131758642559339,-0.276467358325105,0.009410187502694184,-0.03539987247713161,-0.0021901142910012773,-0.38010760849033537
-0.23332587912645877,-0.49144675706633306,-0.315596594789676,-0.27549580243427324,-0.0023897185246560997,-0.04791090321477766,0.005385923683990625,-0.3840770410631232
-0.23283898318618362,-0.5059560478300844,-0.3196524887312707,-0.27104581885289086,0.001702013116109908,-0.04967798524977759,-0.009507891035974074,-0.42761583172868756
-0.23360423572349456,-0.5059024892914977,-0.3189230059753503,-0.2813730975677415,-0.008721010572871425,-0.04743231956276353,-0.014750649369921468,-0.4467513225089185
-0.23399811852889107,-0.4992211257327207,-0.3080228907284097,-0.26725264152902684,2.6202655021412985E-4,-0.039543420715852755,0.003371471214876975,-0.40377982494640297
-0.2354360487455615,-0.4984158077768159,-0.312080461352617,-0.27352475973534435,0.0017778200413325793,-0.030083457763297735,6.468950346249706E-5,-0.41152606960081345
-0.2375953319218944,-0.4994202036903494,-0.31771738482389483,-0.2671933156194229,-0.006245604763448943,-0.03642267511671906,-0.0076349074771456206,-0.4229397020715458
-0.22589056908949157,-0.5149333980428469,-0.3138891310225457,-0.28063830047662036,-0.004258315815224153,-0.04655591890231848,-0.005419487037160876,-0.4223378798743499
-0.23853946560636205,-0.4904907582505486,-0.31515602364088546,-0.27330252413192696,0.003011896378353187,-0.03823249878237841,0.010620328366704842,-0.3943447484519994
-0.23039665248343755,-0.506689847471182,-0.31854793078441834,-0.27954274098567267,-0.008641941666716259,-0.046236613807309215,0.0016419692384151913,-0.42597952891491625
-0.22386269097867462,-0.5092030047072801,-0.3228512547981142,-0.2850917307956186,-0.001762535893026394,-0.04285094984103604,0.0038313445583910703,-0.4366718573685166
-0.23451856778975155,-0.5192465046769631,-0.31405570571630936,-0.2725378084345401,-0.008576687865083936,-0.03480028803089447,0.001607281644602763,-0.4355571129965579
-0.23895984970887738,-0.511456920063775,-0.31409472424820606,-0.2793455575613949,-3.3947649004616187E-4,-0.02443245975186267,0.0025034713542571286,-0.391410468362209
-0.23220601660627277,-0.5074734951739027,-0.303733475586807,-0.2710968131163469,-0.004611567996541846,-0.034736842187724215,0.007526699218715012,-0.40589190187447427
-0.2342495233643788,-0.5109965509461495,-0.31627001779505043,-0.27160999946741937,-0.004703404409439635,-0.04194279543652884,-0.004748324112750902,-0.4356596659015897
-0.2331509485288385,-0.5089411262275131,-0.3056366443382921,-0.26154988345999314,-0.0017480502212918337,-0.03265913327132964,0.016293499418449448,-0.39748203867253656
-0.23267317378144675,-0.4964336234772002,-0.31231359770603284,-0.2608524818258637,-0.0038941605351140345,-0.021698121719410688,0.02061221939712219,-0.3975351714747085
-0.23137376298341453,-0.49535343045533636,-0.30825962179398003,-0.26753560955267847,0.005418196925503864,-0.04006262215131925,0.007866525071053062,-0.4175838365975186
-0.2237036784105259,-0.5085929735083394,-0.3046921844196141,-0.2661630415932314,-0.004127742989237596,-0.031097984817126265,0.005519394522686935,-0.43240801723414707
-0.23077496264416122,-0.4770482031349913,-0.3005144697699583,-0.2565887514522179,-6.473851284066916E-4,-0.01881670972442254,0.014226591913465396,-0.41198082332822866
-0.23109485195757662,-0.4775448270591259,-0.29553933029855195,-0.25449064853155323,-0.00743068281327686,-0.02103660694757311,0.011833345582878099,-0.39859298640395224
-0.21918959251501793,-0.4667859357079589,-0.29499352505258447,-0.2562633660037605,-0.013744185873249208,-0.0351273752709625,0.009215186195564818,-0.42118575426646626
-0.22945426038168687,-0.47807083598357203,-0.2971556997290505,-0.2500315768544408,-0.017761641314582483,-0.0415599147601405,-0.006183523241110585,-0.45812130381003835
-0.22439729263039598,-0.44649062725827177,-0.278381334299831,-0.233144777009818,-0.006086752621656026,-0.027798471675918833,0.00807060792233925,-0.41850717444696656
-0.22424361930307826,-0.4447343705375749,-0.27492302910029737,-0.22693453251857526,-0.01181043334019651,-0.040785075139951235,0.011871532602350797,-0.4297989726859301
-0.22663643630446853,-0.4441676956116316,-0.26911489654994564,-0.22317728680413748,-0.02934592936716112,-0.04763463944020005,-0.010830875387747527,-0.4495836351733719
-0.22781349618724095,-0.44969925444710995,-0.2645500387708599,-0.22856588206583062,-0.013847287434147485,-0.04341158835494188,-0.0016452335896253766,-0.4396954532668862
-0.23361406958663003,-0.42968343877663645,-0.26459615133079706,-0.2262754244782235,0.00290290710547554,-0.036507319068405215,-1.383073606303287E-4,-0.4087036637203094
-0.23037448106211525,-0.45206693130305353,-0.2729938032308992,-0.2346640161420883,-0.008752071404956756,-0.04307730259638114,-0.006564210873467808,-0.42567313413616104
-0.2352024681965849,-0.4394025272174926,-0.2731301076266457,-0.22455356470671117,-0.010153305728675725,-0.049056183504207936,-9.565314153013216E-4,-0.46635312432053105
-0.2324614828856048,-0.4508969387846851,-0.2683730800707669,-0.21655367130670833,-9.48968500426683E-4,-0.03845107604192673,-0.012554391072378464,-0.44525352458459905
-0.22426967539813883,-0.43549541350084703,-0.2815847541270639,-0.21769084481001819,-0.010212559560704049,-0.03666945892383909,-0.005734589377225446,-0.3987311531558363
-0.23378462914417403,-0.448727088213533,-0.2822404793291008,-0.2300073499758855,-0.011212496155895422,-0.03778957619506736,-0.005041111011183915,-0.4479743472824787
-0.23539232512500188,-0.4500666346060623,-0.27059265106814345,-0.22770750253852365,-0.024814969824945857,-0.061026134223556634,-0.024219695905745707,-0.4761028534322295
-0.23844030175164194,-0.45074907596383307,-0.26499261480954256,-0.21277361828594804,-0.0023510588831623523,-0.03533576993508453,0.010863143537381144,-0.453090692310335
-0.23910136637246118,-0.45904231603964757,-0.2804280452482623,-0.228056127905924,-0.016832553678138098,-0.0483429294110929,0.009416577440612337,-0.4337193327579548
-0.23574030039667446,-0.44377632317327237,-0.2755402330243996,-0.22967186183992272,-0.01818927564621199,-0.05377827415236386,-0.019547296894512664,-0.4353051715549803
-0.2376583280259177,-0.4557278659177622,-0.27763253539136895,-0.23364065677107693,-0.004288320621860328,-0.058934690897174825,-0.01291082210195832,-0.46574323632063325
-0.23936464615126446,-0.4583439475741579,-0.2825250811512861,-0.24456168826549152,6.822834962420067E-4,-0.05060081705366439,-0.006125142316487278,-0.40912598446257364
-0.24121725707278546,-0.46133308787809985,-0.2872258297811128,-0.24851607311424392,-0.01329743968846731,-0.04333702187719926,-0.009535503036509978,-0.43531312107839276
-0.24629565121506716,-0.459783855644003,-0.29746221316073446,-0.24794104764021702,-0.01841207175532066,-0.04244506926315324,-0.013312490047242383,-0.48040798248377264
-0.24936518183417386,-0.46320795109469914,-0.28202597566149956,-0.23991396332766618,-0.017683343380042436,-0.04061087369139645,-0.01648176956938014,-0.47312714332008027
-0.23977255766224972,-0.4486090380766871,-0.2800766417185968,-0.22478846030580169,-0.010487150177416965,-0.055835730637003374,-0.008934170775702225,-0.43198913626028157
-0.2440714536933124,-0.4298108127997245,-0.25796688889693165,-0.20893830340794972,-0.011331419778515331,-0.04605129119378665,0.005375987446287548,-0.46245780701062383
-0.23683051066704436,-0.42937956882753353,-0.25825957667959254,-0.2084814716394471,-0.023528354941741773,-0.05022679879756514,-0.011057960277483111,-0.4827427514268896
-0.2386404200250158,-0.4142274248258028,-0.24271852851760317,-0.20360176919351614,-0.016056921567303848,-0.04467247901426901,-7.928775831289203E-5,-0.45932421946398233
-0.2418623450071723,-0.3959413757241922,-0.23744397751379154,-0.19911093178298134,-0.01361800009052441,-0.03872518953599411,0.001341166770770053,-0.4298266998925632
-0.2401874768521219,-0.40695280406624634,-0.24584744610858633,-0.2002524570737166,-0.020271196383658405,-0.0488038110242886,-0.016739955302963586,-0.4717965610283503
-0.24277374087224343,-0.42599080407073375,-0.24834552881077437,-0.20295326715498624,-0.021307939416757807,-0.049845088548037764,-0.019824284973439396,-0.4949673229799055
-0.23507615992209957,-0.4386791374743033,-0.2597817294891079,-0.20933922653997183,-0.018135219916460478,-0.044739162673388275,-0.0016203802903693553,-0.44878222189354716
-0.24477436968216057,-0.4382016652928681,-0.2552931581634294,-0.20977070687676283,-0.03137828108405681,-0.054809001525825664,-0.0173613477505128,-0.4552087287631458
-0.24087108838753937,-0.44194447354593863,-0.2593545014195823,-0.2153762435073854,-0.022265085628892844,-0.0563113783495847,-0.016013359242589124,-0.4842472676599995
-0.24926425955176404,-0.46378505108629986,-0.26816536638483013,-0.22148048521383254,-0.030406679123453014,-0.06501409031736859,-0.029460377695477543,-0.47649523302303304
-0.25314409780592073,-0.44507380258060014,-0.25733528616101514,-0.21717217558016444,-0.009658651912056558,-0.0515967808571496,-0.002922915997883779,-0.4487215972434664
-0.25476950521094255,-0.4502586835306932,-0.26447911216658204,-0.23187726827011557,-0.02653466561816399,-0.04148402192635745,-0.02556534985305723,-0.4685030371547722
-0.25891922531480205,-0.4713997281276318,-0.27429861983120296,-0.23265712670477792,-0.03298153969133518,-0.05163282699222708,-0.030534107453083874,-0.4823204290302242
-0.25902033029970256,-0.47235615492658095,-0.2742406612991815,-0.23127401035232573,-0.02993032824316174,-0.055271534736668286,-0.010906588553242043,-0.4822817966667776
-0.25587348077488314,-0.46081807703133737,-0.2626651180084951,-0.21335914013360704,-0.011668917006474823,-0.05947542316163689,-0.0050617291546661315,-0.4464766197156702
-0.2524606917372282,-0.43564945583529724,-0.25663253885686826,-0.21701859840003243,-0.028699645178991692,-0.0530011518725933,-0.005491009683059397,-0.48979759435123854
-0.2503591575205936,-0.4461025097133127,-0.2593064846107429,-0.21786964885577792,-0.032876497336949397,-0.05360595220830875,-0.02995533208041396,-0.48902572875391576
-0.25674167553467375,-0.4437700875066233,-0.26121922557378113,-0.21358904941223864,-0.022458104527541687,-0.05262917338310826,-0.015962091779423822,-0.48884182370044194
-0.2550590400234493,-0.44797696056433317,-0.2674633454083448,-0.2248391020360174,-0.0193571821072845,-0.04775681037088786,-0.02968922586253805,-0.4689029480635341
-0.2544246628452815,-0.45767058381888265,-0.263612424933499,-0.22430819072893413,-0.02865923586268761,-0.04462077092242261,-0.019928277322166607,-0.492162019356573
-0.25417878014681144,-0.4590946256501607,-0.2689536258270924,-0.22071296351164954,-0.037851940513634,-0.052042836970276396,-0.028693810171840656,-0.5263243054494364
-0.2548046241452303,-0.4669202543234338,-0.2676322927703434,-0.2217600839966217,-0.026632925583349506,-0.045796387012295985,-0.02156109841472961,-0.4772711650438804
-0.2607471232755448,-0.4713370885530197,-0.2719173608054409,-0.23330775293244668,-0.025967911695703182,-0.06266395474574377,-0.03337646209583138,-0.4858606550166178
-0.2641555153806239,-0.46241393943351605,-0.2613324941586509,-0.21638056236058525,-0.027572325785172064,-0.06659855368409424,-0.029872396248489898,-0.5061632124723242
-0.24793106090939362,-0.4418131914613766,-0.248384509447886,-0.20884152133756093,-0.0219706144779567,-0.06335448624804305,-0.025900707476378487,-0.48421532014771185
-0.24751441639834032,-0.44855149439603254,-0.2531044965176405,-0.20610796269977738,-0.02805945554866493,-0.05203462031158912,-0.01732990828374838,-0.46405483422411864
-0.24557840908543294,-0.42717730801209813,-0.2518601512724721,-0.20681727517239978,-0.03755989313075511,-0.054291285264761076,-0.020849497503906963,-0.47266017389287324
-0.24206278504757725,-0.42579638663988173,-0.25713138320236745,-0.19749408645028052,-0.025155719964165803,-0.0641888154467364,-0.03731776169510021,-0.49650336549296525
-0.24999368003303002,-0.43672830333566964,-0.24294685072131542,-0.2014029457762457,-0.024327945044704244,-0.03769890049885314,-0.0026239921149893114,-0.44547272576025765
-0.25039436172971485,-0.44148634360938865,-0.2451643527903148,-0.2019063817459072,-0.02919851906686747,-0.04926155626930028,-0.017176023494534988,-0.4186633901056007
-0.25310583781099283,-0.4500150699867811,-0.25292139086930715,-0.19346777076501473,-0.02744222141511618,-0.047561004919288906,-0.021180351530000256,-0.4607001016256635
-0.25293458632346155,-0.44950954622593453,-0.24535588771681321,-0.203263548200448,-0.029225817165009334,-0.046150538118860114,-0.04191803889363686,-0.4755065005276306
-0.2573712715084721,-0.44366348102474945,-0.24982282901312997,-0.19815194495273186,-0.02164791187691502,-0.051001665929382135,-0.01188189789990843,-0.41033330138637003
-0.2522279901807306,-0.4368275278750139,-0.24609263090260197,-0.19939827927886353,-0.030447071100894695,-0.04314398679909746,-0.02294044966156208,-0.45592140801449654
-0.24540716568045984,-0.45449992652104104,-0.2515022933540694,-0.20473168196377983,-0.02585704817866557,-0.061606616292161576,-0.03157331156107076,-0.46245062915152063
-0.24589968301718523,-0.4709901894126061,-0.24946116618798947,-0.2010097531391428,-0.02711558853057008,-0.04431345361521829,-0.04086573262072151,-0.46698087126597476
-0.25600607559020455,-0.46723273285835254,-0.25118739393202144,-0.20512763104469103,-0.023159106386103353,-0.05291721818370491,-0.024379306080229205,-0.44880584088646275
-0.25027104443238174,-0.47355680519230503,-0.25041266492215175,-0.19907870238794922,-0.02989362150257485,-0.06526175731232173,-0.01658231942936918,-0.46301257979388494
-0.24824045296458283,-0.4687781623273624,-0.2585537266264425,-0.20651272120926628,-0.021885165561976005,-0.054069892112252084,-0.028399594769805265,-0.4908090044549951
-0.24857230573014005,-0.4780235828813272,-0.25618488962204145,-0.207072272381499,-0.021004852578098608,-0.05117765220879678,-0.0075485429114499755,-0.42910504442989195
-0.24690326982326385,-0.47233490904839365,-0.2581309860426558,-0.20826872403590657,-0.026682162847337973,-0.049256207286493284,-0.016673324641387544,-0.4415613297617695
-0.24075617067310232,-0.46435093762713453,-0.25174020435808425,-0.20120633560879786,-0.027159131473826707,-0.058598959680410734,-0.01122037226627532,-0.4634680759695594
-0.24746576468274428,-0.4600616463519537,-0.25025920234102916,-0.19335277761859251,-0.03454804050843356,-0.046233931566566494,-0.015516849147022161,-0.4677144925940353
-0.24042483289785402,-0.45525463654896026,-0.24039868844550055,-0.18914992379405496,-0.027223946256160217,-0.04640327480785229,-0.019748230406081587,-0.44863568269336523
-0.23873225155232589,-0.4543342880066274,-0.24411961396842446,-0.1885376340116282,-0.02050487531470331,-0.053004297454094226,-0.009042795713647734,-0.4605831217870539
-0.24095357163970907,-0.4520463202720026,-0.2426905127206047,-0.17991791827964393,-0.02974364760666093,-0.05196954499246998,-0.009062029536841812,-0.49306332797563845
-0.23142178343232875,-0.4412263955645835,-0.23344096251738075,-0.17558778672399336,-0.012399635376927178,-0.040915294782432284,-0.0041862146747883985,-0.4352859076952955
-0.23408059279356086,-0.4383921580366446,-0.22011914105804758,-0.1687813047372252,-0.01461974142750877,-0.04381416169143537,-0.007773937786092687,-0.4497418801875774
-0.23111907747183702,-0.4464349307400202,-0.22688927670406117,-0.17518371539993102,-0.019969179793447107,-0.03200560563284425,-0.017901296297179445,-0.4793949971131249
-0.2323537697502593,-0.44762368149041154,-0.22334942769436764,-0.17522051023004978,-0.024230457713588612,-0.034596983521810475,-0.011874837114157738,-0.4777696493187429
-0.22995707604277674,-0.4470362633473903,-0.21185374092760015,-0.15529328992346506,-0.009712550878149899,-0.039306541994136614,-0.007767663721642081,-0.43660389280651957
-0.2302841194171613,-0.4349131404725365,-0.2196060845011326,-0.16553393665511196,-0.010938370305530479,-0.03948826477574625,-0.004147642032450674,-0.46386655956627837
-0.22752419132327004,-0.4433392871567424,-0.2197094167985454,-0.16717060397156416,-0.014059631373171169,-0.04217475404548196,-0.00660140857669979,-0.48555308445167344
-0.2181858505960094,-0.4364084512730246,-0.20622121014965003,-0.13531619431078795,-0.019377060736853295,-0.014915186770745959,0.016122008697987664,-0.43039085417835937
-0.2152534345531641,-0.4200279966979542,-0.1906059088159342,-0.14372456095709607,-0.016415508875248865,-0.02721341003028832,0.00920575815399446,-0.44286258034322734
-0.22286602157322186,-0.4135812471170809,-0.19804864166943179,-0.1358665181714145,-0.019366742152068038,-0.024697873849725403,0.004353844474279088,-0.44195605502029583
-0.21927624829070796,-0.4205854805771464,-0.1874880051345727,-0.1396635479477544,-0.02091462136859276,-0.02067621889919934,0.0028938460459543352,-0.43353435959259085
-0.21295308297935833,-0.41626127561092396,-0.18605365874517468,-0.14202786697543088,-0.01351604226099693,-0.01000271752817076,0.030953874542879317,-0.40840657608014974
-0.213654835101191,-0.4124981247879958,-0.18242761675460664,-0.1507575777743153,-0.018724502523441048,-0.02209017131627334,0.0055227589009743585,-0.4168970012794228
-0.2205294743773168,-0.4111950492385063,-0.18308043933244966,-0.1358844635470651,-0.01468549385725508,-0.01811054239347524,0.0016327941021745263,-0.44268186401511533
-0.2235437205121975,-0.4021326194074582,-0.17761907301581759,-0.13692080926331898,-0.008477461055312779,-0.027067040589654142,0.03798605181389988,-0.4097274340252345
-0.213477868433877,-0.4087780596463476,-0.18089738633127417,-0.1347817848604627,-0.011708402846728456,-0.011248942188694917,0.02986635054257093,-0.3968551104318747
-0.21413261083784574,-0.4058311953080002,-0.18560977386184263,-0.14339351331659383,-0.021706519960394143,-0.0270173519361741,0.022882495623823645,-0.39409619303996185
-0.2139390820269501,-0.40981811338818863,-0.1811856337317607,-0.140447765615696,-0.010976691050171666,-0.014186920329779133,0.011484341598821151,-0.4102056416339069
-0.21539700862711503,-0.4035000045576165,-0.18391228638891388,-0.14801776111440804,-0.020593093593713953,-0.016374838575903015,0.01812963391670188,-0.36997608398865117
-0.2117774968705647,-0.39438152278207006,-0.18646044463066486,-0.1406840379201609,-0.014291621265450315,-0.01452580525856462,0.014303854071208417,-0.3923219614913137
-0.22115882359346087,-0.3938314064947195,-0.17907006618120763,-0.15516315793590568,-0.011209641175800079,-0.023450792081499815,0.007111413989326231,-0.3927357529236679
-0.21031940346459013,-0.3910419977997695,-0.17952976862511813,-0.1454962405987554,-0.005813639829974518,-0.020282832353089846,0.011427050898010601,-0.3871184775866226
-0.20335253504330905,-0.37721926557342983,-0.18239390360665408,-0.15423843415643995,-0.004841218767627462,-0.01868811986051619,-0.015607529261790562,-0.35691243568670233
-0.20688744174560045,-0.37435773569157393,-0.18510252769658533,-0.15301565865102132,-0.006204708602463674,-0.031286949723029735,-0.024975560435656706,-0.3899472168089447
-0.20941958746553496,-0.3808266650802862,-0.18153335082785746,-0.150237246939464,-0.0129553269893194,-0.028895272148490827,-0.02506609100271801,-0.4199001051359512
-0.20873783009209781,-0.3703986296099401,-0.17209602178930908,-0.15637534620303042,-0.0049381751224432825,-0.030283057982493627,5.031542090166236E-5,-0.36770149590600154
-0.20148976654746814,-0.37801990232098537,-0.18235271269104564,-0.14303756177741028,-0.007704830017690588,-0.035818410806513,-0.012737962650264221,-0.38149703101079613
-0.21661268594233263,-0.3717727212915263,-0.18249595636475527,-0.16866297447210976,-0.007141490938176344,-0.043495571700226214,-0.015609923709443042,-0.39144463300103327
-0.20054761935390508,-0.38438596702672506,-0.18102784461995766,-0.14893642642614446,-0.00126904549811539,-0.044341545021200864,-0.015438096592436626,-0.42245091670424756
-0.21097551243422333,-0.37755481768645194,-0.18080435223581404,-0.15821325506256279,0.008760489012095127,-0.04075914757653704,-0.006573658612535234,-0.3654820567804107
-0.21097385158317916,-0.38344219590505857,-0.1934663466469939,-0.15788779075535844,-0.006556002258696208,-0.04401584268200611,-0.015824894556565446,-0.38300939847745297
-0.21322416243941453,-0.3873585637363178,-0.19850735473609962,-0.15871226524694268,-0.005972178681037763,-0.04372610575292251,-0.041849777746515805,-0.4010767424590608
-0.2074567596262909,-0.39066550420123747,-0.20225288684338882,-0.16183248645057627,-0.018683465058380706,-0.058696078465890714,-0.037541163743008546,-0.4213992010741787
-0.20674413178896658,-0.3848093233729974,-0.1921465145110653,-0.16274709011325236,-0.01230095844748492,-0.0508936886777353,-0.02151023358937138,-0.4130919860843782
-0.2103175327878324,-0.3892348634521523,-0.1947720332519077,-0.1699648538067455,-0.0019628997321732887,-0.04349442188073778,-0.03464308992104368,-0.3467332203522909
-0.2102197927294716,-0.3949410848811549,-0.203961201392991,-0.17063499857365336,-0.005338372349888623,-0.05118647717822499,-0.033624453690002803,-0.36315192338230107
-0.21510356089587443,-0.3981230698816266,-0.1961701497053012,-0.17151014692704272,-0.01785747517089338,-0.06383998648371479,-0.03550492368973252,-0.4033769049512673
-0.20876108883014416,-0.4012641296023372,-0.2029066983450596,-0.18169690808277514,-0.010490958586662796,-0.05264523746719907,-0.035131245348353234,-0.4207603832272599
-0.2117720106427964,-0.4079677465802621,-0.1936738628298502,-0.18311332539196667,-0.004675989140245061,-0.045296285358033504,-0.024642639155154408,-0.3986661499512478
-0.21684154261318278,-0.38889737903092136,-0.1986833781072066,-0.17239639904934778,-0.010340152008408763,-0.04489920077085778,-0.02843773901829694,-0.35675162042349917
-0.21319573912830073,-0.4057775342482541,-0.20329527950582776,-0.1740291286651399,-0.010685916357858991,-0.05538855183959256,-0.03657347026097905,-0.3874271208088772
-0.2106907396089414,-0.41574534749169856,-0.2089032438558493,-0.1704487092892757,-0.020851355106598697,-0.048494107045396986,-0.036941986478547705,-0.40025188326540756
-0.22155063127081495,-0.4101123754164575,-0.20343414530897552,-0.17708374457649942,-0.034726487778752924,-0.057385041607577326,-0.0395281361932669,-0.4269484081222202
-0.21724819136626025,-0.4118362375734523,-0.20899774416463573,-0.16848669821786622,-0.020345748460915813,-0.05149614193052306,-0.02206998838601031,-0.4172878101352961
-0.21775087504934018,-0.40677354677899125,-0.1993488177808632,-0.1751702456968119,-0.010893078843454489,-0.046458186880848684,-0.016442108512056127,-0.3938669480229738
-0.21253052644852125,-0.4042499596899962,-0.208233251472049,-0.17439994806529552,-0.004429712270721868,-0.05016366230328807,-0.037100604772350776,-0.4033070355504293
-0.21988988715012592,-0.41199601759613225,-0.2095091315928089,-0.17635828213824975,-0.014376897039926147,-0.05480900573612586,-0.034910061824595155,-0.4180568391944987
-0.2128075952989826,-0.4212717212835635,-0.21033757234971917,-0.1677313118777552,-0.015310900890852444,-0.06569802451172346,-0.032621291751578206,-0.4580925417215188
-0.21584284253485583,-0.4137006889609822,-0.21138218908047515,-0.16060890383193382,-0.008481223560519448,-0.04263001151228039,-0.026870903865651875,-0.41211165079648954
-0.21159926154948958,-0.4185296891489086,-0.20295175617826292,-0.15815175794315056,-0.01807639574610571,-0.04193807572590397,-0.012265654162046894,-0.4152483111848867
-0.20829016496148423,-0.3851929780472712,-0.1743932430300332,-0.13530617442554121,-0.013859907070206455,-0.05230372144167338,-0.01269128925238838,-0.4145350259169317
-0.2075321207221061,-0.3830435469868257,-0.18702416040225647,-0.14316672190377672,-0.021125110925108243,-0.047539345686387555,-0.022797155887010003,-0.44731355502776765
-0.2101410501733473,-0.39053336412706224,-0.18557061875723846,-0.12706092947361067,-0.020873698294615325,-0.04729301210779196,-0.007536995496634489,-0.4483684344054326
-0.21428202250833503,-0.38414359598149117,-0.17327029772636862,-0.13291844914641818,-0.012607519710340449,-0.0412174635679451,-0.005318008214405642,-0.40845826352419756
-0.21183313684813299,-0.37867319474323624,-0.17999176675156364,-0.12442102918266724,-0.018072573304240714,-0.043340498120142366,-0.010432089097847881,-0.39764926365995773
-0.21484668162824194,-0.39317608779470065,-0.18786006640974515,-0.13453154524259064,-0.02038744767853955,-0.036603185598209145,-0.010377426195503447,-0.401143905208981
-0.2136094896462399,-0.4055741729828813,-0.18989415295447767,-0.13628595587382422,-0.02113131009627984,-0.050589465096793254,-0.017655334198847728,-0.44907633865145175
-0.21635565264733983,-0.41624391106306646,-0.1914305830760673,-0.1422002299166074,-0.02445412807783289,-0.036479221978470124,-0.016657703189452436,-0.46217607532443833
-0.22736681713385226,-0.39177901138463034,-0.1842148181003827,-0.1342630046084051,-0.020969751358338052,-0.03426501514775653,-9.804735016525363E-4,-0.4164100477292135
-0.22280623735289265,-0.39308915116365245,-0.18978445572687097,-0.12631959931947992,-0.012798647800128446,-0.03656110044642069,-0.008241767598779516,-0.413329008510825
-0.21843614952301837,-0.39728424143391766,-0.20032979251429844,-0.1508075515779226,-0.02337656332845118,-0.03967321521365157,-0.01644555704886026,-0.42278989081073975
-0.22441921741920334,-0.4078979980146676,-0.20430177632283325,-0.14980235664068303,-0.014230147394192037,-0.06027454549894814,-0.01495733435326028,-0.45169541108535977
-0.22115457029219737,-0.4307630336373853,-0.19781074163928544,-0.14254009698695766,-0.024812777529855556,-0.04943087613452446,-0.011841596966340105,-0.476855345945221
-0.2306939112656956,-0.4024354497654738,-0.19244916078225235,-0.140313206099699,-0.021636939174001744,-0.04165753742369003,-0.005294591328606569,-0.41926703134383414
-0.227558200649599,-0.4113184371243508,-0.20135293167829132,-0.14693850036899928,-0.019724262892527555,-0.044272344140524784,-0.019212624577720397,-0.4402800231548645
-0.2265308285827324,-0.41750217394528943,-0.21094763067786287,-0.1474290005165583,-0.03009616634335148,-0.04502073044673702,-0.010651789090023473,-0.433043098971611
-0.2266143706737494,-0.41508462249491757,-0.20343314903031046,-0.14425707319505712,-0.026311160040980466,-0.05086561814773825,-0.02761256561133526,-0.4536221552269516
-0.22764780453967073,-0.4153271019107646,-0.20809257835465544,-0.16513421467345937,-0.016587931284172623,-0.03827157626669452,0.0020974258309391165,-0.43622442486090546
-0.22979601350453424,-0.4249098163921265,-0.20670596436127203,-0.1594355747903111,-0.029805451432329676,-0.045511457002682165,0.0016399010142597878,-0.4167455747151285
-0.23786557084937573,-0.4236347128541828,-0.2119813127198181,-0.15586764862446062,-0.024796661461014783,-0.038743917749649345,-0.013536027274710859,-0.44249454556151546
-0.23743202244760217,-0.4376615354541494,-0.21590284667954945,-0.16494317713706938,-0.015065739602209723,-0.056333952774840684,-0.008760169975940963,-0.4485072380912553
-0.22836261922793316,-0.43871778142400725,-0.21509194557795208,-0.16177968785366795,-0.0227947057302612,-0.046274238328419495,-0.011823141836241086,-0.4492630911694812
-0.2285815142837366,-0.4266121699801345,-0.21517322925786858,-0.1615153778671929,-0.015361506378031431,-0.0420400696565567,-0.0010518144399807045,-0.4082160624872915
-0.23508403907904862,-0.4236849489850559,-0.2222139614733059,-0.1674982232185644,-0.020282684215880337,-0.05338660866796799,-0.013288867346038244,-0.4211770197281527
-0.2402667608351354,-0.43709542023376563,-0.2320644653706051,-0.18695736643885605,-0.017586008634948587,-0.054011787008741576,-0.030926985027167016,-0.4364824905701665
-0.23362349466534818,-0.4501782142418556,-0.23089787009325344,-0.17295649665073204,-0.02972930525019544,-0.04818364733155476,-0.028090270828950818,-0.45560534863781027
-0.23925216134961613,-0.4365900917475827,-0.22232861619252217,-0.18619464664171229,-0.024268528950081365,-0.05171443329816294,-0.024984467417094203,-0.39543707427970104
-0.24185073169589721,-0.44182273713936815,-0.22711196092441754,-0.16871867535090176,-0.01880076408328389,-0.048382004589642216,-0.030021704224233028,-0.41215326664182267
-0.23634807749645148,-0.42085283953035646,-0.2220168101605972,-0.17807093132549245,-0.016162235892900965,-0.05678910777789244,-0.0284065881287142,-0.41594409519010733
-0.2368189682759167,-0.4303271000594711,-0.23375905692110874,-0.17016968565581997,-0.0235629978178418,-0.06490054475426603,-0.04538138712149932,-0.469885830828914
-0.23973419215496336,-0.43865972768930694,-0.22832367757457567,-0.16877028714501213,-0.012274789501153049,-0.06121742352733055,-0.029011211879462914,-0.4603380634704108
-0.23395202586765682,-0.43067052120901145,-0.22336637000626286,-0.1711401011722119,-0.008782414461968386,-0.05313152146592723,-0.01643513489433605,-0.42143614224498877
-0.23083135576673697,-0.43160784071534425,-0.2280348124617103,-0.16289922118184333,-0.009797570386932531,-0.05089731674366787,-0.034497662589891946,-0.4117523766495755
-0.23772836772524938,-0.4381921362525893,-0.22169487705567562,-0.1715337089649172,-0.019054221174959803,-0.07457323068814303,-0.026017479905860293,-0.4581828806704778
-0.23409186333571988,-0.43829113078144516,-0.22883966475885406,-0.17520102230574136,-0.018837291579855506,-0.0704548032524245,-0.0474580403683891,-0.470044341767073
-0.23416625399064345,-0.44550358624949987,-0.2302133265970615,-0.1711693412931058,-0.010909403844793523,-0.04894577524248403,-0.01735579711158802,-0.4237177391983632
-0.23333833148374133,-0.4352188320471906,-0.21984957441139047,-0.1615344546454572,-0.0075308226811491765,-0.07218658208774943,-0.025476642508388016,-0.4099185815032475
-0.23452266795128948,-0.43074202136681367,-0.2222339354686272,-0.17393050032792198,-0.011876224026054472,-0.07512708261475862,-0.02352882158046354,-0.41688936691388456
-0.2326426939487006,-0.4324560742025591,-0.22835378365572456,-0.18361431055123853,-0.02111352533733895,-0.0690333210502531,-0.041114678869787154,-0.4307885573091866
-0.23869855238671656,-0.43853080255295795,-0.22457865443618796,-0.17828446382871205,-0.03488871271426949,-0.06695400357518361,-0.03261268681255039,-0.45784497743186947
-0.23387314348624544,-0.429096132632154,-0.21636446031480355,-0.1574100122228797,-0.008342729897569399,-0.051782364844036685,-0.03001168167010161,-0.42766083259300697
-0.2289571763378804,-0.4365253592156938,-0.2242257722458471,-0.1704785574787381,-0.007659083089830482,-0.04711693027555472,-0.030007580151212153,-0.3969416632932515
-0.2238192476920617,-0.4244528764943141,-0.23012223105486082,-0.1624157028521208,-0.01955637471076672,-0.06337995887721552,-0.040001489763707286,-0.4221063957658099
-0.21949789982289566,-0.438246226491871,-0.21996925101072004,-0.1672288752665652,-0.02034885863111682,-0.06783886991225684,-0.03615389581416967,-0.44673655134396406
-0.2270821012457482,-0.44012402550779317,-0.22868643356651636,-0.15945134628374943,-0.02680516907018801,-0.06603889118334622,-0.04847839367189724,-0.45589038784419234
-0.23086574465351536,-0.45084504951411697,-0.2306412959329548,-0.15944469083711063,-0.015582936109647392,-0.0527839273824653,-0.032548512907220835,-0.4579490152602604
-0.23149301806006528,-0.4483478423871754,-0.225414526634031,-0.16721510168089965,-0.006597151938681731,-0.05140045139638088,-0.02557319396860134,-0.4269302803833871
-0.22602684080499202,-0.44234364108746443,-0.2246701918764065,-0.16637804408832993,-0.013197932336440125,-0.05417422034386625,-0.035986490683797216,-0.41441871891782317
-0.22320861357664096,-0.43392845138212405,-0.22350220476792754,-0.1681820449227341,-0.013680281411744117,-0.049922990087331566,-0.04139312199511345,-0.4557946768675995
-0.22722816268331858,-0.43969956633620033,-0.21312994851691033,-0.15996992234098045,-0.0270613100953887,-0.06326049620167729,-0.021248416307524,-0.4501206264299576
-0.22302076850054983,-0.44346496007452785,-0.21744434645990976,-0.1449175968941805,-0.024505767391622895,-0.05499766085785298,-0.029052719107051952,-0.4727595870446848
-0.2225508371405226,-0.43149695117720016,-0.2057449343758209,-0.13704185322091825,-0.003905578950928927,-0.040606263762929966,-0.016374506095388455,-0.4346106334205002
-0.22557028589458208,-0.4307867641577385,-0.20703113842343754,-0.13772185171296059,-0.014630949205571201,-0.03873152791238272,-0.014036580077888114,-0.4188391669187599
-0.2233197941281382,-0.42942191924914963,-0.20450988755125163,-0.14778835658949263,-0.012765768844285487,-0.047304768526567335,-0.022171663312113277,-0.4379858328976784
-0.22202440691838685,-0.4464823729728291,-0.21293435080072196,-0.14599485926875652,-0.01778508707928688,-0.048592398720022335,-0.02057604804404807,-0.4621380487349304
-0.22159132946262383,-0.45285802451764035,-0.21657126407059712,-0.14009542222982677,-0.014215280549239642,-0.04018957926168679,-0.0035069853299959093,-0.4721277768388964
-0.2181754682107352,-0.449239571220743,-0.20167885389854553,-0.13508095090664923,-0.015383152608159431,-0.03241326702237354,0.0018439395750842749,-0.4370148291102892
-0.22751694350363208,-0.42889195160391413,-0.21056347420832275,-0.1434723792592664,-0.011011198850581258,-0.027612071013964165,0.008256727450772008,-0.420765954906837
-0.22002498165877923,-0.4323065660171721,-0.21150641309823137,-0.1353711943205708,-0.014498346842419716,-0.03211403495478729,0.014747421837735112,-0.4315938942565223
-0.2141306332510759,-0.4314884951525192,-0.20895048998577992,-0.14647380307060825,-0.015469025142741004,-0.034985091087206606,0.009595798407997092,-0.4572966886712552
-0.21952757885501242,-0.4494098839482666,-0.218042294632284,-0.14786193495805872,-0.009479221224113056,-0.02840164721043196,0.0026280641252617648,-0.4774452542590814
-0.21935361833097403,-0.4427026215702295,-0.20208660320374958,-0.13006343535403894,-0.011693709249835404,-0.023052104725748458,0.012677003509180955,-0.43919608897512247
-0.21980284093008481,-0.4195096168583853,-0.19724796762867008,-0.12151284294984806,-4.5501685693336885E-5,-0.021902774178760416,0.026595873769237242,-0.4226660395743264
-0.2204499358735301,-0.4323389484896023,-0.191924690829674,-0.12637270635032619,-0.017468572989985446,-0.024811149690981343,0.01965581782391957,-0.42431376996414283
-0.22493062818623205,-0.4342648204725933,-0.20061717669110074,-0.13225995660651976,-0.01135059837100325,-0.013552562068461243,2.18196961193071E-4,-0.44853725881821166
-0.2216372377378451,-0.4394402687306701,-0.1951297950985022,-0.13563213230414362,-0.014443920517411363,-0.021256667514328986,0.027265506128095446,-0.4565308202402108
-0.2263636070729748,-0.44000505736424517,-0.20010430511061805,-0.13839823746949653,-0.005658021628168947,-0.01272247930988267,0.013688047704839805,-0.466925549123843
-0.22141398437325316,-0.4351503970935328,-0.19640643597873333,-0.1360970144445548,-0.010274488047546085,-0.012475180040391257,0.032633371496480615,-0.41027682456753284
-0.21767789097717227,-0.43563128156941705,-0.20481270548721192,-0.13443469189699242,0.003068383191666209,-0.009586107321040665,0.028876160146271493,-0.41167154806983647
-0.22482119925463276,-0.45369881464818773,-0.20571820734273938,-0.14366412050757976,-0.010824819095559697,-0.01766285063811862,0.03066629928612147,-0.43742963794330314
-0.22200220130946124,-0.4476482541586626,-0.21698734491859703,-0.1531203049729738,-0.010463793459842993,-0.0226861207987333,0.035703195727748424,-0.44407299988588944
-0.2186696386940933,-0.46021684093705406,-0.20757479630616335,-0.1558369024506889,-0.021331470683301285,-0.011267222049705873,0.029628071033651462,-0.47138449885479017
-0.22183761635311025,-0.43844007499673143,-0.20422893429849176,-0.14248848587576843,-0.0021608833245007047,0.0012376106225602606,0.051828692942147085,-0.4172334080949182
-0.2184713640045742,-0.43217981292666463,-0.20528383671132522,-0.13772635805144406,-0.00799763715535675,-0.012685819208660989,0.048438332240015626,-0.42194740356391486
-0.2260043887601662,-0.4449383357529132,-0.21472685558928198,-0.13765320966966457,-0.00589610822650874,-0.016373515056152785,0.024298864684287283,-0.4422727411831002
-0.21877858279741869,-0.4469528648262162,-0.20839033738745752,-0.15257154843958642,-0.013383591189966185,-0.016496676281693108,0.032233824270188276,-0.4594551618667486
-0.21260032524665856,-0.44757100472530126,-0.2028784263928466,-0.14985022422955066,-0.010357768703428912,-0.007978688509760848,0.03850161279616402,-0.4606514975277302
-0.20774258431986264,-0.41783300541528545,-0.18863455013164884,-0.13400330100624774,-0.0011483975754706611,-0.006721268708723628,0.0481986120079978,-0.42671075804706887
-0.21353840646256847,-0.41970694471287745,-0.19801233101096463,-0.1205444372947943,-0.006007880594018301,-0.011336399642626257,0.04219042368195376,-0.43388262027490954
-0.2127253962887655,-0.41124105325262045,-0.19505626606613163,-0.13479131907728747,-0.00161770684507747,-0.015335370961664669,0.039141561211837504,-0.4234442570839473
-0.2023058174561364,-0.41861510037851946,-0.2027686849025948,-0.12876898764656014,0.0018722999148531746,-0.016196943557928854,0.047079131216912165,-0.4766858442616557
-0.2099530175320717,-0.4104036478619601,-0.17928306653280207,-0.12071703164859775,-0.004690630793621464,0.006978415276323897,0.025868506754533126,-0.45171457660175324
-0.19896976205010025,-0.3878467768604419,-0.16223657589012383,-0.10748464593668144,0.01739105022410961,0.004966786100863896,0.023043634496055957,-0.3837545473997833
-0.2048151325298229,-0.38993109225145456,-0.17869097063739203,-0.11716175689202402,-0.007164722166607157,-0.008564045645573795,0.03719744139113791,-0.41179350246411217
-0.19916679150223351,-0.38457433359285215,-0.17529292468443286,-0.13273968353513363,0.0017081543561019402,-0.007803588211174329,0.015184816472468998,-0.43334878790070797
-0.197422076789265,-0.3880872459565615,-0.18278070100800436,-0.1433163882167119,-0.0025071472675297266,-0.006627425443733912,0.03540189197577976,-0.4358738880833512
-0.20337604692825026,-0.4209254412662444,-0.1846131025138549,-0.13350053419986999,3.496033042606818E-4,-0.009743546723356516,0.028801947690740525,-0.4539549533995854
-0.20643620860647452,-0.4024467017383927,-0.1867627951859315,-0.13493372327053046,0.008349317105687072,-0.00581898539527607,0.04330204773009748,-0.4073395164910419
-0.20738419950006556,-0.39774472338957845,-0.19806775660747775,-0.13723157576119022,-0.002877775398070218,-0.008863438623902155,0.026004038202582985,-0.42352507490306696
-0.20755461756121263,-0.41050595531817846,-0.2024167669215302,-0.14284218898127743,0.005354811460264464,-0.013180789736121702,0.02084867701779132,-0.4558371682257293
-0.20214290163938792,-0.42648899551554176,-0.19885618111013126,-0.15202189745455882,0.006448782571268321,-0.007181595201256439,0.014697667224160497,-0.4373159936050208
-0.20341450471802966,-0.40626906702617643,-0.19974486884812723,-0.14185230229187795,0.004508975115739459,-7.950073079389298E-4,0.026017528477789802,-0.4024012650277901
-0.2087275844265432,-0.4066493338347184,-0.2002807814216951,-0.15674544045964872,0.007744077039274711,-0.01854324707793926,0.04642440224866629,-0.41558224640465746
-0.2054375538895543,-0.40428562744532265,-0.20156568245483356,-0.14253259935180007,0.0021578136211832352,-0.016771704670020215,0.019939120143947654,-0.44330660391921345
-0.188784676993735,-0.39183309727710397,-0.19146391046142477,-0.1497405925320612,0.012121865744752505,-0.027657218392359368,0.01886415750946812,-0.43449937811540734
-0.19855049300689193,-0.3871645436193369,-0.18845461840384667,-0.15178300228527256,0.014268926587202427,-0.004868762218229553,0.035987743065990674,-0.38951264391548185
-0.19489656820408108,-0.3954424569274922,-0.20040363665531025,-0.12934283284905185,0.0064781652012050345,-0.006099547574637376,0.01344744243662124,-0.4090435781522208
-0.19710870636872832,-0.39081603286219285,-0.19911508785259927,-0.15191916333155464,0.008566730087944625,-0.01481641783263689,0.01467784709157381,-0.41935566195137003
-0.20623505292084127,-0.411159673514554,-0.19802019656407985,-0.14540845609515643,-0.003879010398719006,-0.024723211908184294,0.005117353298889279,-0.4471299246336351
-0.1957079107437028,-0.37967719688238244,-0.19773775393904522,-0.14336443008147473,0.01014804177225885,-0.00800886838003817,0.012566763035688785,-0.3993544183484439
-0.20094296446215817,-0.38903993058518116,-0.20254056917405622,-0.1632874857937892,0.006522022810738178,-0.02044610141025654,0.01322006091404205,-0.4056909066889242
-0.20010117573933642,-0.3847483441365243,-0.19992584017212192,-0.15010954232159127,0.008597584659526517,-0.03469903258594792,0.00522629702369323,-0.4092340337896169
-0.1961620494858559,-0.3949166880999782,-0.20113059268704828,-0.16409251250470938,0.00874642911674846,-0.03527501532996169,-0.005016379350740075,-0.4391478304304935
-0.19935659849372653,-0.39536870912351935,-0.1948551985896481,-0.16084622544787364,7.216721215038514E-4,-0.023398493355505316,-0.001422684970835981,-0.45881389147012297
-0.20503854173808378,-0.39785488903393834,-0.2090457229655848,-0.1714866546426551,0.00955044131447058,-0.02495592382434666,0.008448270923893027,-0.420652211730116
-0.20827697925133368,-0.39433739641758847,-0.21528971557768356,-0.17099776817895207,0.009362394109193872,-0.027341001032318707,0.012570871229876488,-0.42471425402941065
-0.19791527126808,-0.3924918436938753,-0.21336818938183938,-0.17397825881418177,0.0127692078411155,-0.029400374364059796,2.943604764241979E-5,-0.43656586175572276
-0.18916188794481226,-0.3924230390393299,-0.210221844413892,-0.17285694425085427,-0.003220385573929393,-0.037545060665874104,-0.008631274214309603,-0.45577158410299334
-0.1998547812855546,-0.39186713240537135,-0.2081898739854321,-0.16619541133370366,0.0033428684009385954,-0.02772896724639174,3.469525805053651E-5,-0.43619819663513953
-0.19634971291004508,-0.38411328885329304,-0.22196541108642828,-0.1736989896436626,0.016016368457085525,-0.032080660079423846,-0.015318994946462794,-0.4082247619164445
-0.19138500965948835,-0.38929443554939125,-0.22159745061987682,-0.17916926678438966,0.007897517734293182,-0.030953218556388974,-6.965950551612722E-4,-0.4012074890123226
-0.19045393860331364,-0.3973295027645888,-0.21655928703861688,-0.18204504814139844,0.015084207436665152,-0.03476992910504625,-0.015197795931375956,-0.4143771933285043
-0.18842886203641968,-0.40649108530793276,-0.21481398450427672,-0.17708650804120493,0.006462568457173158,-0.030283461684429067,-0.002725376096142579,-0.42069527378479016
-0.17667535882480903,-0.3479845549240825,-0.18824809184763383,-0.12651569761763098,0.039590391181940195,0.005026143822995626,0.020248856047157766,-0.29584423583932346
-0.1766925738996542,-0.33718609170900915,-0.18531969246182667,-0.1427598573199607,0.026537467480178222,-0.024884644635159277,-0.0296895463260173,-0.3328620240485808
-0.17765511772399017,-0.35024202003240046,-0.19378840935111483,-0.1541883805402003,0.009034198191496324,-0.03150528864366451,-0.012668965162414683,-0.3765725148835357
-0.1791076641929675,-0.345542379001982,-0.1910412631854424,-0.15316214766602831,0.009494936866079398,-0.05847610471809279,-0.029285848102956674,-0.42036767519598695
-0.17682386051141885,-0.3350039251563766,-0.18751638884600108,-0.14621449549088986,0.02349353023536946,-0.045887054930853946,-0.01571424858981047,-0.3779760203710618
-0.18107272475093356,-0.33944419268007414,-0.1830805084716163,-0.14364450135836537,0.013299711315976308,-0.056795547600338746,-0.029242212388616438,-0.3821461016574907
-0.17849570520552221,-0.3462031553862061,-0.1758332337336172,-0.1402136758153117,0.010397626715044609,-0.047599738847158714,-0.03870372213044158,-0.42836804370330867
-0.20002989564627507,-0.4140733625909635,-0.2343925346817679,-0.19833885521265537,0.00138313600202593,-0.04643586375043408,-0.04053024968526806,-0.4381149022174445
-0.18915548032621218,-0.40849218041152496,-0.24563801987626077,-0.205125443562531,0.005030977086656539,-0.04239380770643732,-0.025733164845972985,-0.39000927698057974
-0.1963511222434001,-0.39841734406860213,-0.2281744759575353,-0.19113019313990912,0.009557441297620296,-0.04629253769279846,-0.038089299904245665,-0.38632208354653336
-0.18635722306209587,-0.37535980888709775,-0.22158797042824976,-0.17749207075347964,7.226589609790676E-4,-0.04954592232322599,-0.05641868485663337,-0.3910780928800093
-0.1843217883679007,-0.3869070690584073,-0.21773443395432457,-0.19092511519863803,0.0038152480878380457,-0.048168692625734394,-0.04833596531515531,-0.4291465973297506
-0.18642581085104737,-0.38231318911293816,-0.21255031874821,-0.17140685950106077,0.01022144604057024,-0.03037396087405441,-0.028665561540312957,-0.4036092418897511
-0.19256849581066776,-0.368014383131388,-0.21535136596734172,-0.1596351420450356,0.021606954954819072,-0.04218644826501487,-0.029863626022817592,-0.3719663097434231
-0.18409600483578112,-0.38099252658590327,-0.21316910490620938,-0.1683953188383563,0.0031431253878752884,-0.04756415035757073,-0.03933678389984308,-0.41289248120547156
-0.18738277210384108,-0.3682858077461803,-0.21631576670728528,-0.18200878180817565,-0.00921745769742975,-0.056725776854405725,-0.04144781876043348,-0.4071481702070593
-0.1935726943799945,-0.3879882760156027,-0.21604777000123487,-0.1791665232957054,5.141842465970968E-4,-0.05110736534734433,-0.01986454458367192,-0.40375752048749786
-0.18505631596926564,-0.37138268522481155,-0.2106572270486365,-0.17870627699310962,0.016815611237811886,-0.04214286555007054,-0.015548362091023046,-0.390492084254352
-0.18874961710183868,-0.36846976076005306,-0.21710617054303663,-0.18397734495531454,0.011591199700839376,-0.038909593126381994,-0.011955105598716763,-0.38336797422161345
-0.17924682603766043,-0.38147414158954807,-0.21867341210152938,-0.16720999975139314,0.008991659148777299,-0.04525226448318135,-0.015870128358087276,-0.43498538366251377
-0.18579671732225292,-0.3952003055103259,-0.21860598234931072,-0.1817750024459977,0.0018332209029958547,-0.048568358858100034,-0.0285787693313038,-0.44450758436049476
-0.1841618879151112,-0.37792874279387073,-0.21515917018745032,-0.17565200114057974,0.010515444652826632,-0.033191153126538676,0.012090960900427739,-0.3983491538702515
-0.18362761803491587,-0.3713975556147479,-0.2137535478957865,-0.17618310819186989,0.014281981899933065,-0.03229401685399348,-0.008463245601562806,-0.3875417754263732
-0.18203349567059418,-0.3710853267001342,-0.2088102285540566,-0.16713745502052557,0.007920489830721807,-0.041006083575782136,-0.01944962353885031,-0.4246940188178586
-0.1787624401879839,-0.3723760836946194,-0.21594963435489614,-0.1767789177115135,0.009090085958609299,-0.04812392008334968,-0.019465973706024327,-0.45102846127997426
-0.17801546732468754,-0.37433482363633086,-0.21511839120414733,-0.1657862114583939,-0.0016853906200448594,-0.030238146628300645,0.003915052706114444,-0.43307736370361155
-0.1739302872304032,-0.3726015336249679,-0.20868013448975065,-0.16289024007255176,0.025893209042271288,-0.02716192173409808,0.007952874756441384,-0.4140524085136809
-0.18114585135749176,-0.3778001702646462,-0.21160649018098257,-0.163822369461018,0.015230452894531968,-0.025334363153967223,-0.0061865230887244846,-0.42208490818465616
-0.17023298462610847,-0.3816758263495653,-0.20961093257644103,-0.16890096621255607,0.02106729305442886,-0.011110327443355038,-0.0032991364477213477,-0.4214466863529452
-0.17401382911158758,-0.3925830235186532,-0.20669285101044252,-0.16187530200248645,0.017952495878004092,-0.015175550740413896,-0.004228935678352851,-0.44515433354072215
-0.17646436977798377,-0.3692945452784141,-0.20861711223605103,-0.1561312760567105,0.016699625728388814,-0.01681605327772802,0.01189082179154801,-0.4084507966158673
-0.16963513040559075,-0.37729840006509724,-0.2116293854737184,-0.17125826116581347,0.0155542105351021,-0.013840412167359109,0.004970612477243918,-0.41845675146695854
-0.17455900849365552,-0.3908421813952772,-0.20379139331624535,-0.155293032974383,0.005747700919832793,-0.017115649577912513,0.011003414064453916,-0.41832361756516545
-0.17122843497263296,-0.38622357647354466,-0.20952820634639943,-0.15184363768820747,0.0027365267346893918,-0.01349443425239122,0.011661905743256876,-0.42604722076512364
-0.17561275379701302,-0.3840188691959354,-0.2058492310560805,-0.14640583874956528,0.01004640715569709,-0.005580999101730707,0.033963074075327934,-0.37340301272690296
-0.16907628996716736,-0.3722770604060041,-0.20309588004951667,-0.1515853873363324,0.015609248265225889,0.0034673895405908386,0.03418361572387952,-0.39311445504100384
-0.16833864489253467,-0.3704654325301941,-0.1934082743753724,-0.14417622879579356,0.01167400451078337,-0.005433722271424369,0.034249263786725846,-0.43030006868304016
-0.16940728429685512,-0.371165537513935,-0.188450321667522,-0.1363581842521846,0.0039004285994466287,-0.005924446982610396,0.03324195413565067,-0.43279043519454424
-0.16640546752224974,-0.36400748232655494,-0.18563859660041893,-0.1222594590385184,0.013017986264911727,0.0030656352267247953,0.04799451626318012,-0.3791841576404593
-0.16648392493836667,-0.34930678587033853,-0.1762094717121324,-0.12278896925081809,0.019383754219173936,0.0021210809418149954,0.0414335427046688,-0.3744411953701823
-0.17083878450768827,-0.35399923686727,-0.18668254165988304,-0.14487313581802116,0.017000024052156344,-0.0015187769969462373,0.041075944126553667,-0.3927833275324941
-0.16746567512671892,-0.36052357760070636,-0.1902963022455474,-0.12626744759576827,0.012591552473653721,-0.0060307644167943006,0.041153624944232185,-0.4259378346690095
-0.1666680045832394,-0.3680738472018702,-0.1788066633272746,-0.12237716948349289,0.010973043127434847,-0.004884941266437156,0.03938970076832464,-0.43263340858054905
-0.1712154529369849,-0.3594158932345405,-0.17514326106904687,-0.13410791318932794,0.009975527506135859,0.012396731260375628,0.052152022301540105,-0.37991501033534075
-0.16351398279781199,-0.3504361477295927,-0.1812578922207717,-0.12097188360976133,0.02140061595787688,0.009837900772091776,0.04159229300732181,-0.38097246443048344
-0.17405225474940764,-0.35818728858946564,-0.17489393045519316,-0.11894587316077344,0.007734854497973795,0.007019444850077134,0.04686290939956501,-0.4001291196842958
-0.16585987652640133,-0.36264008692614613,-0.17927926109671924,-0.1131435104672479,0.010355637594887975,-0.004167195675093907,0.030895273833639634,-0.4272662043036045
-0.1671605824481055,-0.37457804063593714,-0.18063347551823364,-0.1263034988490427,-0.00505785455567914,-0.0024427291456001607,0.027444065366963366,-0.4684125367003584
-0.17035464830070363,-0.3708438143947897,-0.17371974540486781,-0.10481568221159851,0.008272825274615871,-0.001250867016456233,0.04482024429661694,-0.4503065578048567
-0.17059031085220802,-0.35711704052945764,-0.17167384842033384,-0.11346325702581289,0.012797559785024839,0.010131071208588,0.05159560090463328,-0.39004149118286374
-0.1708436669635392,-0.35405059877424666,-0.16846620574696022,-0.1200924085927742,0.011212762166798215,0.017523116729908538,0.049235901023778596,-0.40852489525345953
-0.16715200789135212,-0.37565302842402787,-0.17442817303338085,-0.12231036275162202,0.01046135871433044,8.549638823246963E-4,0.04525718204993338,-0.43428199101324944
-0.17407025741543142,-0.37954174423759474,-0.1780027200339423,-0.11427839101504131,-0.002468821341391248,0.004547238788739381,0.040011038816301504,-0.4633787703609121
-0.16853240403226966,-0.3762546761315986,-0.17276674716196952,-0.11041009670225183,-0.0031153468066661286,-0.005758606544079064,0.04039509773781742,-0.4734023335053615
-0.1643004747863834,-0.37159015368423376,-0.1645890870585523,-0.0940173355712325,0.011465534571844986,0.01534292169930082,0.06059040822627749,-0.41982126488180993
-0.16816455557756851,-0.35540792959777967,-0.164855342853743,-0.10627362694852124,0.014334428547804418,0.0133841347298681,0.04840728708952461,-0.4049056715317594
-0.17192129140779158,-0.3671789207140122,-0.17314965519858894,-0.10933944724538243,0.0022269887874285963,-0.001014745381767231,0.05146265013822881,-0.4249870984998192
-0.17544729834941708,-0.3628656956474982,-0.16894387714390782,-0.11692028734472759,-0.008436561987859916,0.006720316053838437,0.04674461978905417,-0.45810550555706503
-0.1704693717035498,-0.3654018491047008,-0.1645618935773756,-0.10024711085241106,-0.0040093405633950955,-7.200475024828695E-5,0.027379958768921426,-0.48160892664726634
-0.1714223754269554,-0.3778345752490244,-0.17279468909928078,-0.11352734646287634,0.0034632805355427126,0.0058541064120923225,0.04864534238291235,-0.4351895956439458
-0.1722968724234794,-0.38596091880448996,-0.17589441777980488,-0.1144852911416326,0.003242692686862672,0.0023392687110158016,0.04590642318326237,-0.4242913411199426
-0.1799513290291459,-0.38871554367538774,-0.17132248378722637,-0.11534090401134595,-0.00727274623311054,0.008508729880687798,0.043524421867687,-0.4456985363383278
-0.16625820070479636,-0.3559542995864621,-0.16305704807503515,-0.1200292678055352,0.002298883606122745,-0.0014027675238164781,0.045968021727970605,-0.4761915128887843
-0.16625393220417356,-0.376726092092271,-0.16815723878727165,-0.10883610646212644,-0.004353042874897835,-0.01389085771490771,0.0251864380967197,-0.4859924844158883
-0.1672397460699195,-0.36163021845175397,-0.15839426235135565,-0.09511060296008451,-3.9714566285393765E-4,0.001560369318381271,0.030460892467198592,-0.45262272073955334
-0.16722883140453695,-0.3524555597973314,-0.1650889626938284,-0.10735033889192153,0.0030816886392051913,0.00906548874745969,0.029103664712891095,-0.4567800813446997
-0.16735981190933089,-0.3731014817356506,-0.162379550997681,-0.09861183564509103,0.009317092203798163,-4.1728456117952854E-4,0.04052840148082895,-0.47176315962131926
-0.16445619060589658,-0.3721929089514877,-0.16859823922854641,-0.10731562637207015,-0.00420663108960321,-0.007636839407515862,0.03369517082623597,-0.5012112832105955
-0.16344212276870723,-0.37155227688099485,-0.16466828810668868,-0.10999806100870632,-0.001387988979741287,-0.006391746087761984,0.036343697843117674,-0.48684558416822155
-0.16474736620371816,-0.352597667837117,-0.16343294837270195,-0.10354765602499141,-0.0010692775390822532,0.0015126828651461177,0.03937163070348213,-0.469364205632697
-0.16651651075770937,-0.35907758379134286,-0.15431119250660022,-0.10050897761291698,-0.008748563379653546,-0.0030356124198656926,0.03548884076905176,-0.48329627300088585
-0.16824354758475304,-0.3615673694331128,-0.16106210080774677,-0.09634775118649219,-0.01255716822888728,-0.0018627444839245883,0.02949008581510012,-0.4922262437467779
-0.17430940061816097,-0.3681273826977899,-0.15404049289559715,-0.0914634954388051,0.01085855960595053,0.0021296562416940486,0.04705914364028697,-0.4862776242696355
-0.16922124717665504,-0.35947256438340847,-0.15726212096996614,-0.10367932027816314,-0.005839582093227639,-0.0071366701879771385,0.05347614642329792,-0.45980127673322113
-0.16829216176574816,-0.3463297232692789,-0.15400376028483032,-0.09694588315463483,0.0033024489222216644,0.010752710212477262,0.024813036221793545,-0.46821577617764415
-0.16066705273560047,-0.3607056848063338,-0.1574967172563668,-0.0996946927729283,0.005212161285618109,7.791754753013826E-4,0.034920353488588185,-0.4796697649145568
-0.1675973634495384,-0.3622193381387801,-0.16274935827139778,-0.10682833548403324,-0.006718057602562925,2.6086875205004E-4,0.04290953369115969,-0.4530579675490256
-0.1728547209616742,-0.3561284711556519,-0.16180301941487776,-0.12553653625032313,0.002591326534166468,0.005968094918034041,0.04848237868233363,-0.44632773870276404
-0.1701830323995609,-0.3682340220067625,-0.16970289599476082,-0.12176495469191076,0.007808309987603239,0.007294853519550098,0.046590020606175675,-0.45724402709765904
-0.17238052632037948,-0.3688979380045185,-0.1768563536653029,-0.11883906110731211,0.006966922154734391,-2.5820250269505783E-5,0.044198638540961545,-0.46500483995320396
-0.17287225179961074,-0.37011478067060694,-0.1716723929178014,-0.12435618792233094,-7.239864214415864E-4,0.006266304136909207,0.05883341356719248,-0.4331724685975079
-0.1710060015059055,-0.35485690302993883,-0.17697278162119764,-0.12165529030160815,0.012174784440955932,0.004022317252835704,0.06074155879620802,-0.4221568612910795
-0.16895070361665676,-0.3712439853392482,-0.1754489136221493,-0.12827228704511304,0.0031242059734833357,-0.002542040651203457,0.03934512507485721,-0.4524335887250597
-0.1751363441249019,-0.3811296677916518,-0.1773476682771029,-0.1388926714254134,0.009828886674823855,5.092203639809993E-4,0.04167990572728416,-0.44800326608162194
-0.17594888367780473,-0.36084862777158233,-0.1801123690244255,-0.13873503942075788,0.014267038619007692,0.0021483328314243627,0.050655607858653695,-0.4158123543496406
-0.17212976427069904,-0.36739143966210563,-0.1911974631905926,-0.1566554212067106,0.014079942291605889,0.009021328480074076,0.05624673322997384,-0.4122281053916091
-0.17390063279880053,-0.3912751421338162,-0.18959600631851872,-0.15380885341615733,-6.932226874445634E-4,0.0016735966422578546,0.03536086003966594,-0.44787132658739626
-0.17759062210801385,-0.3829301289056766,-0.18940869442481975,-0.13505076512272401,0.01657765707436852,0.005903181794856895,0.0455903381013333,-0.43557494027432037
-0.17711757713246837,-0.3681195728547976,-0.18973222986229268,-0.1547913156079305,0.027309902181691714,0.020119126112750418,0.05411537869686298,-0.396233525742376
-0.17467104373498002,-0.37278213328889964,-0.192604219451417,-0.1492126819318965,0.010706342996522697,0.001415537598736975,0.03886075260583342,-0.4047424870301982
-0.1751868889681098,-0.3762185237131179,-0.19113037023909565,-0.16392298165660502,0.0079957504932907,-2.7700696080244937E-4,0.026068477988058777,-0.4038999518344431
-0.1836240341692885,-0.39372448531718607,-0.19397937475732244,-0.15530747862638777,0.016845332325900738,0.01238601061437147,0.05506353006535745,-0.3991377252497833
-0.1877578844841422,-0.38154880384861545,-0.20530707303598297,-0.16471787280715372,0.02244069439320527,0.012332001669605446,0.04722570329020413,-0.37198752306424077
-0.18184819438034416,-0.3961839270418759,-0.2083743292638942,-0.1651315850782561,0.011916409280261433,0.021679483843599884,0.07717106681234946,-0.35976102631399304
-0.18339199613549953,-0.396495877486095,-0.21029712368386733,-0.17107290493544924,0.00943645531172998,0.011189167183499783,0.06116060217412869,-0.40846531452122564
-0.18237888705490313,-0.39165256368791806,-0.2060082099734659,-0.16803489692578005,0.014947290461633683,0.018781896379719876,0.059854783325510995,-0.3905708408997848
-0.1845407289040952,-0.3907377110796065,-0.20166848273366936,-0.16744402055550772,0.02302634661174949,0.027102262358405335,0.06807575416706936,-0.3497110033730156
-0.1738738262049767,-0.3856878866507163,-0.2025651792276993,-0.16132691205903515,0.022951710585049256,0.01865561855526701,0.05287748980867355,-0.3412864406509294
-0.17499993420041962,-0.3864938123796826,-0.2011879063645204,-0.16505448043710358,0.025738676928707807,0.010097494554069626,0.05388302356487901,-0.35620306850249167
-0.18462336560453194,-0.38593567009958235,-0.20455170016851273,-0.1641400389720835,0.023180902351595003,0.01697690900811466,0.054696135824934114,-0.38909263150775664
-0.1849585946600676,-0.3973370397848834,-0.20337156814881677,-0.1603492626363504,0.018819492744334792,0.029919050242207222,0.08539544223965068,-0.374173280560401
-0.17879017168489658,-0.37466484202284656,-0.20944228480522353,-0.16465096014164787,0.03603651405019991,0.03917617827211538,0.08104382586589805,-0.3285172580420799
-0.1782492395896997,-0.3856395574528635,-0.21048350628989126,-0.16889931040556408,0.025540929841670893,0.03123251889585107,0.073291466998252,-0.33663999294027985
-0.18357542223713685,-0.388607010763631,-0.21305973850766843,-0.17341132167528933,0.028334373758615968,0.023186907856232047,0.08064571489853138,-0.3635476826658709
-0.18922987503810723,-0.39952471870452383,-0.2153545541927284,-0.16604590526241908,0.017069860379510304,0.027385788721377424,0.07529515083652448,-0.38259309775984934
-0.18065403145139092,-0.38400148275373247,-0.21815575370104173,-0.1602615675067558,0.030647696085707454,0.036511689434787505,0.08805224303678724,-0.348043531013055
-0.19369694745548396,-0.39146419663723586,-0.2114578306206094,-0.1690895907485509,0.038824542518477216,0.044661232889545675,0.0918323485780643,-0.3294398699237221
-0.18389055745894647,-0.3759199432317427,-0.21796334796079034,-0.1679321555756564,0.03599019490662296,0.040701479106836316,0.10436877551618261,-0.3306449698079309
-0.1792153603508163,-0.40402956366918397,-0.2208998951456307,-0.16958109448565933,0.02754307603895624,0.02382556278846365,0.09242974704240572,-0.3456304515868051
-0.1854545525916214,-0.39778115912370204,-0.2226686059545875,-0.176169749615638,0.029213351828646737,0.0293503709778132,0.09202676344739717,-0.3605697960225068
-0.1934399958702949,-0.39018519431669046,-0.21917940724770124,-0.16911480399936787,0.03356933443638868,0.05942728205824607,0.0977481828672925,-0.30516659959887754
-0.1878625344585691,-0.38734292938816767,-0.21702570771746893,-0.16584332741551114,0.026997955009500897,0.04212389158467061,0.10073185462853648,-0.3161128358862011
-0.19327241309761464,-0.3974857915847122,-0.22371008201071751,-0.1741491605939037,0.0373766392095701,0.042826553606993584,0.08613087266972064,-0.36020577548200833
-0.18709260613393236,-0.4033608470226164,-0.22700348166996406,-0.1749255575520635,0.013556884249019196,0.03213314313192713,0.09593684258404019,-0.3674915654170314
-0.1889455984666042,-0.39988097569166214,-0.22276829869646203,-0.16888737472886112,0.015783428602125643,0.0428875543196646,0.09427530883461462,-0.37549383736749997
-0.19568350563378012,-0.39309538694067186,-0.22569089284400204,-0.17395211465922406,0.032720325178562534,0.04050221838336627,0.10745995030873524,-0.3124533782501361
-0.19427968721056066,-0.39514492147768043,-0.23102520123366255,-0.17736954046068765,0.03117940506200994,0.038338829987480026,0.10159270414322488,-0.34727508438726135
-0.18536887492254317,-0.3979647876165015,-0.24017141557714192,-0.1761894121397493,0.014533634835595942,0.02488805990369047,0.09139997222516201,-0.3602325775605653
-0.18604691577717064,-0.41058721099737766,-0.23566292804663128,-0.18371483626792523,0.0072750995606565,0.024532626370913496,0.09728660617484605,-0.3820130674102912
-0.1892754162784968,-0.4052219169483906,-0.234533017111188,-0.17719651471862366,0.019950338588655414,0.03178154565483447,0.09295756226508406,-0.40145133846607045
-0.1963024618692301,-0.39634193652565525,-0.2412305190492075,-0.17220620418887214,0.016705831938974788,0.03244771152847301,0.10680699487810719,-0.34149293280844367
-0.1934638334524593,-0.409587184855855,-0.23140567116219565,-0.17426535648465727,0.00971559382840424,0.03319296204810704,0.08536889904476751,-0.37208962992634725
-0.19400143167822467,-0.41289855382697765,-0.2422209350762129,-0.17957420239469665,0.010302833504694558,0.02691096374849834,0.07630594363704549,-0.3973046452393804
-0.19715212290472353,-0.4216136743563808,-0.23669263280781902,-0.18588825146409585,0.004638584999100443,0.0180872828135679,0.06846364041920891,-0.4161320568327741
-0.19849908593699003,-0.42258800233834887,-0.23708378943552433,-0.1703334831015589,0.012696005695745628,0.016393229156482832,0.09524893862977879,-0.3885382078398569
-0.20057348579581272,-0.40687119214884515,-0.23695773510594823,-0.18883772238472912,0.006654491421786471,0.02540362972595229,0.08826803123766723,-0.36270770694417986
-0.20065224915849533,-0.40792308238272773,-0.24554600666206025,-0.1860744551314597,0.0058085752365912725,0.031834008665759465,0.06692969293223706,-0.37430648176387843
-0.18900850965455007,-0.42488837080179326,-0.24818837192274837,-0.17745331656195967,0.0013900435372615825,0.016605293192878918,0.06864292564323803,-0.405447960426207
