-0.03126412715048801,0.2122641180834051,-0.036681836754670814,0.13265470551359657,0.29212078157186533,0.2214522689853009,0.1948766380715329,0.28303856517597015
-0.025585182976781078,0.3054609252218814,-0.003228424217605186,0.1310816019148946,0.23908374347918193,0.14897966746968566,0.1763891924825319,0.19429836122135163
-0.06212704294844081,0.23142092843704756,-0.04535869072496927,0.07719575693501542,0.1437942281013451,0.05223810082592455,0.10273334370064892,0.23037950049590913
-0.098827362331237,0.25004308262958624,-0.09545324183330182,0.019738920348634042,0.061817323714363735,0.005899139243328013,0.013827673848116005,0.20612477436218057
-0.06274223160730075,0.29508425070779476,-0.039828498066634334,0.0999427381237317,0.29108926212002595,0.18019393350917481,0.19326792795511824,0.25468636042577514
-0.05887180127535505,0.23848659648906773,-0.02836165288856633,0.10279420737647335,0.23702155528436142,0.15562784726491455,0.12051803020213321,0.23040307758726555
-0.06114972383944196,0.2538868825504566,-0.03015533160133895,0.08257215672456159,0.18379293288855114,0.0999372820604817,0.09368473796001961,0.19771702417684614
-0.11948034293127156,0.2624921577811702,-0.09569128366217106,0.028474268614405374,0.09655457879704808,0.00280738946540431,7.877762909695284E-4,0.2515531502502286
-0.05962017043264435,0.3136278767772535,-0.047060522500588606,0.10627981493857738,0.24197000378492003,0.1612997728748126,0.18164065815709213,0.21202615741988756
-0.06796024071681692,0.25441567208020444,-0.047261989667612525,0.09486564300777964,0.2448562221594495,0.151062969783771,0.1949405964813936,0.22942094045985323
-0.0656867920645491,0.5925298103652938,0.002679451431035457,0.09630441409536347,0.27681210512136234,0.21335356441168593,0.2910571408946079,1.3537325372318838
-0.07286697115333013,0.9561708359835396,-0.005957019128542392,0.050422727852111604,0.29323292048789873,0.23804883040930233,0.2766000940946788,2.406392882840016
-0.05493650948789822,1.0147616479650867,0.06078559527790877,0.1381523738703457,0.5172139648681765,0.3933686976204737,0.47941983701773233,2.475391808347111
-0.04040478876630311,0.9731624741415839,0.0777179157538204,0.16988735407072378,0.5263719540354039,0.44011026300165673,0.487315625961876,2.403890168883162
-0.045329145867981493,0.9751727509133915,0.036012773253273477,0.12866747143204182,0.4408398946648544,0.3651239606398413,0.4162743078095888,2.394027966252587
-0.07833452398895276,0.9560844121566157,-0.012742372266420748,0.043681338788484646,0.3436722645345829,0.27672300960913354,0.3169602201902821,2.429574531600341
-0.051957419849881205,0.9996740627377054,0.05246863136596778,0.13335956687374118,0.46728884760912054,0.35989829547620544,0.46246467412509523,2.3713379930392535
-0.02263687662599391,0.9665218619599255,0.0662571663670295,0.1521297050669796,0.535698120640099,0.4699580832972392,0.5507215606228908,2.3592140099759606
-0.05220920564719767,0.979400340433209,0.04356949164383734,0.1278252274567491,0.44661981167334625,0.4143525188430029,0.44341519731276835,2.316479189175711
-0.08329077098613166,0.9760785700714207,0.008418431848340508,0.08221527580432433,0.37441452508425155,0.30923938095598724,0.33683842814139897,2.267027775793407
-0.058170014193008185,0.9413516852685757,0.02916177583519582,0.12092253784608178,0.4397285678808603,0.386013705892681,0.4141761526081354,2.391059137598596
-0.04272555603253785,0.9675003369663538,0.08498575899435423,0.1466883820875764,0.5528855620587595,0.5092415666315416,0.5396160946440208,2.35808457695139
-0.056942810770203856,1.0024900437853548,0.03638658580572651,0.12232767594374845,0.521242008855175,0.41947269520363367,0.46684989758155154,2.3662231852033875
-0.07165944463067955,1.0539445345910123,0.009448389896042063,0.07853488609002011,0.3716308491470503,0.2990138924815815,0.3802636531077139,2.236501680133236
-0.08476244279357886,1.0208660720300662,-0.02242705374718265,0.06872275196119784,0.35977927151313643,0.3277624127675523,0.34370097384643034,2.317705320501095
-0.025247407924823134,1.0147846962731497,0.06721198563293894,0.12296394078150252,0.523037886030378,0.493433475212121,0.49366495416980216,2.379534920684395
-0.07086992082655179,0.9897550283914995,0.02701500004036247,0.11373146458062858,0.4938896622942891,0.4104691949070975,0.490056884619369,2.4002926427567663
-0.09218489425573641,0.9753706794188142,0.0031808591106778864,0.06341223935662356,0.4053207262626683,0.31278388562651027,0.38150300103669427,2.359751310838746
-0.10108478587507769,0.9445862512727653,-0.05255794915972989,0.03252362248320991,0.3293505822181709,0.31088742102185346,0.3551013732519419,2.3081387681096266
-0.0599158678048343,0.9475439607679585,0.056034182883948486,0.11141355061187964,0.5399080505385504,0.4425139573133276,0.5044281490161302,2.403462533368697
-0.06831931685591916,1.0042263840411212,0.020948881194166147,0.10571060194446892,0.4752363578495631,0.4236769000982165,0.47849938295850386,2.3884586327324318
-0.07239344569968763,1.0382540084171792,-0.02136375747990312,0.08798759107930405,0.40394794229813585,0.3123645360599219,0.4080406046752378,2.3899486606349067
-0.10955619251622965,0.9872395369290824,-0.027060462989647652,-0.0048606421187333765,0.3240631713071914,0.2781487502705848,0.32623479856782067,2.340568554705367
-0.06767562192930353,1.019473809649836,0.017149132177222172,0.0958258921806593,0.5209272728415371,0.4723102330766014,0.5481466783479466,2.3159387253833357
-0.06175964501147746,0.985118864325094,0.00916565913740142,0.11586496959972753,0.49499124452250004,0.40362743064757783,0.4475268437805714,2.3735019791930236
-0.09450766039004348,0.9740069670959605,0.0206876183658549,0.06979862839338823,0.43448409699590573,0.32146818061815036,0.4381732160135634,2.3849042197311556
-0.118653900433988,0.9999656376093212,-0.024100701127181563,0.03646582010293068,0.3295554126675373,0.2542097940165168,0.3209275995148604,2.374015645824279
-0.09109393288607523,0.9938981122082569,0.043926753093073465,0.12940741065597816,0.5302879535738781,0.502736564909007,0.5253084988756496,2.322419980955617
-0.06868505054295364,0.9887509278155634,0.02614917554602086,0.11608636671014122,0.5556325399274853,0.48249047314981713,0.4670792528819402,2.3645624918378405
-0.0893274526012712,0.9967767435240747,0.005673462139661504,0.08952366918034323,0.4489543858761476,0.37207098739954575,0.4600413566210453,2.364375702891059
-0.10833299392103288,0.9754607654949901,-0.034326488819079314,0.02508438096920207,0.33117660002960336,0.28556233016151594,0.339142738869316,2.2533504850011363
-0.08986368006365951,0.978212490925541,0.012585227040543859,0.09264270274875805,0.5050224138644295,0.4403776814512521,0.47041754434024313,2.3233274821711656
-0.06941269329891944,1.0183198172108403,0.039464767278356246,0.14870473863575542,0.5421759210049772,0.4564667025235781,0.5420319530285701,2.333041703741952
-0.055999931454465135,0.9758355187719778,0.04655255599628448,0.12074167895215288,0.4835054984292416,0.39006770647608335,0.47598601088067816,2.302664179469989
-0.09999501298869949,1.0255660593560292,0.025595365449678657,0.059778802457531824,0.3484374797008189,0.30196641844154676,0.3191039327296123,2.2849665620587274
-0.07888208012107706,1.0152952756541453,0.027098694525669074,0.08041338340155434,0.49777366859401223,0.4167838819034157,0.5033371477091229,2.3095117580986884
-0.048959740083923856,0.999396933248784,0.0695276262280293,0.1381749809461558,0.510789374761316,0.44417699774069247,0.5345085733217964,2.3743913591105805
-0.08116236315403105,0.974992648006586,0.027656462340458182,0.11202609832898727,0.46701529331000324,0.4183574539901539,0.4747701027424673,2.3661353590876066
-0.11030134090875929,0.9398343299507258,-0.035476878489670294,0.047028653695055656,0.3647755093693226,0.31681084916229485,0.38434303569149014,2.375500885022478
-0.08127015197596692,0.990691801848907,0.04411621803550545,0.12491619426883398,0.5372060180164622,0.48822784170400535,0.5716519620455557,2.3554340332229433
-0.07531588477508556,0.9940307341264902,0.05781345249521411,0.14672462053318197,0.5605443671212634,0.4810280951400665,0.5594920718101221,2.3503099324274075
-0.07333802234289577,1.005282133191891,0.02966614132463054,0.10557790909042648,0.4682070412082917,0.41773488817324184,0.5079256775690946,2.2688197495546345
-0.10068447725699142,1.0010052997574628,-0.0038370130060505336,0.06094134419385255,0.3621023561685303,0.32816163963512024,0.40082791957221586,2.3100967354286595
-0.09385207995652486,0.957225604626352,0.057050500844924204,0.1272953024591819,0.5552493352148349,0.5092212662773419,0.5516073477131475,2.318368384516386
-0.056828552021409746,0.9977029876920739,0.07149199826468883,0.1930203733994608,0.5840615367110761,0.5403488590637895,0.6226645849558489,2.318397899050926
-0.054414249186550606,0.9690823471344351,0.04612301415118412,0.1402913353511361,0.5040091820675443,0.47366753672716944,0.5446911285869597,2.3247919987671257
-0.08795307302583408,0.9958188869156385,0.015115825744087244,0.08815223402896195,0.3906517220766488,0.359439634084799,0.4577248903200092,2.3121254437213077
-0.06180976558329021,1.0216334355679444,0.027614112533151748,0.13428844636325596,0.5509326003032611,0.5158205206864586,0.6197940512875738,2.38498665713369
-0.0482363920696833,0.9955004972866675,0.09406213429051183,0.20670679799856165,0.6244622228907307,0.5938954471809579,0.6471593423649584,2.268068598505384
-0.06273304864533609,1.0021557101574472,0.07633952749686794,0.16078996165680962,0.5334373122712164,0.5198780099827519,0.5741485849869631,2.4088582063155424
-0.08316560530496311,0.9582318531296065,0.013635182095403132,0.10635382013011935,0.42401430647619964,0.37964109702472265,0.5217116413550381,2.41479218442714
-0.06298136354126353,0.9996332103199752,0.056443300056235234,0.1640207701896348,0.5417135348102721,0.5321586330015072,0.6247674800298733,2.365000508901406
-0.053574134529371376,0.972356048559547,0.07654076489763602,0.20390379148744514,0.6298532833894872,0.5857503346021012,0.6766472192699232,2.3109146871172777
-0.07325222975262212,1.0151734570102202,0.05294021102734712,0.15296316501772053,0.5239283199430811,0.4900162717628834,0.5989691597930911,2.316503478891848
-0.10874228281802771,0.9731362338864292,-1.2898119823935166E-4,0.1227571711611651,0.4274911588072344,0.4092961062661845,0.5112682325484593,2.3638719265275387
-0.06709422287949508,0.9755947530539574,0.043921379925977,0.1346953794131821,0.5490899730724778,0.5485321993655728,0.6363305585590349,2.2746997218599883
-0.03674184222084193,0.9561432406715037,0.07784141630939785,0.19307181623487257,0.6358673759409589,0.5932654476751913,0.704958549791696,2.4061752604264526
-0.07582888255468484,0.9518107090470236,0.06136087699258862,0.14700560679070834,0.5808215365185193,0.5218960784109398,0.6248567049511309,2.2754115176556007
-0.10335537879749035,0.9655685212325072,-0.021835127818337012,0.08995208472596852,0.4406584376013645,0.4292965645963022,0.48949764737997287,2.290418062534712
-0.10118989235816446,0.9887200043921787,0.021121636451919515,0.07358736737042926,0.5067200125542703,0.4571917852005566,0.5604691306633184,2.265071395295658
-0.05804450231440064,0.9833826559651233,0.07586649531747765,0.17389532984256464,0.62176260713138,0.6489669132403733,0.705966984105532,2.2811403629289853
-0.061563866263232264,0.9846036007859699,0.06297020273085806,0.1311662153482945,0.5727959403595021,0.5661677881287338,0.6552554621969454,2.2999650987035025
-0.10598627350979026,0.9392425509108107,0.01907385377754677,0.10572054651092681,0.47258994195836346,0.494791941114779,0.5784372791641708,2.3689214338083557
-0.11682806909270185,0.9810799923570442,-0.019638222378521263,0.045215697297403656,0.38597535047851844,0.38221756943548857,0.48978456261877623,2.3945732286350165
-0.09392033461719361,0.9623691927500712,0.026832836924844613,0.1391332651797984,0.6304799795883161,0.5957780264449096,0.6734362372533134,2.4040394897679813
-0.06794234981964632,0.9999197938954758,0.04232493001072318,0.12515022387734762,0.594697203848949,0.5824767260376901,0.6823753351957617,2.367233133834286
-0.09558253804667809,1.009766069799577,0.0017179185285846302,0.08398561155750528,0.543739672682991,0.5083606654372768,0.5794134764711352,2.350846192398287
-0.12988460067415208,1.018316657333943,-0.0359766520119374,0.03203607942176297,0.4101165265453226,0.38396173914730586,0.4783999124132451,2.2869963930328296
-0.10627363698781818,0.9892750502703453,-8.944124058508139E-4,0.045215263364641635,0.4978857597061798,0.4505032954718103,0.5472372517740737,2.3202767352901112
-0.08612148993848154,0.9705431964296298,0.017267858454332145,0.09602598184975279,0.576651281234185,0.5785146047511509,0.6462181642133811,2.270184470830192
-0.10624444537909235,0.948325654543902,-0.013503693245037052,0.07569464168018193,0.5361277658864978,0.4937426916560488,0.586462859848095,2.376156762793093
-0.12134458710209879,0.902394736816905,-0.016222328636749002,0.021343253947949004,0.41645538537461374,0.40029459940260315,0.45906563501674746,2.279091794934401
-0.13097077787166647,0.9486573514202141,-0.05911210075792092,0.01128699106842717,0.4041858269779782,0.4186438054958609,0.46374069018245123,2.3664627547983996
-0.10815969784105242,0.9943201024041936,-0.003444312559922067,0.07365633808491587,0.6119196779153381,0.565779924178407,0.620259664468639,2.35115103870952
-0.10661095687627754,0.9421392437909373,-0.005625654376668911,0.10220147587847962,0.534787161203051,0.515581090990103,0.5594261306332772,2.278511492647091
-0.13448653711348485,0.9586467778221966,-0.02865412893005229,0.02919284367303335,0.44883875580800275,0.39853181364088663,0.5180339097797074,2.3148359344449583
-0.13020324377101383,0.9587988865571997,-0.06593182752797858,-0.025868426456601458,0.38007513515514785,0.3470873257900186,0.40876934345092564,2.3423757626322295
-0.08329804243278432,1.014460373894047,-0.03072613047878894,0.07602294858390891,0.5857474129120024,0.5332484255928972,0.6072951485274717,2.2689587682636225
-0.07486326880215936,0.9752632583343187,-0.006797293574738515,0.06295514472243795,0.5792237356610814,0.5319222312289964,0.589834452434249,2.2864927244611053
-0.12607519907781328,0.9381691219139858,-0.040652148996411626,0.03200207171951867,0.47677858787438593,0.4430319847936535,0.5242585021682725,2.3225283311897944
-0.14600381729622058,0.9786678429293437,-0.07832378302295682,-0.024895172308359553,0.3759159098094505,0.3516098048179236,0.4019687119644593,2.2924228180495843
-0.11607952178733437,1.0118934748588,-0.0564694146258166,0.002651165805668429,0.4794906973307948,0.48404336734896486,0.5410823663970467,2.3096182641904366
-0.12141782915690273,1.0267891292019573,-0.02312767588617431,0.0499317058277228,0.5574066182008882,0.48454084722063767,0.5940762127066728,2.3358762937089046
-0.1281177166080489,0.9329788539709944,-0.08070751013585176,0.013296429894775138,0.4753984557156581,0.451413698376501,0.5061577274074626,2.295400034055356
-0.1502334710847287,0.9764827380626803,-0.07998197766620314,-0.022602407384308087,0.3818360216364456,0.3312217192668395,0.4573861192354345,2.290848158581025
-0.12086193446772324,0.9432204293087155,-0.05598564330191587,0.02424517649630575,0.4966210137012401,0.4526918341508401,0.46650334516521963,2.2989197409365003
-0.1154685931529174,1.0107042141431397,-0.03971586002333877,0.017007056826469264,0.542656619998451,0.5020666342289792,0.576283631275834,2.3446072725460385
-0.11309660506361749,0.9706017818654897,-0.06447680999331988,-0.02091613752931386,0.47731349501087345,0.411885366114038,0.5110070361162353,2.2800297945628687
-0.16737642857253612,0.9353000418856999,-0.11777207871807778,-0.0583680046283826,0.342997317674035,0.2887592677627307,0.3768324486194593,2.274397764919969
-0.14383982689050423,0.9982900150604764,-0.06811521559142424,-0.030369299985442515,0.49519560943092916,0.4184172546545027,0.5076958134980196,2.2362176175744835
-0.13374984110569382,0.9696430080311635,-0.05244836572935504,0.025101472178458203,0.5479098346202115,0.4995463152338923,0.5692891548891607,2.4093618766778166
-0.1214013557099966,0.9860136150020411,-0.07059722236775094,-0.010416319553162424,0.5077827249227362,0.43835124023063904,0.5263034730065314,2.277671022571119
-0.16691962455381384,0.987269670804511,-0.11667599258509695,-0.06889592717949918,0.38952921790903877,0.32333502807101916,0.42948158856197927,2.2229834353341245
-0.13377237547578613,1.013261064383944,-0.09257906472691747,-3.739949351230408E-4,0.538444032270359,0.484822279637604,0.5083885403910074,2.3313407708100624
-0.11296013839431811,1.0050187696004758,-0.04014590151963509,0.03475997616925241,0.579920435651109,0.533717946313365,0.6132570191596896,2.310444510409642
-0.11507154635852002,1.0089573503279357,-0.07592970480575012,0.015526164208417782,0.5704147099131812,0.48106147933512233,0.4976730090326882,2.3820200058745
-0.1753342597513314,1.0160959478747376,-0.12519689405415585,-0.04110501642414111,0.41437467972928904,0.38990985467954614,0.4164873957397748,2.3625671108353066
-0.13647350749490517,0.9855178333737074,-0.0920692946915589,-7.178924714184851E-4,0.49507589769443894,0.4781489913737036,0.5450679022551832,2.24009757898099
-0.12645451950043074,0.9695681808812763,-0.03635770157157714,0.051589178250292904,0.6026134531426053,0.5293650685325382,0.6275022437981217,2.362645723497742
-0.11787107680927833,0.9988627637636032,-0.024638201855355195,-0.014299170144906819,0.5483473113987343,0.4813729875306493,0.5369425440909669,2.305158955122829
-0.15125791577779532,0.9730753680840042,-0.0833023930748132,-0.033290275807986845,0.44545657067352484,0.39804484363085385,0.4678160455463636,2.3435079160974013
-0.1283352386196215,0.9721805531305108,-0.06891970909795293,0.0016094037363691362,0.5303772306664508,0.4791683438865382,0.5345410457992109,2.235813059978339
-0.12255607340220079,0.9575348937275872,-0.039445918521538136,0.04624024067903511,0.5953366556745607,0.5682230770067642,0.637874126887228,2.3516897771029823
-0.1341486765479663,0.9697782290495147,-0.05341025389313231,0.036356315368270345,0.5391062739477472,0.5088425115214341,0.5525994268950777,2.3557568745975215
-0.14695647006913642,1.006967987739446,-0.0709918733972769,-0.009935695007512556,0.47868488898898265,0.3966983013326658,0.4654372897810971,2.2792800968093396
-0.13833471805133157,0.9846332618100427,-0.047210300397033035,0.014996929988029031,0.5680593673195631,0.5013975899449601,0.5661846132155403,2.3038569946698835
-0.12371957382417455,0.9845053412257381,-0.038072572869281084,0.07653245859356353,0.6611824948080405,0.5568059655048586,0.6367104001935407,2.386872968636569
-0.12765809703176856,1.0071267689647916,-0.030144184359014444,0.04913025711623361,0.5378672392148549,0.5014457594386705,0.6079854242578887,2.2761997409636874
-0.15609737591532405,0.9634768534952866,-0.07773721437326879,-0.015091579524375204,0.47024925240072646,0.42344637495471504,0.44488420236186066,2.33889737739369
-0.14586008916787474,1.0083106095785428,-0.06364228795666044,0.039199515146550935,0.5455632819998291,0.4608765135270952,0.5635097450734129,2.3322582214804726
-0.12196288281039462,1.0023129427379842,-0.018691216616825837,0.08593561983460245,0.7038000095922522,0.6451787853146228,0.7109658420628278,2.375202670552453
-0.1331969173971258,0.966308734586471,-0.010110272951674083,0.09052151382139978,0.5957216186039734,0.5842373979404878,0.6237393200015897,2.3357482298543353
-0.1507873860212324,1.0073697989576897,-0.06797031205757027,0.017501542709218252,0.5485970168355017,0.4725240278406208,0.514469964552445,2.2926309554184536
-0.14968974327834006,1.0174897069487798,-0.07068528438715907,9.442097213999606E-4,0.5117791635232896,0.45760063811942386,0.5183868322871065,2.311718495548981
-0.11748724012366521,1.0371483764421843,-0.021127298111013326,0.08604772718355057,0.725607816299427,0.6581288388232259,0.6972075561578692,2.367724211785788
-0.11099699000526761,0.9806420666520778,-0.010371462805746932,0.08027791579314772,0.6388754371406388,0.5927419796720571,0.6523205765548007,2.4137473928345528
-0.14706508675440957,0.9773917353660171,-0.047093040447875864,0.04209084684965184,0.5625165728461222,0.48944267079231535,0.5764124769077369,2.347424212128652
-0.16926112340865856,0.9535403363882201,-0.08226086634771779,0.021375406767992853,0.4813284841264732,0.41764579434776133,0.4935953807366783,2.344133624195475
-0.12258188795494074,0.9872699611639579,-0.015546091095276184,0.08067844589360207,0.6995523400213016,0.6300224405290528,0.6992212926039328,2.338256871958105
-0.1287771271023471,0.963567067662117,-0.013933754084450384,0.10302041995297886,0.6655554268150454,0.6082319777285987,0.6861134719092695,2.353281239203312
-0.15324854166945723,0.9676908217759105,-0.022268613468536223,0.05213986507558203,0.57712598834352,0.5253056433169657,0.6082690923550289,2.277602175885561
-0.16013883020817243,0.9815993254778806,-0.07355114665837909,0.036651629268117825,0.4583801694549744,0.4224922531366381,0.4503082565969274,2.276326718545014
-0.13377874122017577,1.0055009861504904,-0.025018961247448374,0.08294791468664998,0.6311649018813158,0.5884568409986051,0.6544735727267846,2.2903241185508385
-0.14247950966169592,0.9855714460173852,-0.017634099784685112,0.09234838207843195,0.6547793017938128,0.5959174226192469,0.6952718203696491,2.2498215371956927
-0.15721890890454704,0.951510076871582,-0.030638583576062715,0.045415187996430656,0.557686028061629,0.48478389994782567,0.5667521109006021,2.3352297431292093
-0.16718929648406938,0.9808266056400566,-0.07063552448839897,0.03607615580994758,0.4529877734118554,0.3979081248657113,0.43300063666041816,2.3359378832277833
-0.16774508045139952,1.013570532667865,-0.010765412436462387,0.039182217536750164,0.4910527391689945,0.4515864529992273,0.5057325694521237,2.3161107596241486
-0.1303591007656591,0.955434309411142,0.01476450666954045,0.13339080958324226,0.7083205194749306,0.5919780902347865,0.7132646077137886,2.293442448795461
-0.11555467377684342,1.002604828441355,0.043686594052417066,0.11144398449436316,0.5905056660721989,0.5906274691658961,0.626074833269729,2.2488355997287277
-0.16096594095573669,0.9453533231671116,-0.006151123987970539,0.08837568526391636,0.5060089512142893,0.4815831143226658,0.5145897117126748,2.2316294493474067
-0.19029338031733953,0.9792652549173734,-0.04339742658753312,0.009898846805974554,0.4308018933078375,0.3638223074653597,0.38591397732522714,2.2408794751603835
-0.17841097016142118,0.9842490974506609,-0.0573864751077178,0.03532618706534767,0.5069234527412053,0.4696074861960648,0.5179369059486861,2.226451340162906
-0.12729258158678436,0.9753110518329561,0.015280503206859228,0.08297527096636155,0.6433976997338536,0.5620574909500138,0.6316098835545968,2.2990031621498144
-0.13667931663136704,1.020981996544501,-0.005241006291621296,0.10813316529227086,0.5456395347286512,0.5316208311386961,0.5792154356198991,2.2931829336120053
-0.17879175662967595,0.9898661205820954,-0.049758574746548496,0.046548045040631585,0.43538506549265643,0.4011064540930913,0.44146256114567856,2.2911417063073
-0.21490491724797783,1.0029883364951835,-0.07265384485998493,-0.03469714544844156,0.3536243296334672,0.3082517054127127,0.3798558538630648,2.2127877228472754
-0.17301547944577567,1.0055585111969525,-0.031141981225144687,-0.007925197984517397,0.46038796269396576,0.4301998726929604,0.5254371064724987,2.2162388889745945
-0.15816550948535837,1.0010107739124974,-0.022882225793523957,0.06206493687085454,0.5386607094416739,0.481885458151585,0.5413860605164049,2.345524199099817
-0.1678087145172211,0.9929915852114227,-0.0334321323274517,0.03770252606407784,0.4995002812124719,0.4463934892594802,0.500729755579131,2.24769676139283
-0.1936281003373307,0.9958297676193019,-0.058987286370137365,-0.014859027144971329,0.3874418325382961,0.3561707204670149,0.37300314872999707,2.2805965560530885
-0.20522641889288454,0.9905060066036656,-0.1258030116180119,-0.07733233808004043,0.3001493969685202,0.272242806435097,0.3160592269731289,2.2615509703580274
-0.18256944773604536,1.0055603379807376,-0.06191590781505007,0.010356072362538356,0.5052120005280912,0.46509676150435514,0.5018837384677292,2.300978795952711
-0.18170844939949085,1.0193874867822614,-0.0802812328074847,-0.020611052440696477,0.5144484926714792,0.456747742174745,0.4903164207085982,2.362144490399802
-0.16541454569366934,1.0312187515172373,-0.0885533971974111,-0.04657443790272937,0.3958028621736767,0.34666668504640474,0.4066644516116308,2.232531220519835
-0.22647879342207078,0.9707703753750333,-0.1383736065613778,-0.11243597483026126,0.34463078533329816,0.2562036124942762,0.28382344473915894,2.3010297669391395
-0.24215985661427683,0.9699461599190504,-0.17107098669367177,-0.16192690730761894,0.2685542218870544,0.17787454577724696,0.21010377506405953,2.271038451109143
-0.18168334772695877,1.0226176292058327,-0.08676236314902123,-0.04385964033129313,0.47796743615518583,0.404059543769627,0.4449967554135575,2.22183374418198
-0.19510189059583868,0.9947963284771361,-0.08694713816158889,-0.06582436557676641,0.4350977665359409,0.39494032051384453,0.44636783708725425,2.21093232805183
-0.19880251380712927,0.9830605970770891,-0.1446978182600395,-0.08359863321681962,0.40772411928590324,0.3036787814960142,0.3817687235732306,2.1249206322275365
-0.2147808043789267,1.0151027117797893,-0.16182274214073095,-0.15324100483468744,0.26474567162902984,0.19286076476382566,0.2759931553334214,2.25572340854641
-0.23686705667540073,1.0205284760445827,-0.1904618818117977,-0.18998780890666925,0.25910456283904043,0.18213489376254988,0.1862493371817738,2.1737668938645385
-0.1953690894740873,0.9987895590486329,-0.12081166903194085,-0.08365035541249799,0.45513941535497837,0.3802688538891855,0.41908584547676947,2.18749388411761
-0.19173917283096736,1.0258169376186888,-0.13100199261797932,-0.1120447070682369,0.4451839005468798,0.3039316063491609,0.34339178650618346,2.261058062541408
-0.21489412634742608,1.0464027417577673,-0.14716607595414022,-0.16470776403046233,0.31457598872969317,0.23555953645701874,0.27575185239855626,2.2541057045164057
-0.2512881710890757,1.0238724933537178,-0.18936927239751272,-0.20668073577292667,0.20275443215877514,0.11701684814524324,0.13567004859163861,2.1258378260405406
-0.22760605993088345,1.0224789368405118,-0.16639584293090848,-0.16769019848818476,0.3271730504169025,0.1943627562403084,0.2162162850784123,2.1905381476732644
-0.19885935145356465,1.0397632006043884,-0.17251020126149721,-0.1373635896488376,0.40486581153624357,0.2727091353311311,0.31162516668151874,2.202182935450886
-0.21468996112700844,1.0146283773840414,-0.1565887418723154,-0.17178032541088714,0.32703797538600354,0.23139983984113696,0.2857926834838756,2.275698650891074
-0.2369381417174422,0.9688414189788704,-0.22994428642871517,-0.20558041956975565,0.22117198825223167,0.14629188872355073,0.18448980389918554,2.207615767102099
-0.24637499524227394,0.9938828528384078,-0.23609889568813816,-0.22951125071206377,0.234884096628196,0.09593192462080032,0.13448120698437258,2.15040422419511
-0.23605503212569492,1.007017278198545,-0.1787906211079609,-0.17524147765160064,0.3615525813847326,0.266156432279321,0.3120280268027315,2.173572838198132
-0.2311814214264953,1.0210490344328855,-0.18597579121281974,-0.1893397927267622,0.315029573753556,0.21976806499679494,0.26422609669106456,2.1072304387343572
-0.2469918158452941,0.9534902478157463,-0.22251385938579618,-0.22722297174326467,0.21393170661204627,0.12726499460022342,0.14066722713079768,2.1484971312625682
-0.2917843909123865,1.0051959643598474,-0.2729124818233682,-0.29298074249993683,0.16718940298092108,0.02608290104470935,0.09956388566970174,2.153670909562576
-0.2400598941353637,1.0036824018216806,-0.16599150293600107,-0.19456614965000077,0.3711651010527358,0.23331952847542595,0.26868876032842404,2.2266798372970813
-0.23403054934378287,1.0071648879388233,-0.1794181493288526,-0.16612186580676103,0.37008463883371706,0.24765678546004205,0.2900898393968596,2.1830151977490813
-0.2811782685990126,0.9819003953945173,-0.2250662389500723,-0.19562491839402682,0.3035418651899892,0.1762300015236879,0.22395236987453476,2.190370886821257
-0.263745093666471,0.9556898846953814,-0.2669886743478992,-0.24552516033067148,0.17978036078117537,0.10380874689208587,0.1247722921818807,2.2489077848880887
-0.2793362850487811,0.9588390436332987,-0.22184068147197836,-0.19933452010425753,0.26910991525500144,0.155304024491861,0.2113804995706683,2.155728506319543
-0.23713955394343442,0.9886396001737471,-0.19707731719314558,-0.1656687157426279,0.34053834494653384,0.24363711864461993,0.2830280965142206,2.200358045086776
-0.2851427098894129,0.9697110440660632,-0.2094445236858457,-0.18934908190578742,0.2865349104698106,0.1917329268260108,0.2414616960590765,2.250056376073887
-0.28718686818638134,0.9342126511523048,-0.2500869043008334,-0.241761235179994,0.19622164060058583,0.08554794470073171,0.13346499186654248,2.238390435533941
-0.2868612633691148,0.9682167973619817,-0.27755998638214974,-0.2760591513591519,0.190401288487779,0.0765957306119709,0.11346776744095141,2.227995922610806
-0.26456359368464955,0.9388237981947154,-0.23473226582044918,-0.18373439321530033,0.3100976628964163,0.2214523221424651,0.28144853422663446,2.1880641526810822
-0.2870859222033664,0.9831096142640054,-0.2452839281730406,-0.21006652710103435,0.26268362165242615,0.18719233892389006,0.20967113910689128,2.3487932009726773
-0.3038005470071303,0.944807440091119,-0.2524987934112639,-0.253151822206003,0.19015461968773442,0.10527877345771802,0.1576455101408124,2.217764051821973
-0.2965318062026648,0.9993754136019972,-0.265924479318362,-0.26485107406548214,0.17865988946038353,0.09541682363630033,0.1134666273146099,2.2144779906860355
-0.25851948624405474,0.9511524051151549,-0.23991249542887202,-0.22027398032675036,0.3042168517313633,0.22398070975537127,0.27713185348158964,2.2603504271953443
-0.278852254899804,1.007560515537634,-0.23075208008364811,-0.2000484879223614,0.25655933175129386,0.17819200141119088,0.1976153439298997,2.233885513863511
-0.30243057960388864,0.9220007223473468,-0.2610711710455349,-0.23541187802250646,0.14494684874884448,0.0750978808028884,0.1252352659533826,2.168770349750876
-0.3060296420462582,0.9215570504547409,-0.26990810412695926,-0.2740355656483832,0.1069973415764224,0.0350642582714595,0.04775866744093734,2.249889569703672
-0.25961689993516107,0.9246211833926722,-0.18302859370587737,-0.16058857358873932,0.30933147582782805,0.24873708699338615,0.294554730575869,2.2053822819730557
-0.2637538978143837,0.913869653564909,-0.19310342795074334,-0.1375813526826169,0.27254374835552425,0.19341734279173498,0.2212005887046192,2.1894036743937035
-0.28164377554982606,0.947413549301745,-0.21770685581675664,-0.19945181462883826,0.20778577416147587,0.10093132972493642,0.17620161329278525,2.2558110633726303
-0.31008361386032574,0.977013660471567,-0.24527527089462986,-0.2371869984990609,0.17028780875844898,0.03327392637127511,0.09112025688560425,2.2575246549446506
-0.2695379818034117,0.9307035006070578,-0.1581844470172368,-0.12269860141449734,0.3476853308854199,0.2774872528919939,0.3193129472918506,2.234060441004091
-0.26506378658962015,0.9869906965236096,-0.2114618511474255,-0.1496665496679163,0.2810798796200599,0.21043121904017117,0.2570873618231265,2.3530665972533984
-0.3165074700465467,0.9435398868086434,-0.21208971543809907,-0.17704205583972216,0.20244978763067067,0.1613324978733312,0.15826231415530628,2.2673915658273516
-0.3157863023800216,0.9432164980379132,-0.25508716198833753,-0.23248905960053215,0.17418254634889008,0.1097020726774716,0.1293499174944718,2.178262545892003
-0.28270615076523814,0.9034849061427986,-0.2014232190607922,-0.13300750710048248,0.3655235921294029,0.2586411147533066,0.32389287263882105,2.265609915271953
-0.27142068496069377,0.9642633565798652,-0.20769666471860948,-0.1598531038058942,0.31766973300172174,0.22576201063060178,0.25036807593362875,2.252430397111276
-0.30708875186842166,0.8861227327610288,-0.2576676064078625,-0.20127575144757395,0.2523331239204811,0.1636755842262235,0.184008053908102,2.2926347643535454
-0.2940338155486767,0.972070207660292,-0.25167194397586656,-0.20715467292189726,0.22178803270119785,0.1564471238455387,0.1996301211748304,2.26367995377563
-0.2709089283674677,0.9485385984327374,-0.18326404828719622,-0.13875582903264114,0.3474522166724442,0.2711192591959373,0.3334163092502555,2.3457839605044404
-0.2854822450417844,0.9422549483541817,-0.18316589517562443,-0.13903576654320735,0.28169321927237945,0.23174460429316127,0.2648563520521335,2.258981380373709
-0.30178892392669415,0.9393181901853928,-0.21182274587408942,-0.16518349193290283,0.21939689111827063,0.1573943839532644,0.16082458004490177,2.2422758736068364
-0.292010379722721,0.9578520985364843,-0.21967484652376415,-0.1737096208233634,0.28150008686272554,0.21041331614919076,0.27483315721130996,2.2338171282129524
-0.26398538948521516,0.9481558002246886,-0.16087724484688629,-0.1007851888308906,0.3979687786951189,0.3292089816403609,0.38838325010220354,2.264872777774121
-0.27677407516581076,0.9696309823320111,-0.15876124319221574,-0.1148147796357494,0.35510942461905215,0.2791317855762686,0.31674763670259637,2.3049173813723574
-0.29885791837533365,0.9245651272608099,-0.2242227555880532,-0.1842320075372111,0.2159178257713206,0.15459582316972298,0.2104216949871002,2.3064989094208683
-0.28155212951070907,0.9368929693252718,-0.18276962224532242,-0.10398911825350168,0.43076307903443434,0.3209365366467649,0.4001194755649592,2.3300594137576764
-0.2658585802335012,0.9480058636342814,-0.1463475837075294,-0.06843559692708731,0.4312773650574077,0.37285946103916867,0.3942718764651743,2.3497015591936186
-0.2902260927436665,0.977785720237938,-0.19737840349635552,-0.13622193101484298,0.33077611134036206,0.2846779079705602,0.32526192908464213,2.296835633265731
-0.31878506661694533,0.9434137882396243,-0.24529156027723353,-0.1694538394045568,0.2969769053507781,0.2198508152010358,0.29406965796741064,2.290154596414784
-0.2748966401629914,0.9685307540565333,-0.16703827739792473,-0.09686201956834038,0.48187757597095443,0.3859431306983093,0.5065006194656863,2.308351454422091
-0.2725448011825232,0.9254167055836975,-0.20207001874921537,-0.09169255629333775,0.43943670231958215,0.3474478735988609,0.4205167070213358,2.333532482630092
-0.2765061648743466,0.9970734322073683,-0.17863724745823015,-0.10385228767623755,0.35025323982913126,0.2830539123452425,0.3737522766876454,2.285584022642199
-0.2794514221079796,0.9881622868432076,-0.16731287823035945,-0.08559745681658314,0.3719042809803742,0.3202197968873775,0.39110364434812456,2.2898848359833877
-0.2612229392155729,0.9523598699224776,-0.1484544018225763,-0.021608113651902922,0.4946614869369842,0.45073202065132345,0.5025113230436901,2.275283513041742
-0.2739382455778765,0.9691911330323388,-0.1569730693494701,-0.06117775956528923,0.4180489971654314,0.36703267269036965,0.47921716098340045,2.3442017860146946
-0.2919341461445488,0.980306600486968,-0.19165338226670878,-0.09997337476916877,0.34973077107430245,0.28190619379416243,0.33829964911800803,2.2652430145233846
-0.2667034072397282,1.0410549245466187,-0.14005310365445156,-0.047956688694901786,0.500773676126382,0.41094832005947163,0.5106648205795058,2.3332327031367126
-0.25616115208604123,0.9611632538863619,-0.10630572752177378,-0.015396057901954552,0.5299469421584071,0.4810460138761478,0.56328920782765,2.2601833456488163
-0.25875127260113645,1.0006378702885568,-0.1175590796916666,-0.052074823598370575,0.460798589154457,0.39841853411132067,0.5103868042129602,2.3253574669649453
-0.2837150571526838,1.0007942282829652,-0.1588143250477605,-0.07014965370832082,0.36015243653380774,0.3012654737079179,0.39707581874826203,2.3516976604602395
-0.2338178312805287,0.950150690399853,-0.10920805156039996,0.017062206249507945,0.5657756181842318,0.48883973054927377,0.6247341284636055,2.448978662042141
-0.22561487622691076,0.9563854004026388,-0.06541512646551452,0.008902349924177958,0.5735363488171153,0.5167766090502729,0.6027798237960392,2.3487449037297945
-0.23800683604270587,1.0083265289018166,-0.09181103563430541,0.0013631002313759283,0.4951117315664668,0.4277091365839129,0.49318332573896534,2.3237693322383235
-0.2647818069093259,0.9532703674826193,-0.11016310282669871,-0.04033777898709376,0.3952238298602607,0.34072072374983386,0.4068330381536989,2.2703960110889163
-0.21257737414307423,0.9761660384912267,-0.03956865598245199,0.026033275941824627,0.5730686300539422,0.5298314106671629,0.6495941571739788,2.286039878272195
-0.21896398782762855,0.9912954198979405,-0.05580307975753431,0.03438808597167351,0.5060397021630553,0.49440717513339094,0.6035814781420643,2.332000212487121
-0.22763559527452348,0.9573826573802973,-0.09522085958859225,0.012899456521132514,0.4233138628228148,0.417845013791778,0.5173320887188211,2.372575592838772
-0.23964695751261003,0.9762634137031889,-0.09857779583042164,-0.017771184861946804,0.434698924688677,0.42418426431153244,0.48904924041633685,2.1800870415917255
-0.1957745177308048,0.9839338193162035,-0.04485395515756693,0.05827157175760576,0.5714464870369167,0.5781867330264006,0.6327428022031714,2.3635867845633736
-0.191768160419531,0.989950754632084,-0.052046820063829956,0.07141815383636277,0.5161976636319121,0.5181464216508656,0.6011738178936378,2.309405174835093
-0.22160215812260192,0.9628529648386935,-0.07617563267870484,0.015523739425081961,0.38617220461715934,0.41995079662082346,0.5057618431490627,2.2840477668029373
-0.22223651139578918,0.9657756589183407,-0.06878126879226407,0.021836291195489018,0.4381023288608813,0.42481188580728835,0.5341732191301254,2.299958781449681
-0.1692498660159802,0.9743365153714824,-0.04117758527051024,0.0996109454986417,0.575597053701822,0.5493219262980337,0.7019838302300585,2.3547342835547047
-0.17681985094655686,0.9783567762567159,-0.021078773811350815,0.06039102446899525,0.5170311796390948,0.5277517197634826,0.6393950235332791,2.344576241671639
-0.22443654181580022,0.9859393859799576,-0.028623660106710063,-0.002635920768343965,0.41466045471793095,0.4400130242453004,0.5295168899005587,2.2863724402723773
-0.20876403672906846,1.0117773899844769,-0.0484541409523461,-0.006294796565504508,0.4785560050086654,0.4991928595241547,0.6127102452638882,2.2806997917951897
-0.17498670582327297,1.0165772118352898,-7.698968717299312E-4,0.08896833865054933,0.6036127753029896,0.6102982632385167,0.7118278117613639,2.364205879537011
-0.18084558171602955,1.029301052009955,-0.014014212405697443,0.06801292595401609,0.5517199708690561,0.52711413678738,0.6351575372383895,2.3385312331026715
-0.2145946956282406,0.980166643522152,-0.07055838264429885,0.03791826911381779,0.4293418726086109,0.4637183886488682,0.5002217064054053,2.2702127839542077
-0.1921170341004661,1.0229977818466378,-0.05798448816155917,0.0521850443682978,0.46758707260321514,0.47283096697457283,0.6103785111487516,2.25720770062167
-0.1747774820628951,0.9875825620783729,0.007288665358933397,0.12083856597158715,0.60978135821999,0.5884572916178514,0.7184163460937314,2.371413246798703
-0.18450371649811467,1.0151893575310373,-0.004906152760357092,0.06846064043132517,0.5537234828873416,0.5288998776636438,0.6374274975099693,2.3615613015891
-0.21631923824095936,0.9602086116078375,-0.04794599134328319,0.027243879870553277,0.41239157827452116,0.396566980820996,0.5307291929970425,2.300630537749442
-0.19766959630628478,0.9840083476469291,-0.04019954800439666,0.053157726397264175,0.5147553281795395,0.5322692624958356,0.6042565673045066,2.2872559537915524
-0.1743064297915446,0.9769134417976558,0.005689385153474562,0.07143462182469903,0.5492700465401018,0.563010401357289,0.6463938547975895,2.366916605882744
-0.16854736426507663,0.9618568057176592,-0.01556747105798101,0.05362059870838793,0.4888751619928,0.529959611818121,0.6090230018433171,2.2508296877660814
-0.21391404681577267,0.9843547384218524,-0.041652870112889685,0.041754587526981246,0.37139792477689393,0.4137329737696985,0.4947993968081853,2.2363739886200595
-0.17728424541546953,1.040912670196781,-0.022560971901700227,0.0840198400976382,0.5414613199370818,0.5765913980579368,0.6105792994366596,2.2270245321350433
-0.17264370806783202,0.9915175979773011,-0.0018801362829529555,0.09175383805934119,0.5857299298786658,0.5590653523892652,0.6986281079533185,2.310068041896598
-0.16763479494059352,1.0236597785425843,-0.013261296916189406,0.05635778709951019,0.4725449315051988,0.5030502578039677,0.5718868264620707,2.242571217840895
-0.1896485522675096,0.9923032878759026,-0.04574267121025336,0.015380233544590158,0.37401133969318523,0.3626640200776666,0.4683473332091657,2.302364199789517
-0.16014746237356492,1.0367963038028152,-0.015185352628371706,0.08548520217397533,0.54156506419029,0.554052839357603,0.6906340269309409,2.31957291184718
-0.16354784320784665,1.0652803523651064,0.027282296117176582,0.11018447467553522,0.5750764899420974,0.576923435913474,0.6733231778243293,2.3619765396378507
-0.187709711573958,1.0023549439130965,-0.013275607369250115,0.0562757400185294,0.47782362961159236,0.5025179233608804,0.5738111999144245,2.302412219891857
-0.20049297834869675,0.966200522811637,-0.058838807117027145,-0.009744508158691687,0.35675531146434364,0.37704073412940464,0.4497487182746864,2.3152058498679464
-0.1768925069934055,0.9745057172670903,-0.01329810708820703,0.06534492808413356,0.5967153425774582,0.5681497641198782,0.6596058134429333,2.2914645656933827
-0.14717208944207227,1.0185568216645917,-0.007325298430595636,0.09245297970259027,0.5492104109922354,0.5631949091739018,0.6610276209846967,2.29449536117506
-0.18118294693045192,0.9707295013326505,-0.013466308339128772,0.056262565516924386,0.5033653307438429,0.4790937368242925,0.5547321535234934,2.32438120558901
-0.20621592380565557,0.9986807401225836,-0.054079153427386006,-0.005921955289358667,0.34614429031688115,0.37101784632119345,0.425205331530831,2.3421668779089653
-0.15667096358709534,0.9457420719142224,-0.0053413710731056736,0.05163183286129159,0.5770560177675259,0.5304121451840814,0.6195312802972147,2.3007710759364004
-0.156954696405589,0.9972317852298621,-0.034198330219503484,0.07743602415898256,0.5285258621837695,0.49857986513765373,0.5891846467868951,2.218144968611238
-0.1806685329097213,0.9970806064098637,-0.031981912962779704,0.03447835938451597,0.4775257294242548,0.4549611275700004,0.5257185419475897,2.327853986815989
-0.1969592633161523,1.0146379496976254,-0.07491494418792843,-0.010627032782695691,0.3413747902932943,0.3523857664274651,0.4072613232746807,2.2176757953905244
-0.16160417709155184,0.966631971834366,0.017582936004785582,0.058665931669351155,0.5326153224421005,0.5208917057668031,0.634212961872648,2.250489898800793
-0.17058613434051853,0.9642790286724157,0.02404211400477307,0.08353880746166573,0.5432327176891817,0.49598764412351837,0.5727938958703761,2.352781412748256
-0.18547457711182255,1.0202343314185984,-0.05314732384855258,0.04820346099993416,0.4318743987641298,0.4159168781114252,0.49660400159845036,2.2401219382903133
-0.2160608696629301,0.9445759740270622,-0.08166818204739383,-0.02195353232990395,0.31831926535324423,0.31874672645972674,0.37883815056443065,2.181839062718207
-0.1733567405002047,0.9891621724987929,0.007665733760913445,0.074912456112447,0.5021791640973645,0.4919631413368175,0.5914168434947815,2.2443169197370536
-0.15475990455321095,1.015231340078938,-0.012850367243809844,0.06710112665143679,0.5152884178598816,0.48209347896050353,0.5766388678284975,2.2433009189220794
-0.18415347244305832,0.9756504214657212,-0.01998012142525006,0.04271802300328348,0.44420037792505634,0.4330267832581268,0.5074239430908667,2.2747939158893287
-0.2104446991098207,0.984755721974865,-0.06663458229007806,-7.441837421408078E-4,0.3637946378460156,0.33553716709827325,0.39160489498023315,2.1865458254762395
-0.16479946005944981,1.0086298880010112,0.020516360518506346,0.06833235255450866,0.5412071121577225,0.5189160405145127,0.6344604659965299,2.2190265792122283
-0.17002082186516382,1.0163018712521397,-0.007574912320239481,0.05939026086788675,0.44336919992369805,0.430765101578091,0.5508868532617257,2.2815387441164616
-0.20372148221199937,0.971546514392272,-0.04294395353008662,0.04355078119757653,0.35229861783943095,0.358770086908073,0.45869091501657194,2.2430446247398965
-0.203084013311082,0.9656202585391406,-0.05396248459233414,0.007081332728791402,0.339027348385443,0.3744840223111013,0.45151435979980614,2.246566703245419
-0.17443202247995981,1.0153609555631309,-0.006006985351334439,0.10034212038463511,0.518409953995514,0.5020953669056488,0.6272815034187147,2.2526431368690223
-0.16412875148681508,0.9898975229229331,0.004434392290821021,0.056401305010106366,0.46922892328790017,0.40770170964089125,0.5298764185931494,2.2428306424202575
-0.2064493737273859,1.0052827758279517,-0.054717058924088055,-0.002134502838411389,0.33457760482031595,0.3554457575679598,0.43855191678679367,2.2594108027189392
-0.19625910932090732,0.9469071980267437,-0.04539174913207306,0.013308330977084164,0.4059980050958204,0.437594530818049,0.5149685255158359,2.1591832134170206
-0.16574779204610895,1.0522547921026604,0.019382466373869187,0.09372235347195007,0.5331970781685827,0.5231098321744049,0.5964940567184597,2.18254283568539
-0.17665177123887843,0.9839172957047417,0.012073518003501893,0.06865138564222895,0.4636736650182935,0.46003454401199334,0.5556443133360214,2.2969663979952757
-0.20817606775054293,0.9751662435159434,-0.03155807473073336,0.009719667781748773,0.3371110000786632,0.3276592483774902,0.4358972541830315,2.191249381067829
-0.18671896782900252,0.9486973046750905,-0.0070546389302818015,0.04923646847473282,0.4831326610204337,0.49947143132097954,0.5957113293421281,2.256457570407342
-0.15742602095957872,1.0046408479608935,0.028641401384914538,0.1085435544356721,0.5348854575895468,0.5364260060044613,0.6493678139878876,2.1915594899890802
-0.19610478765590603,0.9891334364721412,-0.007392938302127322,0.08754653806773657,0.4348518184780575,0.4592642956388983,0.5321329289018156,2.311516542947553
-0.2128311962124982,0.9607882784506844,-0.05619785496541067,-0.0024152735645236885,0.3307392178792238,0.3497655207097997,0.431305503293521,2.2691961500407416
-0.1689285451151244,1.0075594668480468,0.012027671743800043,0.08488465406092885,0.547435874008246,0.5359285838046729,0.6579244165151077,2.3406317067272298
-0.17034034971558162,1.0344075270314148,0.026486160986128215,0.10204879926902614,0.480898072079188,0.5164187416657617,0.6116166400259462,2.299097981575699
-0.19338337990916327,1.0123809544259705,-0.012372700772501749,0.030582728265246533,0.42906706807965433,0.4323671405122672,0.5418470937908261,2.192932392401228
-0.21097472766717534,1.0117052181500354,-0.05237274521446881,-0.002874379488623195,0.36565831421906536,0.33715751671619926,0.4482700785982938,2.2710132881803418
-0.17890818044383894,0.9484731670254477,0.009100597437852591,0.06736804414826007,0.5317747137066857,0.5233938908333345,0.6034857482815899,2.2649459079787233
-0.19246716461334543,0.9769243501097679,0.006543536837659239,0.03794521133929854,0.45795445603629936,0.47938737534625636,0.5897120843873014,2.194902244082257
-0.18807604478852788,1.0107967928540649,-0.042690514063499836,0.0058566604791887395,0.38432453654182475,0.3691113846864944,0.4743221532054233,2.2863598711098088
-0.1926342299200383,0.9655405361979017,-0.03781741716478437,0.021663414151515282,0.43003743730130584,0.42454223208114095,0.5488401260688655,2.2480537380953063
-0.15291519323191075,0.9858346529349835,-0.022862621647392178,0.06760070343160092,0.553930020740987,0.5243039307857306,0.6035974711001478,2.2689594800292836
-0.19970235248441315,1.0270686376427633,-0.03068242102890192,0.04006913112077342,0.42702342314976494,0.4312682017421269,0.5274501517110275,2.220483557771258
-0.1983411630693302,1.0061966430011124,-0.07399841016146863,-0.03013946468562372,0.33588526114021466,0.3555585454308506,0.44078916640932986,2.238463893799839
-0.1736701414190638,0.9559957287856908,5.551971688052779E-4,0.08633477119458256,0.5773213005568654,0.5618071275352957,0.6388510123839524,2.3194975714437147
-0.1544801166625622,1.0198864304038575,0.0020556971423385394,0.08894863379089157,0.5480644379753123,0.5210390863631444,0.6183715264237256,2.2850539138379258
-0.16994911461587198,0.9698088280627607,-0.0036768260714019345,0.03774130980288486,0.4491111370157395,0.46947041175799165,0.5373574780700198,2.295150574010793
-0.18948849588841604,0.9533266781096976,-0.025448009939780813,0.05222598217944964,0.419715828374306,0.3757158736510035,0.5204623197798812,2.2682735022832996
-0.150713196310051,1.005201366595819,0.021557894893439337,0.13307481617681416,0.645092195428222,0.6238854448340682,0.706496524651984,2.291327013236506
-0.1590269963831511,1.0282890819785695,0.013848253640845347,0.07001561373019297,0.5332609415920074,0.551837616978246,0.6332688382880698,2.2921405786832527
-0.19210828430726995,1.0210489076574305,-0.043941643445067013,0.02496663765378188,0.4267977904519597,0.45103886372644086,0.5500116542069674,2.2485317028013703
-0.15936429519040554,0.9918111913743679,2.27908046703647E-4,0.05552163216185764,0.5383391456220671,0.5439349071178254,0.6407245791760722,2.307428644306466
-0.146603082843266,1.0351331307341265,0.04929786708627597,0.1216022876588372,0.597141311498393,0.6045383116122761,0.7029397017398762,2.327229251749674
-0.15123613471135985,1.0076986384871998,0.03498029458476242,0.09490619158275888,0.5237421293388521,0.5351341402603091,0.6700801888209381,2.3299173816506866
-0.1777217655186471,1.0007643584109833,-0.023056367263645357,0.043843874530044,0.4228514800627205,0.4443417142336514,0.5489699929637509,2.32188630376149
-0.1671584338406575,1.0062086638167493,0.051025974763154174,0.10765462835447735,0.6305430266859102,0.6216325352254025,0.7358515294125454,2.322134238014148
-0.1684834110099895,0.9951229410999309,0.009346870323432212,0.0860634506303918,0.5478799516252468,0.5713850233395994,0.6782390824973181,2.281881114817645
-0.18431950807421005,1.0462100493860387,-0.03118157232976632,0.05162990912440268,0.4474911270826613,0.48861727690015727,0.5975504358572065,2.294794938493974
-0.17219114006967806,0.990483308793679,-0.015843495893319966,0.042791275472922836,0.49076176853855175,0.49688668656721424,0.5369943795820287,2.3383114874081588
-0.14299700740662416,0.9922611317484118,0.042462434547758596,0.1125439754591628,0.6363724280155866,0.5929446545846488,0.7615362386697849,2.261241633934987
-0.1539464067144847,1.000843562479663,-0.0138030093063465,0.06309263641634938,0.5345111144095676,0.5480911189759274,0.651858582779655,2.2908532449738006
-0.1845334523059865,1.019105034884365,-0.017862173283102536,0.003538279009904971,0.4447999610779179,0.43578798264607665,0.558228359081127,2.2603421431181387
-0.17931964059487443,0.9902342266073016,-0.017255104462098915,0.0556678215033763,0.5181715390919082,0.5674822920312611,0.638727933104968,2.2794182091721407
-0.14270067726859492,1.0172999430689367,0.022790204651936364,0.08154129547694439,0.6468306781496468,0.6502784056256958,0.7731430081092376,2.2798800829077646
-0.15615716301510904,1.0077035571159256,-0.012904559667889694,0.048571632300395705,0.5289364117473467,0.5769753232071326,0.6172204246940359,2.2611017210961606
-0.20427813225557617,0.9987307875990857,-0.031371785754414516,0.02578656158967708,0.43841814523644074,0.4273239470492605,0.5422404876961989,2.232703273793557
-0.1408415068726267,0.9812841839493148,0.021274923972972887,0.049671248627371115,0.5713020739713368,0.5963046686475144,0.7085873031016995,2.2578541564005037
-0.14588323789518481,0.9762214792448906,0.029468081065632812,0.07514638423141472,0.6046517378881296,0.6253242337219502,0.6889380395691026,2.249298445155469
-0.15032145099385735,1.0116067073536423,0.035303210466993744,0.06632248880016925,0.5013309726506239,0.5052773921009821,0.6237398497030772,2.283997146013471
-0.17722268109957331,0.9917027703232206,-0.030437068153296165,-0.004835393823684859,0.43896291800686255,0.4497771700680864,0.5306998558141378,2.2260125312754138
-0.12722486863884488,1.0317130765601823,0.03668760568107648,0.11539147117536303,0.6292051498779778,0.6218670884054506,0.7468981701651901,2.294639502955404
-0.16662307266385581,1.044914196150143,0.007878454534982848,0.06231095193056911,0.5501276583393976,0.5535709954238834,0.689997173204711,2.275061358376367
-0.16475904808659914,1.0338829040953907,-0.01840817043505339,0.010738546890421898,0.46581968109191,0.48120897437003807,0.5722688638732125,2.2351970916504933
-0.17923402808243455,1.0296700000766696,-0.012201835257419084,0.059836089312346824,0.5047302814378953,0.47916127796819374,0.5671282441088643,2.332196950678705
-0.13854140505151732,1.0359910980976945,0.046565294295559286,0.07599191403741978,0.6340282120809346,0.6183575612917067,0.7178034191297789,2.337340812902367
-0.15870050173832675,1.0533888369492366,-0.008938816620821882,0.051152042332349996,0.5207894441465426,0.5641814501002396,0.6381722879265491,2.2690482147994757
-0.18002458184720152,0.9785057613502234,-0.02969107248127809,-0.01767542648329005,0.44932840357438975,0.41490691968212406,0.5012404068032238,2.24122920297486
-0.15318325848984576,1.010032471765975,-0.0032972379359936174,0.028043757941125583,0.5817002422426578,0.5435885846488632,0.6685455587179165,2.2659885181865573
-0.1454722670010214,0.9989345979385069,0.019377622425156997,0.07606344862649056,0.6427313100488662,0.5989176444611107,0.7389996989410339,2.292663911661067
-0.13453829405299822,1.0267267409437217,0.022213646909033352,0.07653612969999514,0.4953101555917704,0.515634808652985,0.6260016502661018,2.2759151408472102
-0.18173185890345928,1.029903764302975,-0.01987878342841547,0.0013376386707009218,0.4241886742467254,0.40408349231119,0.5198938622171989,2.2621449098577178
-0.14373030610917495,1.0389270822046663,0.03329373065540396,0.08125170683697905,0.636901202045395,0.5980264924737434,0.6779737589651527,2.368417886469857
-0.14017721169870795,1.018912873420997,0.03410361451111672,0.10113449322693588,0.6391616127211781,0.600821545052663,0.6852949514050724,2.324541894967434
-0.16061648760788072,0.9929696799826224,-0.007037097162489691,0.04166341313212111,0.52275049610076,0.5232360171942304,0.5833609123782227,2.2621451230249043
-0.2119871521911669,0.984967763668693,-0.05892968925107076,-0.03580186699055111,0.40906588038504216,0.40141402702238627,0.46897972187859877,2.287750412014376
-0.16014638037395842,1.002769286895544,0.017433898964827717,0.06459479658762585,0.6126363277689761,0.5975823735674529,0.6839202907361338,2.2415805121657515
-0.15716890979212017,1.0067750184537245,0.019037752159735015,0.05003359805152059,0.5980091466894153,0.5946762467767729,0.6437363196490277,2.2379078217472137
-0.18555837159265565,1.019783431570727,-0.013716043624945377,-0.02283454514992515,0.4769969259905383,0.4775904862806583,0.5748664634101701,2.2844584397669956
-0.19875052375377147,1.0015497865977392,-0.0700771079754008,-0.0720552171408212,0.40245260053151516,0.38445520785583137,0.4672922075446386,2.302762444656125
-0.1646285764826562,1.0084268391376978,-0.026523315515394857,0.010992609861489755,0.6033316920772506,0.5854150429088506,0.6627957401313969,2.3409968728363317
-0.17794730910808793,0.9804248820833363,-0.03437355209078698,-0.013444827860439901,0.5227222002343188,0.5066539044731145,0.6037409498123761,2.295774475414169
-0.17902273211858508,0.9967026853205535,-0.04032926259678034,-0.07594710673481907,0.40523063897928957,0.4094977467335925,0.5038753013060921,2.245526348777995
-0.2255536773883255,1.025882879625482,-0.09295240136091211,-0.06116731653899961,0.38583742036464075,0.38005853165149805,0.47446942579983054,2.2142054428494786
-0.17080161519139234,0.960732260860326,-0.013547349445086345,-2.7494285708853645E-4,0.5558255973017914,0.559156467198045,0.608001605771078,2.2821705308166407
-0.19029881618838046,1.0209964821737851,-0.03496404799648588,-0.003527701096223577,0.49616802361329415,0.47319802332359306,0.5511698343455124,2.3169552628248686
-0.23119808034192194,0.9992817912264246,-0.07538741079721796,-0.06629508608103167,0.37739724366105604,0.3644012136715427,0.44459834531896597,2.2530741369230203
-0.21742964075687898,1.0737490975794635,-0.08860565899001181,-0.08535819286346363,0.3753455808200401,0.3639578726188543,0.446194715391506,2.2752090182333453
-0.18683101898866816,1.0839674641702557,-0.036991976753011274,-0.005892475201994446,0.531998775845637,0.518418350099301,0.6382822642946555,2.22507590594628
-0.19640898279910715,1.0411906001536313,-0.07677981703542547,-0.03720773000012017,0.4913575073994947,0.49033715516194054,0.5444781405182734,2.2204414516047772
-0.22060922534401092,1.0058630510696354,-0.08108370277842078,-0.0773183687659899,0.3784910758824043,0.3896287977100336,0.47743646843744225,2.2888823855465183
-0.20651691059122068,1.0210344068862192,-0.08279951924124032,-0.07153323812108815,0.39955498588966337,0.42253032933638485,0.47487024847461445,2.1732931442996954
-0.1650329609686609,1.018862020485004,-0.011674654897372938,-0.015574293421460403,0.5753292095621303,0.5473228676299514,0.6184960408501173,2.304949085242271
-0.18605287642754367,0.993725377178115,-0.038358696152434583,-0.00688449777231895,0.4672882268390339,0.4944675402430463,0.5748092478966144,2.295530948007736
-0.22371137407864014,1.024188475378172,-0.08515148819773252,-0.0556387462153519,0.39594534878392657,0.3456409201715175,0.45897117525882963,2.205694183572359
-0.18712297977960549,0.9484817619978692,-0.04979525659216428,-0.02130887207230204,0.46048860674496817,0.4363679089107345,0.543688265882609,2.2936052468447112
-0.15330700228737806,0.9873999933824104,-0.02043656332992404,0.008709805285835655,0.5284129488427142,0.49262188523291106,0.597570009715086,2.2698254534107467
-0.18458945352093206,0.9135201391297207,-0.03073415498635757,-0.006411074723866876,0.43116965656810197,0.432321593339146,0.499378706304691,2.2625170529181653
-0.18799263184508766,0.9600153448032426,-0.04789586830386989,-0.020680062170634884,0.33654758633672527,0.34962172865452507,0.41706196215674207,2.2880485614801795
-0.14411231114015766,0.9523683797949212,0.06552824778408621,0.07805095603160132,0.49659068537307993,0.479693097367003,0.606548585255722,2.302520755988583
-0.15151327030476977,0.934719456659476,0.08406332535755312,0.09961550266632851,0.47811027660171007,0.48152632449190585,0.5492438598400237,2.3448397797980123
-0.1588262412840925,0.8941652345249997,0.0379121552866482,0.08604695892576814,0.4104405084980496,0.41249152696583613,0.5084125850256435,2.3491551216501283
-0.18062099397198975,0.9085518907494151,0.01400231045380403,0.07110040467926691,0.34139686109176454,0.3282384823216274,0.4192408054702876,2.2801309500258142
-0.13486278977635321,0.8708623458377325,0.08963439206464197,0.13754433083582135,0.5648892260013384,0.5697433628327729,0.6347077293725923,2.365531272866414
-0.14742747611201412,0.9355889705991598,0.06719454297055216,0.12948463718539732,0.5052164168228581,0.49303497157947207,0.6313544807648144,2.372190909934822
-0.16632531394241248,0.853200666903397,0.03282388742635776,0.06394422702831692,0.393756992612855,0.4077963296373682,0.48797093855024937,2.4264141740453145
-0.1892300056329749,0.9425537977422127,0.03975956728352846,0.07445218109422891,0.39880227684660674,0.385517317315981,0.5118051222624247,2.36315192861884
-0.14560303858978502,0.8953613273291295,0.12383932553896013,0.14010252419386776,0.5751326685682381,0.522014305763426,0.6499193990610965,2.297880436733149
-0.14495759198753552,0.9319156044408485,0.06137277272353897,0.11143574900262153,0.4670339126879424,0.45908439744296353,0.560702119159684,2.4011465315506904
-0.15931372094320972,0.9218757497167555,0.0447344993279097,0.09493386997183953,0.3463592710372882,0.3879856862044323,0.44770412022731376,2.3848336048386223
-0.1416564684042152,0.9050461218518964,0.05192503578769665,0.11145011891780617,0.45529224015837144,0.44448490165717336,0.5379022900262951,2.4630881299327956
-0.14622908127172948,0.9683177791699326,0.10508434588341614,0.14302381963645186,0.535306316829944,0.5253678229437443,0.5598100320295244,2.3831807682742037
-0.1501915387312484,0.894231752479479,0.06644970276260469,0.13285554789362242,0.4246376168657681,0.42980698656233157,0.5231348989001529,2.297030042282604
-0.17749529991073082,0.8866103187787705,-0.0038785806601426055,0.06887983964730389,0.26882345947267583,0.3324965107248295,0.43232478009413294,2.308729254897874
-0.13756416575207747,0.9334604969942448,0.07425797089449405,0.1395193808808684,0.4941287321545064,0.5373186126326532,0.6261210274166714,2.32011849370698
-0.12925353528271422,0.9221244426173281,0.04230284547275684,0.11084294084741234,0.46451353773810555,0.4807346639711133,0.5757851169777914,2.350028838030485
-0.14158513063077552,0.908035858467946,0.05698317837640247,0.09281924707743247,0.40991417023820026,0.36748253700638284,0.523789845244987,2.4544228226798
-0.15991903963898516,0.921760039983372,-0.0034659652390279113,0.06044160829326405,0.33456776100408464,0.33307051423298517,0.4433479149783093,2.377092142651137
-0.1290350758310974,0.9126030274449435,0.09372651101038154,0.1466428737858299,0.5616163284737008,0.571039105881885,0.6322659598784656,2.4260466915335215
-0.10068796712552447,0.8997875824776215,0.13809933762447113,0.18323836373890195,0.4484689528302234,0.4438030751318013,0.5359844247215313,2.443391717670834
-0.15006880828307945,0.8779261810630954,0.09852964219749985,0.13085967092712394,0.3447298885668687,0.36039188405279254,0.436120909982925,2.426661831716638
-0.14475030880486034,0.8295838988992468,0.08180571425880002,0.17674936167635147,0.36013052330279,0.3916389334523777,0.4626311045739603,2.3770955446873723
-0.09205921167533013,0.8479971787897425,0.15101645154442692,0.2397220100140118,0.48949892727900784,0.4893134782820784,0.5889645373836697,2.3339771865681316
-0.11673021976853638,0.856935270755184,0.13025619479830358,0.19619045241554778,0.4235324743215227,0.4289064601111622,0.5150317544838015,2.4721563393647776
-0.16468493986152483,0.877486142089934,0.06947951766065787,0.13453948674808,0.3003087091344475,0.32141460381199216,0.3944400413540841,2.436794236845513
-0.15359956123173438,0.9138220384849648,0.11354204597144081,0.16444922526467154,0.4461586619160459,0.4334237227085583,0.5199583568162937,2.4027018221510557
-0.15251052794371547,0.8986072300632656,0.09489582143008488,0.15735604196338887,0.4555071432396932,0.45061827411077665,0.5386502771262324,2.4058926253124513
-0.1731961247775511,0.8924654228703988,0.0770666199772579,0.14432005825185473,0.35083680663919,0.38101393107883363,0.4464036907212699,2.422938733131582
-0.21636716860464822,0.8995765006432289,-6.531183393552017E-4,0.06381208640213462,0.24838211601240404,0.27752166775962406,0.3436219335339893,2.296076926250535
-0.15426841699137925,0.8778004451132881,0.05198864844682887,0.1451817469530925,0.46261931155359703,0.5131935219933247,0.5720609970534059,2.3947682449606686
-0.1794537051669244,0.892688977327099,0.050727944028962635,0.15698281957779162,0.4209642387889151,0.3991775313728326,0.5087050622239984,2.3975743552823405
-0.19779550972925364,0.9238090726081792,0.02412380511269931,0.09008479226653088,0.3135404492869694,0.3165178636355951,0.4142399383696377,2.3473382635913507
-0.20822196382101926,0.8827297827295452,9.778922792250625E-4,0.05051946428736257,0.279514124221724,0.29834867908555257,0.38389452289631726,2.365607210612394
-0.1652853369705232,0.9352430390547746,0.06259130119727194,0.1493431132323927,0.4486101132540472,0.4849752278882884,0.5687820734016586,2.366764745461151
-0.1799378886830588,0.8783880877608019,0.06450639307241693,0.16358593247114797,0.35648912255207754,0.38595613920483,0.43482374579441574,2.4743965201342446
-0.19240126620921796,0.8707587441019745,0.028748564828796674,0.11365426142156611,0.2600094209411314,0.23624423606589248,0.37857904837044926,2.3579283393941615
-0.18840850429485562,0.8703272876394572,0.04733441255126698,0.13203525228541163,0.3340203000714942,0.3476567450946475,0.4144887909201991,2.5016106915175773
-0.17100298942704764,0.8922277934524099,0.07775457992763608,0.16828129263035152,0.40898164961175143,0.41843179710425005,0.5476373529203701,2.4267368874670954
-0.18897787946431366,0.9134946409956339,0.025284824996663884,0.0984724117107573,0.3378522853673908,0.33770248355903626,0.44203264613826715,2.4321427209318323
-0.22536665770863187,0.8712844559193467,-0.019066778957750184,0.030627480864875847,0.24464861184928113,0.22350727607393678,0.3344722869471757,2.478447225250277
-0.1892062493957096,0.9082641182465171,0.03427641378051899,0.11563783285160746,0.3958836716343941,0.4111424003567402,0.5246897734534113,2.474165087613009
-0.1962665183517086,0.9197981536635517,0.03325234617006141,0.10194401411205246,0.332232124464716,0.3734169036258781,0.46411655711852423,2.4298631120511214
-0.19726527511323674,0.9087095232693,-0.009350488303611881,0.07427084862070019,0.25348059846002363,0.29734281318456496,0.35429297619428135,2.449097608613091
-0.21780003975254641,0.8358071302819675,-0.010848533814772845,0.08312844564812301,0.2387718257090685,0.2652014746864585,0.34402197467792245,2.3694295265475356
-0.17291033862870758,0.9511961190746068,0.0901387744825572,0.17063179822598615,0.4011458138715934,0.41759016095312645,0.5015842164242512,2.412171936551921
-0.19191939938026348,0.8781217310476602,0.07649488536520095,0.14100386352551783,0.32947652105034003,0.3229419454922799,0.40292810943000296,2.362315360260576
-0.21396234283465737,0.8383589668066496,0.03805325617204483,0.08244495932736289,0.1896374093273713,0.2291461240159097,0.33966311012000405,2.324175443290492
-0.19177152922333587,0.8708776724928462,0.03583314718903267,0.15093007770993813,0.35486041034939925,0.34441481297998355,0.43097485360293386,2.2987830931830535
-0.16384790775933522,0.9174107253438081,0.07371830625229385,0.17438982806208728,0.41041530036824275,0.38925987797620404,0.4773313059088257,2.215254371669449
-0.19226074157908415,0.9175763191677236,0.04012524619987166,0.08657804478037796,0.30528185635867133,0.2961563359208352,0.3715897837302288,2.2873886960768535
-0.2356703033008996,0.850637505977504,-0.04462942402505918,0.03737244413533451,0.18798098300971888,0.1663358968882106,0.3006740053565623,2.2478328714995905
-0.1827901407754941,0.9110368327128043,0.08270785383726076,0.13719441405193633,0.40691879477959936,0.4221794406615306,0.4968235487932992,2.202913908218381
-0.19304907621046105,0.8929561339526504,0.031175634842464033,0.10692423407496926,0.3513766893784996,0.3097069945041482,0.42926249204192996,2.2768363425446347
-0.2245652852858533,0.915890357116199,-0.0026473984913794996,0.04764376097860596,0.23796778372469846,0.26107388168920936,0.3323756295831963,2.241165428245252
-0.25531447150281444,0.9348554698545823,-0.04864862093844697,0.009286559340362394,0.2261817643834882,0.24027609498805125,0.35241644852688975,2.266567745420959
-0.20497391760004635,0.9607339778433507,-0.001064872706273452,0.05095718243243608,0.3580557123825771,0.37591730218822045,0.4451652506188546,2.318461870131464
-0.2448467270565868,0.9604863317431784,-0.04653086414570644,-0.017602499007723135,0.25179156660650137,0.28548804325198235,0.3190359857793425,2.248574709413537
-0.2775398523960252,0.9218827270985398,-0.0877232882438007,-0.051098252527952664,0.11797218620844761,0.14653413822187186,0.2029048527496718,2.1989545026876
-0.24094209810202089,0.9729959297215465,-0.039859795251883004,0.016368250465419266,0.3291680996660358,0.33567254289647286,0.38510477609312155,2.231216793962044
-0.24901333124438454,0.9559945132789704,-0.04206471208051087,-0.020931749994340047,0.27318532052641376,0.3014826740249668,0.3548854943399928,2.186834640976418
-0.2695451091228612,0.9036945067777299,-0.08139757727670223,-0.05229654298823806,0.21582570597636405,0.22446269218857384,0.2679889285079211,2.1986888595573464
-0.2779960609179125,0.9036482238962228,-0.08765193868813435,-0.08131840267691236,0.2080804988530898,0.15934100368053303,0.23876658229816738,2.230287294693404
-0.24670125108299643,0.9258774890265129,-0.07518985877360779,-0.004499945045489948,0.3409468165465375,0.31964734618489926,0.37316896751343737,2.289556364972648
-0.2615923243642361,0.8834799280472151,-0.08498055863223088,-0.03737837418999211,0.20821779794871306,0.23156229453473345,0.2860663024524961,2.232426676561791
-0.29381587468953063,0.8808293209574287,-0.11539958128790331,-0.11201431496417343,0.13731095299290563,0.09445415759968633,0.1694670537064946,2.2530183557292913
-0.25779990061530195,0.9012269178029718,-0.07386544028426358,-0.026736821404863317,0.2848739253527525,0.29323974813293624,0.37627069603778385,2.2347911607497393
-0.24154988779632072,0.8923106331449702,-0.08179618381488826,-0.025465011354504984,0.2609120825196529,0.2648559405495644,0.33610116287548664,2.2530156980349565
-0.2589947418364886,0.9128815134585248,-0.07571898629480744,-0.050271888563593194,0.19460439027508675,0.151495204535272,0.27914312833609134,2.291017844100202
-0.2793901783146616,0.8928649563184792,-0.10159241773040227,-0.08150554723769468,0.18387607332518122,0.1337022355963774,0.2379374798825182,2.291393014684266
-0.23860464599261472,0.968698282287565,-0.05251669716029336,-0.030197141838368496,0.31671150346534216,0.31629276193927525,0.4343637788964664,2.26304335493261
-0.25037761580749435,0.8847596441538728,-0.08166445520011233,-0.05009989658034792,0.24308189834886493,0.23513316978906634,0.293835951897376,2.2827317979012296
-0.2932668410113626,0.908294323887445,-0.1274092158410156,-0.0937649818285801,0.13065061863085253,0.13876047735148442,0.20093709995297368,2.319280161065507
-0.2672596339597273,0.9085264932177313,-0.07150700938601948,-0.04131010464468985,0.28968110920371487,0.26915419096000376,0.33739882609916405,2.2200247826039483
-0.24856995752001088,0.8822829630060183,-0.05818017554293446,0.004262335731621586,0.30891844339291163,0.27433801910361416,0.35454700500305636,2.2730260305611787
-0.2432018474045835,0.8992691964659688,-0.04894529457433716,-0.03010845525843892,0.1997491710875384,0.1932582424422281,0.2719949302781015,2.1980583379728125
-0.2664088509470127,0.8690922176753432,-0.10902419391830641,-0.03784302811557103,0.1730372101978874,0.1541992004925275,0.22358053059500252,2.162769327399025
-0.22996869958394758,0.943780189088349,-0.026063985274211034,0.04878988486084888,0.3542138079538155,0.3144870522876132,0.3725093486902494,2.2469668638317994
-0.24426945370148892,0.9224909421696955,-0.058046993600876465,0.04565883640805175,0.27649304997049423,0.273636974432212,0.34227630595648784,2.1781613264151902
-0.25863510637573256,0.8736523267868872,-0.07951884873107201,-0.021746983790945643,0.17218772632998258,0.1797130790295787,0.2714607123722399,2.226250599761748
-0.2341068210764823,0.8791313113296872,-0.03446378872785973,0.035963095169029353,0.31935143622644874,0.35171641552493144,0.37733282529529016,2.267535549687766
-0.21592781184549514,0.9299246522033366,-0.02963147050770124,0.05322071891711972,0.35785998123272394,0.3474598858529814,0.39790228619987117,2.2274230935661268
-0.23098661306640814,0.9101871151756439,-0.022491958802385813,0.05657373678165132,0.29630623978943516,0.302725889743507,0.33221610466427265,2.120632026073403
-0.26072095764642683,0.9060303261333265,-0.06697510307161984,0.013901729161759992,0.2379657688827553,0.2594877853055834,0.3438644642723004,2.158192113229953
-0.1945851382070674,0.959072362447938,0.024936025716779973,0.11365055778148797,0.5089821964764916,0.47177007285496564,0.5502384109472971,2.239366523520123
-0.2064840289133295,0.8871889704969352,0.02901071025832843,0.09672105508028986,0.3951343791887715,0.3796743557893299,0.4983841406243017,2.2646739001753016
-0.20335950886469412,0.9213616964049555,-0.016048253587887584,0.10188529020486177,0.3227455220770944,0.3089286535997643,0.4036858461792978,2.217252509346468
-0.21327998937796383,0.9113056970775406,0.0034455621024718983,0.10027191635497265,0.41367945884836343,0.410419105605393,0.4898771057657023,2.2785261881971155
-0.19263629514602465,0.8873138241042235,0.05761197552594092,0.16379682577983087,0.4986269914485143,0.49973883750835607,0.6304530028263298,2.2787136431172934
-0.19527125897955502,0.8607042248288141,0.034171237166532434,0.14728340796215364,0.43262924585025603,0.44402930843069516,0.5526718074147304,2.3121055722293873
-0.2152984666890369,0.8410087032252231,-0.01593039130346207,0.09442375422539741,0.35220729934721545,0.32486235363451194,0.4519753354538848,2.345297861166346
-0.18579271104259004,0.8618733102128336,0.02936750837294724,0.1639217690250348,0.49430748115709605,0.501536951541383,0.632442352942571,2.307580471182084
-0.18333286882798974,0.889689228879608,0.05727016766250866,0.16118779726481716,0.525938135930638,0.5454592905055392,0.6419450260507512,2.368271387448016
-0.16404764743508057,0.8248763760761338,0.020184463121127982,0.1516656857327764,0.4637531012518623,0.4607599661409362,0.5448714837142254,2.312987149806255
-0.22632345676556795,0.8478147450214137,-0.017991756560313144,0.06467536236049998,0.3273074086483454,0.3594978275532512,0.44687701982269584,2.3408266837628955
-0.18109024773846524,0.8571654761000393,0.020317229839848,0.14614976584540323,0.533665704197444,0.5740494850783839,0.6613248579549057,2.3902885638022573
-0.1661359572668042,0.878554941288618,0.05999165804170425,0.16198983503967523,0.5590119862613644,0.5892406217434918,0.680094255966702,2.3999975915837863
-0.17480224779756162,0.8911218527817493,0.027952247397365737,0.11620971263621777,0.45971894474911723,0.47920456959816404,0.5964763648366685,2.37432703064088
-0.21660091761843975,0.8553568786603624,-9.698082371646783E-4,0.06453850018535133,0.36748022053944945,0.3908311600830519,0.46675877446868347,2.337746377605177
-0.21278415980850424,0.8348631924094012,-0.01644672676905319,0.08782132059459308,0.43544852309295523,0.4339575846139769,0.5077310146267872,2.3774850621073007
-0.19348238634103163,0.9182538835262511,0.05077231446739078,0.16588205372581827,0.6049037505459919,0.6120204148785774,0.7380833651860311,2.321125849525887
-0.18699732956723225,0.8998235101862724,0.059216108406094196,0.12748550440906106,0.5309874731732708,0.5248638692472721,0.6721771694296753,2.2357673820822526
-0.1938460548760291,0.8932521884029903,-0.025315024663262742,0.08955025819254438,0.42874447088163314,0.46853097108653613,0.5469168718059363,2.332184050529177
-0.233374016481367,0.8814957354924424,-0.03152173652247052,0.040449300919764154,0.29464075054750155,0.3111344850509545,0.42508513945295995,2.2845572396855376
-0.22150417921777793,0.9311810219385276,-0.0412998209487626,0.10518507375323255,0.40916929483235137,0.4263638400458322,0.5139446679806855,2.3159195478557315
-0.18557817518822176,0.8678812808272288,0.027351780443432616,0.11738279058949347,0.56334591662021,0.5885649138099395,0.6715550904606584,2.2658707536817184
-0.20674379269352933,0.9337465243778134,0.01874732906347689,0.11435620368377308,0.5061137185400485,0.5250713159668452,0.6189319939732228,2.3331704232560426
-0.22715206248789277,0.9261002624141234,0.010522624873961836,0.0756845181365834,0.4029946203060253,0.405020461087836,0.5351978390837117,2.2466433853717134
-0.23921892428919841,0.9071460531369081,-0.07377571391265028,0.024701734032974713,0.32767321857287557,0.3091228086498214,0.41547820799355323,2.237113618559769
-0.23141978075197972,0.9243915770950812,-0.024357897694079582,0.026615620601709484,0.3919356505285502,0.39787753843871915,0.4911208711089949,2.350642888235543
-0.18520678272026253,0.9184945871411054,-0.0015718061653305386,0.10725540387155055,0.5229789650347069,0.5318991374278671,0.6041705579369644,2.355714572855258
-0.2130780044987171,0.88614300025689,-0.014844925780835771,0.07450732079589174,0.4274730649409928,0.46885566999487716,0.5877256227557692,2.3836363619174388
-0.2310552808318728,0.8983754529742193,-0.04648410864459317,0.028443949429835115,0.3437938831792795,0.36416765351157115,0.4527082920733316,2.287541528323449
-0.2687974859184019,0.885827387891383,-0.10205678469772751,-0.03157616113513215,0.25602493088078226,0.3089885356426522,0.392392696095869,2.3532988544599296
-0.22501425906634276,0.9182477687985514,-0.04531364699442652,-0.002485565328996522,0.3784514485168686,0.4168732833160022,0.5120689562917383,2.34719272520074
-0.21502267360844893,0.9563662697747733,-0.027042263524750483,0.025703477317537575,0.4869897759785066,0.4486119505872232,0.5532866659344257,2.3916236428935247
-0.18865414372014216,0.8914781671407124,-0.005994193691082314,0.07027697085858879,0.40900933966705505,0.44389538923612964,0.5175077531763639,2.343673343254726
-0.2244986330901812,0.8665569151369247,-0.02085365596136905,0.048451199324576075,0.30495702380993617,0.31785153750584466,0.4019174705743724,2.3970123920886497
-0.24325069765588503,0.8473539617181276,-0.07232088510178297,-0.04724335267185131,0.21723563422734438,0.21958372987387745,0.28979888381739916,2.256166584620018
-0.19665583720437566,0.851134337268972,-0.04013800070360746,0.03992049835851913,0.427093280990097,0.4092991205006026,0.5153045520523702,2.3504231206722994
-0.1954075056275965,0.8624624069331102,0.005135206770182976,0.07983704946074315,0.48351568960786995,0.4745945617537774,0.5774979174571115,2.331286263516987
-0.1941562123569429,0.8835841497922493,0.005281782366696661,0.064257453752913,0.4008735262719241,0.40804488729079247,0.5041104041501243,2.2959175939455774
-0.22891871412969514,0.9075298047537533,-0.0416469025204836,-0.006546641066878566,0.3125433849722425,0.35089479619704816,0.41022191682240466,2.379949268972764
-0.24288111294784923,0.884735929374166,-0.08957142250564994,-0.041022198680678135,0.19326932457676532,0.1990510861525298,0.30892234457338513,2.317305024364742
-0.1997163591656236,0.8782454724109686,-0.02937559619085383,0.049832558672254536,0.43361781261926047,0.4123299340743776,0.5414951856380341,2.3868754328645094
-0.18465327699974074,0.8848621783738249,-0.012642030034765293,0.047566430515227805,0.4254601120624287,0.43652638707157454,0.5686490409904937,2.354717761531209
-0.20984258973638273,0.872012025957825,-0.022296002344609725,0.045300015715787706,0.389167549995787,0.3749723041740878,0.4766055902071291,2.3320515085993887
-0.2388581329278362,0.8653091872289465,-0.05184196292449148,-0.0056206285782192415,0.23896706880312205,0.30459861250684994,0.3619414456866347,2.301768135858253
-0.2467378611672756,0.9270231614043949,-0.10977509957490447,-0.054853408928106334,0.18498000495750494,0.239085470505399,0.3000462965924235,2.3741254973176593
-0.17929828097262546,0.8821572146609228,-0.024422455683638173,0.04846989146722413,0.4144394218241766,0.4482866194631113,0.5387351853652529,2.382104575089675
-0.19777240265719986,0.9085878821324775,-0.006540483386713399,0.049355992618703555,0.3882210276739161,0.39380211974378687,0.5129264621586248,2.398947274625623
-0.20853571830290293,0.8926626746124525,-0.016350454519139957,0.014667904490941807,0.3337614403254702,0.3234856465528159,0.4405856289461618,2.306223093413469
-0.2445886915421777,0.8664057153022823,-0.0996102933206427,-0.04313924975598461,0.22212812689060954,0.2383178402914227,0.3228883098906637,2.281419144348755
-0.23783703221848124,0.8750281601550619,-0.06130030151117422,0.0010819785878491647,0.29259034398840866,0.2931728020158282,0.36821480365851167,2.2969551795448853
-0.18914185619244342,0.9368483893892621,-0.02387757177424631,0.07146477714596917,0.4573140847303634,0.44462829955433264,0.5184419833844058,2.347231276995293
-0.19419329982975594,0.9211852684681167,-0.02769508219566565,0.03014857672630071,0.3929263517094638,0.3999809819180703,0.503220652122261,2.401102316132176
-0.21957395279630565,0.9441473075298147,-0.06600358170105752,-0.008563980734436287,0.2680124112089872,0.3254405380474421,0.39476755339854824,2.3198660867574787
-0.2676437021840075,0.9354772805097715,-0.10676458356576915,-0.04250928417943229,0.2428039594630421,0.25308879273881757,0.3467305638261353,2.293604416657746
-0.20096261849425895,0.9247112466585073,-0.01538529892949844,0.04298233404188334,0.4710286822621095,0.4875360715030138,0.6076473632446453,2.3798183871652854
-0.19491279333722852,0.890912259093943,-0.038932012317649124,0.03209325217090705,0.43685159317168226,0.4711950881977733,0.5589582216069193,2.3688489793919523
-0.2156490824022486,0.9234866943916907,-0.046699509393058926,0.02111158576340488,0.3437082856218728,0.3792931565783875,0.5040181393912719,2.3480187814813824
-0.24565161171459768,0.9261265261048199,-0.08324363054951754,-0.06035685020735868,0.2739805849336214,0.2817193817761707,0.3864614271032687,2.2967772841787153
-0.20508483203148278,0.922449626193981,-0.045973621997864686,0.05619266817494186,0.490902612820933,0.46930564909465466,0.6029922848451641,2.30260808916542
-0.18969325801289647,0.9447607793189061,-0.011831832819531206,0.03455032050287496,0.4833037796369501,0.4945479219679716,0.6272560810527407,2.375102814474403
-0.2125269704239511,0.8543730214519631,-0.04504981756015813,0.01859515805216796,0.39886999029506515,0.4214958418750749,0.5345867778648254,2.297876213403871
-0.22649692465277713,0.8887567158714396,-0.06002920884966966,-0.039718284945822725,0.2991307548622517,0.34377823483025705,0.43782707546258803,2.4126422706521873
-0.2267048649375454,0.9104425144273348,-0.08524206503960055,-0.05194745504503871,0.24270998346897224,0.2977816948337177,0.3766158674126413,2.3252928480239383
-0.20606703645591246,0.9274364259951258,-0.02776230547120679,0.03832857076494593,0.44076569125559056,0.4786088034622366,0.6080423389104964,2.3991424420659495
-0.20517605858261495,0.9473341698332206,-0.016953915022939955,0.016215678556270204,0.41474533299081684,0.4724960524781126,0.588350193480643,2.3440695164606433
-0.2138802354287767,0.9209907202404299,-0.06993923671199571,-0.003079741586248156,0.36015860181552245,0.4221516338202646,0.4991794384776717,2.4449594741443637
-0.2351342217785307,0.9088778931910034,-0.09368053193984888,-0.0324290282341925,0.27204207021277893,0.3255577266021463,0.43078101569294663,2.379947088361454
-0.23142179133584215,0.9275938175435193,-0.059114648258753816,-0.01860489775836347,0.35599159925180385,0.3833020479012803,0.482017046647193,2.3146587439421697
-0.19491663285949665,0.945412536478026,-0.04877836640648379,0.02676604657971677,0.468960289934559,0.539679302597441,0.6142299537364649,2.341005718618193
-0.19373447559192036,0.9160475454081173,-0.056357683357570056,0.01625253474898188,0.41544154469302974,0.5051955388165561,0.5550777943605373,2.3496526780286
-0.23273630542767093,0.8860636212627512,-0.06209115161460803,-0.023519214843902316,0.32815334670902524,0.4026779227627203,0.47125862469439767,2.3119936390340117
-0.23446614812517746,0.9175707242488602,-0.10818047334552673,-0.04723725929263965,0.25048771958167615,0.27259800764778575,0.3648396004560491,2.3004069325929155
-0.22451959259953716,0.9101152337015035,-0.09012507304215478,-0.019859819649761253,0.3787616595444096,0.4168808253390727,0.5360503910623549,2.3570137686561345
-0.20734809365540582,0.9421217410273028,-0.02783648807842474,0.06844347108915862,0.48860759609827276,0.5180886907589087,0.655338982085134,2.3069910229169706
-0.21282624023621374,0.8817834919372128,-0.016705620197540978,0.015163347088943947,0.4711165008402176,0.4774446818470569,0.6036234633783356,2.394072592885232
-0.24344361837702266,0.9197375513500451,-0.09893221351671082,-0.027875771827426066,0.3531954150440642,0.38447449525559885,0.4909296538077368,2.404532148387702
-0.2563402975104382,0.9227335872242386,-0.11128675529685302,-0.08820285367133189,0.2478941815397789,0.30071028210088024,0.3940584934603788,2.306197849388797
-0.2579762387599543,0.9287406026316863,-0.11866365243664784,-0.10160322897665328,0.25842093155768114,0.27919735455215994,0.35454473929586294,2.3317951610267866
-0.211818707312282,0.9735383377069428,-0.06375526645395138,-0.021784054054197144,0.49620461820888456,0.4634409491395788,0.6306521709386838,2.459461624046463
-0.20563528059882757,0.9426807931574005,-0.07496397855789894,-0.00464399156043919,0.4631023315055757,0.4441705777985722,0.5744625110764829,2.386215768301566
-0.2346705661208846,0.9116443720216824,-0.08295964182215065,-0.05835122121695961,0.36066041959551715,0.35121874224002003,0.5063187667451173,2.4146765691991336
-0.25139163501874173,0.8978028249119664,-0.14602348494454756,-0.07927143080926677,0.285886136704213,0.27399566628384775,0.3549062077605473,2.304106042909573
-0.2774212701484373,0.9227190603825772,-0.13668923352374548,-0.1390414150583693,0.19025393343066352,0.16588276219107714,0.2721178894290569,2.35322210399429
-0.24896140581162848,0.9049650610269342,-0.1034417840322223,-0.07142159025323734,0.3685657802598394,0.38249495325437255,0.48213302738090064,2.393346188106354
-0.22559240114416568,0.9183725036442548,-0.07880017217463693,-0.04146995849253315,0.4148469123836495,0.371459079445694,0.5119166387430735,2.36106200663231
-0.2350777984782478,0.912989742253817,-0.10810685192657067,-0.017337236271466848,0.366417627625354,0.3475317935895725,0.4438131429018157,2.3745970097599325
-0.26782161592294407,0.9596927593581823,-0.13218203923999491,-0.12362081319992486,0.25956020240681826,0.26572079742321975,0.34937476932371664,2.352428356571631
-0.2910525726712366,0.9500459195609674,-0.16427582512371403,-0.18345603069967117,0.18430867465099982,0.1627214059095646,0.23021769053518518,2.322757342003707
-0.2692122233941842,0.9637281960719245,-0.16128379085766056,-0.13147127236534983,0.34004693751337567,0.32652026102249254,0.39581153594208446,2.371394728025808
-0.2383929689965459,0.936951412052716,-0.10377643723013064,-0.07140763587185617,0.4167346586320532,0.3719860978125968,0.4852227595194584,2.3910218160043772
-0.24741571513245586,0.9282465511041768,-0.11972551082494835,-0.10243113128514977,0.3837541321315055,0.3500125583964139,0.428831161419075,2.378100809899347
-0.27458215773947947,0.8987223581799012,-0.1563807852181819,-0.14551351088323664,0.26093601495048735,0.23164236297372118,0.3155793382025459,2.3908298641561565
-0.2928875795224767,0.9249066050798109,-0.17243054469596375,-0.18464569168325368,0.14947024896232433,0.13851523744948727,0.20245965991508377,2.3705528002859997
-0.28711857180033584,0.9136834259877535,-0.18167161744543656,-0.16526783363736103,0.22716100794199406,0.16452967584198674,0.2710618921451781,2.282613395753855
-0.2374953608760977,0.9156128547138949,-0.09364189851171242,-0.08606814049967593,0.4024249663554755,0.3751534479859594,0.4666845081896604,2.407095536938497
-0.2554565575521803,0.9277565443977803,-0.1253735231488735,-0.07585466350168887,0.3712984378847162,0.33745774912362336,0.3856631782745312,2.3712376464145684
-0.24759326530757267,0.9621695780002981,-0.12544690423922414,-0.1284647880356255,0.28124893951659313,0.22512664306305646,0.3529631204662919,2.3860996535998567
-0.2908002979753966,0.9155317287687106,-0.18880605466326356,-0.14779083398860204,0.16768487156428033,0.1447958040153218,0.20919292516796378,2.327862132425878
-0.3089745005445252,0.906934313495652,-0.21222696751844572,-0.19572232649393492,0.12590369068736368,0.07203689061257106,0.21969508855355133,2.3421767840045726
-0.2663601031401589,0.9567902324563334,-0.1318410933091514,-0.09226824217094051,0.36201888872538024,0.32034527484764125,0.40446647884230824,2.3498009706651324
-0.2750913784371472,0.9305517258637315,-0.14318975968213013,-0.11296487346667622,0.3081583618366166,0.2950021169804773,0.39627476477219703,2.2978127199893295
-0.2723512185954038,0.9515940801514261,-0.15889388242100624,-0.1359221130228378,0.28383735147375033,0.2557474261247781,0.307196102459661,2.32193059073883
-0.30133639258428535,0.8981256913467389,-0.19395493640122574,-0.1750873436511774,0.16974655874207958,0.1589044742264464,0.19823234693920605,2.298529841296427
-0.33169814066021536,0.9308775146967154,-0.25568279850943165,-0.23184847240997847,0.12809048837196307,0.05663353314474763,0.1238257215553342,2.3602318995634435
-0.2623414132030844,0.9293088725458639,-0.162136149224689,-0.1192245831628119,0.3177709513962946,0.25404595584009493,0.36539482936685347,2.331918844139254
-0.26123688472711143,0.9242006889944557,-0.12019324299573968,-0.11343951260790076,0.3124531659290453,0.2703405017171046,0.3341209503697029,2.330942306587819
-0.2553067520283008,0.939007450448471,-0.13216826126495107,-0.1434827305018289,0.23885358009215785,0.22700291476042112,0.28034602455045626,2.3525398028863584
-0.3055569567598286,0.9187905011030414,-0.19809204216568993,-0.1458871468291512,0.17425705299767796,0.1150138237453479,0.17992208007048852,2.3290616992932662
-0.32249412030928604,0.9199362145985941,-0.2271783871021892,-0.17915584604400905,0.0786838290602198,0.03620388076324752,0.10264544680886681,2.275764262510165
-0.2630695452861885,0.8990260502178897,-0.15661617952875115,-0.09022224228258843,0.3047691090330445,0.28441049639419264,0.35494219220617873,2.3760999429769676
-0.24836587366145582,0.909253774804099,-0.12757075508069793,-0.11108200842020892,0.3122315937377117,0.2676061080447477,0.37038198826574187,2.413449747782241
-0.2531302898357522,0.8714915246351962,-0.14943870305120108,-0.09619331821873826,0.2871137793527704,0.23526540487104183,0.31967692637755685,2.319219373982135
-0.2919056220556554,0.8882918921808051,-0.16702188478296287,-0.1434921392735362,0.17942268337011094,0.14903319811494598,0.16856490710665833,2.4642879123886
-0.29281614699045405,0.8563731552368734,-0.198069329702316,-0.14813133224447947,0.14262807454859577,0.06081444685612145,0.14740007306750638,2.3358717698364453
-0.22419508540612101,0.9009987035091983,-0.08021155318310107,-0.01436296053005291,0.3676466242147362,0.31194526034307724,0.43664049890985207,2.3231473219670007
-0.21311317960438111,0.8770511701175339,-0.03804088333294108,-0.025558623453334078,0.38622840595409913,0.29998679485477375,0.3480943401107905,2.352789842529401
-0.23349333391116975,0.8473229487128681,-0.11118084699634313,-0.034243480478934954,0.2869196521601908,0.23996953652468428,0.33264218854234084,2.3882751937275515
-0.2683004957117233,0.8271852808739673,-0.14957646040543884,-0.08619028865161342,0.18656114257598874,0.13653883576018622,0.19755394637272022,2.2940957957884303
-0.2673537012757515,0.9175798050705081,-0.14884142252986182,-0.09525293407134183,0.23708900189514448,0.18205772365744147,0.26845678706711695,2.441854086782964
-0.23485624054676538,0.9012758138301726,-0.09274055078341197,-0.03819476709723367,0.3344275558939611,0.3053305307907494,0.4141071624009925,2.345647480134057
-0.2357354383656835,0.8604088039545079,-0.08307597488769497,-0.07520576422890315,0.30224245227081253,0.2762077203633406,0.3806625857400954,2.390942746557703
-0.25103462914983987,0.8732540006956117,-0.10939514548694565,-0.08532272647773301,0.2301734723102575,0.20805291849501742,0.3129549651551862,2.450676372428873
-0.28484000203154486,0.9414340207435208,-0.1480253597190848,-0.10460408668677351,0.23339989890529722,0.1906157616222976,0.31661459188343055,2.380452660284845
-0.2386240903510694,0.9014270808938051,-0.07332185648921502,-0.03002212741091,0.3910031578594857,0.34556255438788813,0.45375664921629016,2.405074790505779
-0.2185936233665406,0.8841481900310203,-0.08952407049443328,-0.020987971619428687,0.333328689671044,0.30665103548210776,0.35883093151504497,2.399314071757274
-0.2642421280771631,0.8701496104386011,-0.1101130997236653,-0.06925483517953336,0.28674120104354645,0.2417599684182259,0.3371512556147532,2.4124147670356457
-0.2846745958452086,0.8528745309379013,-0.13537298638028228,-0.06378268781611503,0.23969067113557216,0.2218143100934571,0.3153409519395501,2.399290040664437
-0.2197060767760894,0.8731796296892205,-0.05372079069496007,0.035796109593120386,0.4462344779445355,0.4112538856221796,0.491876885436856,2.419803253579303
-0.21968124404323605,0.9115388379290447,-0.032376081998087884,-0.017509811502411095,0.4434821153749698,0.37317892792250035,0.5018207284222993,2.496665653200174
-0.2445695794845848,0.8551989039914508,-0.06994198321389285,-0.02524363157877932,0.3558185936320491,0.30670555771112873,0.4386089048875392,2.4032011951401486
-0.24358788195548495,0.8999052179432437,-0.11371822207674344,-0.07797528191856488,0.25859569169000973,0.23789433845783187,0.3183560174663805,2.4708556242064166
-0.21867178890979272,0.8194765437528982,-0.061138008697777003,0.009711308804865306,0.4501029242273652,0.4332475665393372,0.5392334977922426,2.460975355533169
-0.2101648741936008,0.8693707434790874,-0.02973142021196434,0.05307172534163501,0.5015628076040768,0.4777989881130164,0.5965263836332684,2.4915723610834135
-0.2164841456172596,0.8629429573972446,-0.038871889233871804,0.011532117422911506,0.42661907480334404,0.42056322664277446,0.5297595463475471,2.429356217718703
-0.26192125772318664,0.8857146279499009,-0.07282285441980538,-0.009127073161409304,0.32186809521318877,0.32546452643684776,0.405392982581565,2.478981954902546
-0.2592919924781319,0.8557781220626108,-0.12694897488363674,-0.04886474166252096,0.26796451368147906,0.2578777083525307,0.3584225408907057,2.5330473618096336
-0.22336642548593216,0.8425546060691956,-0.04534323325224771,0.025198341657587615,0.5115883346617113,0.5146744378522347,0.6005481266676396,2.6255877283601388
-0.21909200461993464,0.8100369581827619,-0.04662024398848273,0.004423069662457419,0.4934224043222605,0.4991342469439869,0.600393396118939,2.595544053217229
-0.24200591849667638,0.8379403709144724,-0.05801246277933323,-0.010722446875868706,0.43041831654848794,0.4400321450368057,0.5245134338944814,2.5825285325550635
-0.2685609700059323,0.8211777717416089,-0.117937396602584,-0.0320020545407647,0.34435686053366665,0.31677443488833,0.42380398888159776,2.545793527102978
-0.2309925483633022,0.8349650513560835,-0.10489024930354277,-0.03200827730293686,0.4234347972675707,0.39328273815326925,0.5019747838667152,2.5823290368545755
-0.2042555748214834,0.8354850408308206,-0.03463344996726895,0.041530696158489554,0.4984686878451517,0.4933530673944063,0.6616671392997686,2.54098659406896
-0.23206480796069684,0.8394281936221789,-0.06217528034509031,0.00588431735081813,0.45777948123804213,0.4418236003077871,0.5368179328418854,2.4534929872161535
-0.25007744798373827,0.8713347003394041,-0.09082012517684199,-0.004010605307573434,0.36416262014689105,0.36628673754226215,0.486468025028593,2.4415053527094273
-0.24077462751744327,0.8945545507050471,-0.11682374493639779,-0.06596241810923657,0.34102516089772017,0.32293195315351264,0.4399705441576532,2.43011693047294
-0.18724791848490469,0.8350034275353205,0.02200587732142401,0.12398220228658403,0.6197237944790762,0.601183751864256,0.7122555696368773,2.41901103749594
-0.15843217909257984,0.8429417127516393,0.04530038550024234,0.1697150337808284,0.5892682245732643,0.6362761071659796,0.7204336911283237,2.4471217538702104
-0.16973228418428324,0.8329264187789689,0.010973329908382136,0.06853031958910226,0.4794754302116618,0.4778338810793512,0.5718138134047186,2.425112353944245
-0.19264978480250255,0.809229249826993,-0.022820535671013744,0.04523626652136556,0.3220285188156588,0.3608566458748014,0.44815836044815943,2.42440289841112
-0.1721086725414521,0.8048021199552515,0.06399520533313671,0.12729952255835988,0.44875028513049187,0.4940023548662176,0.5872336927034804,2.4147289236730836
-0.14692971803546073,0.8349056742295211,0.07236635810526332,0.18092267897755263,0.4970778838295226,0.5559865689381487,0.6322304292599596,2.4380817927538856
-0.16019891195537458,0.8440722571955922,0.06447579945970562,0.17763697479473028,0.4321710658367421,0.4596446023169881,0.5992292935051917,2.5336928560163585
-0.22338880096922933,0.9002143601207571,-0.07673344911781117,0.02912085063459633,0.3394690906564501,0.3758848562493717,0.5077360480120671,2.475006198670227
-0.25617553956491,0.8446070946876635,-0.09225556754915559,-0.015065748967441898,0.4388895669030981,0.41893018845193597,0.5535594501898384,2.3539976037849386
-0.16476491720942163,0.9199753590088848,-0.005087900953649082,0.09321440734238376,0.4986951064284045,0.501997554146237,0.6781716469081626,2.420261813049033
-0.17427025672814758,0.8649103028753355,0.010888837904741034,0.08013210206244012,0.4540204848451297,0.45010797146783044,0.6284005826203415,2.3780254455202523
-0.21519353643776915,0.8898567964462971,-0.04883608303737371,0.053941017603836856,0.3324263963402223,0.3460420841260874,0.4832554806293697,2.4262840620627264
-0.1782650625918901,0.8671141393579153,-0.016610031597888715,0.05736305430012553,0.40280593074032706,0.40932464219462594,0.5472109832405175,2.3913832792320027
-0.15410985721066148,0.861138759229269,0.07127259315695351,0.13387751534359765,0.49150296938147076,0.5344228148409698,0.6527716874872261,2.381328362081858
-0.1787991256644817,0.886051582553339,0.05579128519684812,0.12764966293691937,0.45394960935634954,0.46528961705752236,0.5753840970060035,2.4493574525957817
-0.21737461346220163,0.8267033331853292,0.008577667215937498,0.0753361328699371,0.3707987307832502,0.4081392383791893,0.5064390304066649,2.3164007036931027
-0.19382862832821735,0.8950156208299714,-0.01986851911959574,0.05163535412906688,0.37264086924592943,0.3929277874407868,0.4818054650935189,2.351916695627853
-0.17047987068298917,0.8584987809926007,0.025888489915101814,0.12689149945473535,0.5554336029131292,0.5668077605499138,0.6504372560335592,2.4606595128238555
-0.15337148366513484,0.8551909763270218,0.028651822885130393,0.14216778186730863,0.4957260555571846,0.4987464235341155,0.5895932563277794,2.3712897759545917
-0.19255420277272878,0.8579751373481114,-0.0035216431696968886,0.06110909443564607,0.36760523255525357,0.3944374737400146,0.46853512284478327,2.4732639543446076
-0.20498265075078512,0.8820444687520853,-0.04907753649687279,0.006269605937274796,0.27828171931704926,0.28426539614761204,0.4019938236728258,2.427102690371381
-0.16390125844938316,0.8803187971074922,-0.0028532300129674735,0.1057691990382912,0.5228789056484101,0.5112831143362924,0.5629783378629757,2.447690336088863
-0.16183135403108675,0.8671275118139655,0.024919555313286785,0.10706778614955349,0.5200941319178568,0.4867875437292666,0.5911103522926817,2.4267940418133622
-0.17726810557620454,0.8814826833950229,-0.005177069233024576,0.07257563650267035,0.4244210530236306,0.41081777060579017,0.5046169969725494,2.4894380785038512
-0.20467343680403166,0.8244527144811802,-0.05143322296072289,0.030390541049653167,0.295351338479839,0.29264639577656787,0.3820970274136,2.4682369384275127
-0.2021666991172109,0.837824990928356,-0.040499155228134714,-0.019462510011800153,0.31760529079941263,0.2890561721673426,0.3589258149516553,2.412391535048946
-0.17356239979414537,0.888038019510241,-0.0032119961516450177,0.0527410956290347,0.4558207843473775,0.43465045806450053,0.5109043128215319,2.4856053421785127
-0.18058014575075743,0.9043521228345038,-0.002477514792757279,0.02690019968940561,0.3862641308396268,0.38607474947341613,0.488413563209379,2.4715369231344373
-0.2082513582494696,0.881329055811016,-0.03671078457989899,0.02210722229794482,0.2855402961427009,0.2513180719811938,0.3658562874919598,2.394282997167348
-0.2305434603178596,0.9048144361564704,-0.12845435984472056,-0.06932562197307547,0.2100372953293537,0.18127349278731886,0.27792494657786976,2.397211347049598
-0.18434539814901263,0.8229774490047016,-0.04620761889278696,-0.010947216846431363,0.4430762226735091,0.38617741462968747,0.47461214377176886,2.418471476617033
-0.21702114435433584,0.8732964373989995,-0.05637805569199637,0.0044809820600150135,0.37012458419790717,0.3247236666312876,0.4334574781174593,2.43717993969207
-0.21750378249816646,0.9185034154633487,-0.09552518410807825,-0.06839679196617209,0.30716514034116477,0.2700752444464252,0.36821454041435964,2.3280597276859907
-0.24795495938432477,0.8672808446416025,-0.11174703364485782,-0.08104664903625401,0.2544366752380851,0.19917539420539435,0.2978046071706215,2.3484537087527304
-0.20305258573062235,0.9109609072899464,-0.025590174938456566,-0.009693891140708828,0.45491053428690953,0.3895872113524044,0.42770262521110974,2.281264390269765
-0.20177513049496157,0.8722375456176871,-0.04024370284976073,-0.007660481467154417,0.40490365638631853,0.32631544950735547,0.4287324005089793,2.349275558101017
-0.21550880446586407,0.8713760390041193,-0.0628410422127424,-0.031388581046374465,0.3475270879275668,0.2679760894268809,0.34858317735253824,2.4261728231593103
-0.23369320073717553,0.8350427435220805,-0.1143228650033397,-0.07727408941844845,0.24920756423014098,0.1743185708157798,0.2293588108268573,2.351496970048963
-0.19095279677415464,0.8887770250012645,-0.05095889911590688,-0.0048671032914930175,0.4574510675710811,0.3522125909481172,0.43312328925363,2.3707827703526534
-0.17173780114879011,0.8609292485528681,-0.027544267691297617,0.04759884305247225,0.4592676345929918,0.37170316647245777,0.47417879554610826,2.299065329087371
-0.19080772606707458,0.8450738902045002,-0.027586085231871966,0.029943093215783045,0.3678727454084264,0.3255063297505539,0.38557244774026994,2.3689429820333463
-0.21634683348848657,0.8331257432848362,-0.07983904089896751,-0.06132909392710697,0.2607716911278988,0.215810353740957,0.2548704859532478,2.356600236068291
-0.22888115223353092,0.8476274118850894,-0.11337387479499172,-0.0638846819738458,0.23705852704026925,0.19416298060782147,0.2862915806046157,2.4172519309799747
-0.15993634747278374,0.8772037232453485,-0.020638935385555127,0.05238280153986881,0.4975399717769503,0.3961828855734833,0.49327465760608824,2.378053272275376
-0.18137109215585706,0.8570443721101718,-0.001285043739373723,0.02337525972758555,0.41263584655108615,0.34739062456456915,0.44294562379075086,2.3510167528837074
-0.18217422524674037,0.861957328505888,-0.05817376889422989,-0.022569765123442193,0.3537264277599337,0.25898624005317256,0.31586066019166875,2.3185104993428887
-0.21830296822753695,0.8355914551401611,-0.09565566151027108,-0.08966569850851207,0.21199220786509076,0.15624527629325444,0.24597700566164155,2.3030975250896746
-0.25502267612442653,0.846542007111339,-0.16412680756919582,-0.12183049762451782,0.1355555367870364,0.028876676199783295,0.114800033175196,2.3583820935358535
-0.23682364843421394,0.8656753518981073,-0.13339188053844245,-0.13969613140738174,0.2556001435396325,0.17156889204255502,0.22985101002100763,2.442952730892722
-0.1942690262384131,0.8466026960051294,-0.06934058874981985,-0.033934780352125465,0.38853531480027426,0.31905930161531115,0.393235156010281,2.326060593222287
-0.20054581899025803,0.8573330016811767,-0.10071972868697783,-0.04801693003662094,0.3269227182809844,0.2461877810402933,0.3478232291005373,2.3265646707845478
-0.22547609381705686,0.8599936280772899,-0.12142449671552108,-0.10087621273775063,0.23934205565712813,0.18486983425169612,0.21935379033014896,2.311152097451402
-0.24763057086493478,0.8481068197329475,-0.18668678971894614,-0.15154932351950598,0.1643285790318585,0.04948385683766811,0.13323218630858094,2.3925332118131526
-0.29469078149046946,0.8183943550682728,-0.22557208993510386,-0.2011859676479605,0.09196708194723363,3.855094695458507E-4,0.04883270440255884,2.3273561272152947
-0.2453014793090412,0.8807012616600561,-0.14344672280030432,-0.12939701458563338,0.33282705410891206,0.24906610766314177,0.2938176800620416,2.3880300662849265
-0.22605995094430764,0.8231052055181228,-0.13858628634028305,-0.12538185870826085,0.2842975045354412,0.23996854945331073,0.33328182698845205,2.292871918495396
-0.24972131226013983,0.835467310563746,-0.1425218869701025,-0.1407588575663938,0.2630207352813852,0.19744593095962262,0.23279135170247256,2.3160411453094922
-0.2650880981432527,0.7768927553735713,-0.19977797119926527,-0.16468593434258505,0.17961018376813573,0.07397239041421912,0.1372106378060726,2.3401148452764122
-0.3044948376663643,0.8264268552443013,-0.19586720638561628,-0.21270766957798362,0.07871040199674419,-0.01884610970590912,0.047575989284089355,2.3295602492775287
-0.2688467568950635,0.8705758978475387,-0.15730844051177997,-0.12889792813226494,0.2591091367349033,0.1903725279909923,0.252089433996728,2.3725868747938197
-0.26751404563829356,0.8845561140484005,-0.16551172235696626,-0.15377565133462942,0.28704378709135436,0.217140705638094,0.2554563014509325,2.3339147166469734
-0.24666803328186815,0.9110281938908739,-0.18942107955095544,-0.14637167093114414,0.24287182437319688,0.11588764834138132,0.20259334871301835,2.3134730576567986
-0.28283119600888723,0.7619074424963412,-0.21065825857287052,-0.18619330231764436,0.12495654776128491,0.04049804522058205,0.06401290030959003,2.314433032326892
-0.2990674611433723,0.847623566081204,-0.24025010164965688,-0.24904107545051504,0.007920127896297731,-0.06338672626362525,-0.001420177975405897,2.244653628187593
-0.2858686741879472,0.8245049687062822,-0.19443467843833834,-0.1794039070580332,0.19404256018818994,0.07286422749103882,0.14102327222028507,2.2984551790004106
-0.26871958945158675,0.8248959966501663,-0.16559572479075593,-0.14517516948954687,0.1971569074987658,0.09463417425290174,0.18667403669159194,2.3410924562911966
-0.271060500464023,0.8711772790823875,-0.21066056194355676,-0.18855549258712662,0.13586558886522856,0.049949992626656343,0.11331334815559099,2.3441227188698606
-0.3138887549862769,0.8631664862253466,-0.2284298240555755,-0.22796247767641817,0.06717249254642653,-0.003512972055359127,0.02915769563069495,2.369336939079756
-0.3018236218230614,0.815857435910199,-0.23377259381941462,-0.2275738871968699,0.07605918940790392,-0.013259027668499773,0.007522665907173036,2.31527407339668
-0.2618897826114275,0.8064687368866692,-0.15877218166720566,-0.1389492084824955,0.20473172297017225,0.11473914664984682,0.20172865970285894,2.385314110077815
-0.26506210535684244,0.8223913160114069,-0.21919952682767463,-0.18228181062760626,0.17323453898508834,0.07990780678397719,0.10524422483218372,2.437339450024467
-0.30093259487772833,0.7975360319862942,-0.2276906251964965,-0.23359959798995955,0.09003118093401342,-0.0010837200505070682,0.05685175045896306,2.3526849526691027
-0.29335877835974267,0.8243064219826062,-0.2546397530606238,-0.21796570136391388,0.050570535455624996,-0.022511600512601183,0.04915970901704575,2.3285403288247273
-0.24594237847507075,0.87599949307243,-0.15486519752567515,-0.1119637856333898,0.2806714367842521,0.16680807749191995,0.1908830511618086,2.4198109649775366
-0.24281815624203856,0.7801149048800777,-0.17211837190373608,-0.14497063422763012,0.21167763362046008,0.10035143918295515,0.21794452566686595,2.396023544049081
-0.2859859516291443,0.7955123163330755,-0.20430501252637268,-0.17072674066263574,0.1272557851652993,0.04247020928795062,0.12254311316089309,2.400918476033432
-0.2741088041374425,0.8030032438480853,-0.18192800553978467,-0.1673505906244879,0.1799897674249726,0.03940091282107458,0.11037967909437528,2.286795064160535
-0.25376421459611953,0.8510071322154986,-0.128725239374335,-0.078936258504704,0.32718800076777343,0.20938706048396438,0.2855795514683211,2.4184682512263285
-0.2516673333828945,0.8757926393063241,-0.13349692907527122,-0.09053929348432686,0.24659710960945774,0.16258497209672285,0.2099676747620993,2.3947872100945724
-0.2581799569158905,0.838259715400192,-0.12334188873695454,-0.12517044258870955,0.182068001200053,0.09306264990056615,0.12479492310819562,2.3465203200419698
-0.24736306542062617,0.8655309565188425,-0.1405693715100963,-0.11372866997295585,0.27934916790163283,0.1778977098195859,0.22572092525938053,2.3697949979630395
-0.2408378492835353,0.8232682092119006,-0.09763678877693568,-0.048061790080438496,0.3947448229425504,0.2771264722020576,0.308780849502846,2.3521226052706625
-0.24651088858710096,0.8760452375051518,-0.10741626116760641,-0.07580360732513633,0.341204429920197,0.2246455711390822,0.260474478112193,2.461186715011706
-0.23950186292701217,0.8731436319906287,-0.15579691101241228,-0.08027615918108126,0.24886106342759676,0.1506562926672167,0.2063974717840975,2.396123305213346
-0.19594435764002213,0.8457659545991645,-0.0968134841706061,-0.011903563962079875,0.44358914879575984,0.32145738289303705,0.39502431030904084,2.4308892446508583
-0.22069114495704661,0.8752231702189723,-0.07050118108941879,0.006743700478779405,0.42160245896440035,0.3118891233786785,0.38123783318858073,2.3937043560260896
-0.22231363104837287,0.9103792587670388,-0.09993389901771751,-0.044704770183320294,0.37347075743515734,0.25940916884278403,0.3357404901896087,2.521777815151654
-0.23378555946800783,0.8831419333789622,-0.10111248647825175,-0.0690790451649692,0.35476399775259704,0.25968557006493614,0.3210265612070318,2.455526303273136
-0.21237332252361052,0.8567640932161283,-0.03379252449275273,0.03297483499918069,0.5126613267149879,0.4274912726679668,0.5311804043809564,2.538862176427802
-0.21363665666901469,0.8829521413765273,-0.03306555051666753,0.031382123875113556,0.5328231786626227,0.3966970454005209,0.4813446902719994,2.482740101660768
-0.2326254526620882,0.8708215398129838,-0.06477430483414016,0.023109646993297667,0.42164975478305505,0.32511698147185275,0.41888525089057915,2.3829915268103554
-0.2090932814378349,0.9213769919260625,-0.04385989606634994,0.018073324628603255,0.5148014670554136,0.38061426282098826,0.4362043879648534,2.4946065823991534
-0.17185283154497694,0.9313314603568525,0.018797417031344632,0.08911525284343681,0.662204131156607,0.533319583814149,0.6296008067523586,2.5222735933227365
-0.19859125668872826,0.9386459828062558,0.006225170087183663,0.07335963383385832,0.5919864695473628,0.4564370612390331,0.5039183621784826,2.4243670130683994
-0.2015768144101175,0.9308085280156017,-0.023605480754473076,0.04745272423012619,0.5055804705353918,0.3781854500420239,0.4243294911246406,2.517896114236565
-0.21338367011698242,0.885705572229054,-0.039416057934095895,0.023267748774935162,0.4694197965453161,0.3415333123236883,0.3790342281004276,2.408873743618945
-0.1637338534198215,0.945663491319615,0.012867895027266613,0.0953340019747954,0.7277675792462337,0.5835208056704866,0.637255525467293,2.512392746907439
-0.15750514035383664,0.9497428552994669,0.037267103122589657,0.10953470027772409,0.7201973232854317,0.573463510463909,0.6579327407179435,2.496554637585087
-0.17882067911647168,0.940994713896461,0.0030319106177883275,0.09471812377036808,0.6053128305632441,0.5167733790988871,0.5612848052935757,2.4323663615484485
-0.18629978938163333,0.9148446701188822,-0.007722990643245002,0.05206191208906561,0.5037786818464386,0.39021415757175554,0.47043231349587256,2.4413247790747814
-0.18582830209344586,0.9292678326943582,-0.006542248813842714,0.05963984645164461,0.552551047629763,0.4007093885668191,0.42641886774734455,2.4364579784990483
-0.1543948172290261,0.8859188077191797,0.07539434443113144,0.12892143874453266,0.7625139668778218,0.6272406432810179,0.6826981224941117,2.5225014045589704
-0.14501587142007574,0.9365420181935656,0.08032827739904702,0.13613591935318128,0.7495999899502042,0.6064428514274327,0.6740300069468195,2.5043607822175997
-0.16074385400779648,0.9389084168762509,0.06440251469965123,0.10343653498424728,0.6272132315695893,0.5208970832760246,0.5528970894434255,2.509059390453942
-0.17005672640105723,0.9243203367469661,0.01268579342200056,0.05771403621094685,0.5230132400728372,0.4245532771874089,0.4770537566259938,2.50147451215271
-0.18797131468140257,0.8901393086250092,0.036933123696888885,0.061253541422176996,0.6364204834138555,0.5294411334408706,0.5498353936617021,2.4963807804290954
-0.11916518401521069,0.9812788466988023,0.08984907748419664,0.14622513821527153,0.7722080796654671,0.6033115968495388,0.6929338860737351,2.5655647799116044
-0.14696505411374866,0.8840761902210805,0.08767312304287349,0.13697920438949027,0.7061186387319389,0.5639604959530444,0.6322629197073228,2.4802946780954604
-0.1614991084245663,0.9740079759500021,0.06393026056372327,0.10910802602602372,0.588296321621947,0.5096732109950884,0.5111002691889028,2.367962297034753
-0.17216320855534958,0.9252365022079608,0.04312728764330303,0.0825976226178148,0.4954693452692804,0.40278021160749,0.4250257312808147,2.401235192457847
-0.12286314479866221,0.9558008542052127,0.09660608946847284,0.15658436212412866,0.7375030737317414,0.5904276363100791,0.6838190392855347,2.3871161185583323
-0.10396983211124501,0.9483807215677195,0.09668948473088909,0.16814583673733782,0.7781614776550436,0.6152008865780657,0.6495865771494693,2.416157226294343
-0.12205975224097765,0.9623591674498998,0.09614773299488619,0.14277446497886861,0.6418575982389855,0.5126680644291164,0.604400358836416,2.5375603365182653
-0.15866649710225086,0.9693966442922739,0.06300343749774263,0.09652774932196881,0.5563730287528263,0.4306198346470254,0.4665048951815757,2.4024731587000283
-0.16474651395412174,0.9279630134979017,0.02055428280074996,0.09368505984349833,0.5110287056442334,0.37603718998253305,0.4272202107277143,2.397707298552369
-0.11110518284155099,0.9094026596124651,0.10446295741110075,0.15116693076742202,0.7742494100632631,0.6396836846257453,0.6753717825796718,2.3996076049079513
-0.11773059893348177,0.9214525357961842,0.1007464872598905,0.1950752216147173,0.716613622442279,0.6112690457812221,0.6717939458759294,2.499044659125188
-0.13449309393287692,0.9299870492301735,0.12113193391804136,0.1472619377867512,0.6450435777537306,0.5195131459552875,0.578754406277995,2.435790368647244
-0.16602773330580328,0.9384449521809495,0.06621804140897435,0.10928412845064098,0.5531839661644431,0.4486690586524433,0.45923408497063445,2.3991567360079626
-0.15492251675750948,0.9150084291826932,0.048539491079027726,0.09688285217689684,0.5144513436167559,0.39222998846097945,0.4299564331426161,2.4395791736922168
-0.11073528441970155,0.9073170369490561,0.13432770759952303,0.1517364953037784,0.7601065491221334,0.6114791807646264,0.6675811788804235,2.4338906659248316
-0.1140289193389896,0.9424764796557517,0.1134873419448395,0.16507381165027715,0.7395745709759569,0.5741820220816253,0.649946949423627,2.4780060608423478
-0.1309933228403217,0.9599811701682349,0.12658099519519675,0.14244608526157918,0.6125852152076335,0.4960695029975626,0.5269203730842621,2.4948821589560883
-0.13371259409161534,0.9595533063966573,0.049831249301184426,0.11190620050007449,0.49708994756486674,0.3897459648715496,0.4537015876507678,2.4353872672038275
-0.14582669355377173,0.9565001683438233,0.05746358278375776,0.1040303804200616,0.5509003524155636,0.4525825902005986,0.4871651911822723,2.405095004613114
-0.1020754347206255,0.9369928107853802,0.11788435085007883,0.19896759688489737,0.7513321292814941,0.6266464896472814,0.6608694116120662,2.4304571572055433
-0.09064586467955767,0.944809039489419,0.14352393556242318,0.21854958473783434,0.6877941379321657,0.5520712799733011,0.6353996596208644,2.409579026953155
-0.14116788062221292,0.9699032641006976,0.12398300931106387,0.16069581225206586,0.5890569939233323,0.4695771279058801,0.5354088013631965,2.4292613780489334
-0.1432238378485554,0.9352800638066264,0.0856388377675048,0.12332660406692077,0.4946131980300478,0.36838321109466543,0.437796010824632,2.3999767862905395
-0.1386960890143,0.9612058517454111,0.09987377154037504,0.14324505289132872,0.5671708163713824,0.4281275135467039,0.49597991924290474,2.4153777162755197
-0.10367041047748354,0.980753817147593,0.14437055557630077,0.20923058679493525,0.718841002630549,0.5845459745741542,0.6323083143746436,2.472878278575797
-0.08769365513628419,0.9461597920320143,0.13078556392865803,0.20887361471226,0.6352573709330605,0.5265924181242921,0.5916371844343135,2.4498427220648065
-0.11331424311044622,0.9660085924608204,0.12837823364481354,0.17204581054398557,0.5386152768380164,0.4538656529492836,0.48535741721693776,2.4780336953283295
-0.14994989775666354,0.9817744016795877,0.0697529309570218,0.1074338049669817,0.45018887032742366,0.3484839205766869,0.3982844393351146,2.3553277032080806
-0.13689963144235995,0.9156051346485999,0.08177452136243132,0.15765358113630387,0.546547438428465,0.44950113258892344,0.47528662504457536,2.399698177383637
-0.10081832994360529,0.9384382136522367,0.13855726668706664,0.18531644766575023,0.6465534441778653,0.5605378119977985,0.6732642235492334,2.4807264223509846
-0.11174774323881116,0.9735086894199297,0.1205434241070348,0.20462338684429357,0.6147713445882499,0.5203730566846053,0.6078991621765013,2.4354566337133927
-0.12823150582480192,0.9267963164824448,0.12102728564527991,0.16962676065753626,0.4837672592225423,0.4278803629429926,0.48577909973834027,2.4223036451896096
-0.15807754083225128,0.9425031399261291,0.053308819859788956,0.10691128712255989,0.41597994376774666,0.33163540207265646,0.4010103792290634,2.461343416581932
-0.11555212160203844,0.952281173261406,0.11649534183052701,0.19532900076958448,0.5857269885552177,0.4936590943622896,0.547959134568242,2.4477287397742793
-0.08272699759719757,0.9413063566441467,0.1418201209815062,0.22188406937341204,0.6514718918498809,0.5765829307698933,0.5823963979751918,2.4356542057314257
-0.09106911511286397,0.948275010973917,0.13875593278943216,0.2107005095263717,0.5950886441637906,0.4877443606627196,0.5496477172640212,2.45190068500807
-0.12148548458842955,0.9414753370406933,0.08411825768415603,0.13258789341537344,0.45682245095287194,0.3875890351264606,0.4740592476331864,2.34764665806208
-0.1422749682263828,1.0161927981651702,0.08163358770762248,0.1580725729989576,0.4955354408963543,0.40209296613123247,0.5034114019211902,2.417250626223693
-0.09960716411118058,1.0185871663769943,0.1641373379058165,0.2404315594899512,0.6978559431365331,0.6005859776346485,0.6941314147098577,2.4011898333627175
-0.09000422928564918,0.8988439780081001,0.15758583506844792,0.2425113479724926,0.6278675044036317,0.560725674278223,0.6184615153001628,2.4334131049797056
-0.11725039580468194,0.9458132802723311,0.11990831450023093,0.16590442819347018,0.5429809746498121,0.4503014754580092,0.5296323697053262,2.4001437282419587
-0.12601598206218934,0.996084385547922,0.09945306576603037,0.1797212456699153,0.504154009786836,0.43586872251067565,0.49724795642367847,2.3804008211905927
-0.10633358252728113,0.9848058469306316,0.19566512374212103,0.24813533272928642,0.6979485804362924,0.6368781706035026,0.6554772475425235,2.4465685557984735
-0.09352083190590277,0.9645248811881325,0.1780125583405685,0.26641951655540813,0.6486483947223143,0.5747492345444033,0.673464254999588,2.4690986052269253
-0.09349903797794153,0.9513663476166266,0.1527358598294437,0.2004959535284143,0.5471281476399409,0.5368810710556408,0.5525225999776747,2.361900769546163
-0.12732566438709506,0.9543112295189891,0.13242940483105203,0.17169514698587002,0.5532666923396639,0.45899163799736653,0.55579322390824,2.422227286919148
-0.08946226687003793,0.9541980635097971,0.16847825290593946,0.2401754530511466,0.7186579254279991,0.6785678549138513,0.7287579928317106,2.447583743516281
-0.0778334230480875,0.9956840693367327,0.19159837382375686,0.24430197064734982,0.7128029981720926,0.626718708367943,0.7039409728978728,2.429327663202528
-0.07011970191922622,0.998043540828448,0.18280579473769806,0.24386962391494316,0.5941389381631839,0.5309731411065793,0.5896693405207322,2.4521964358193737
-0.09993730961550712,0.9736687998569459,0.1522182817179438,0.2179183114642108,0.6121349693177152,0.5292208947200949,0.6003679036010696,2.3807386921191847
-0.06823630257659326,0.9274737955725925,0.23601501338443107,0.3165709203807644,0.8081856502100478,0.7311652122221726,0.8134374156390166,2.5348937288396667
-0.036661002469398796,1.000172771318877,0.2534973747805673,0.28522964504121345,0.7767029920869334,0.7132588089928288,0.7986430708625566,2.488320609267168
-0.07967283537879537,0.954539927984239,0.21777217085413134,0.25519147029362926,0.6709100637079753,0.6352742632039498,0.7294686754273466,2.4693743229213054
-0.06708668473254151,0.9558277613868242,0.17568487490780713,0.21472102863367845,0.584304503714068,0.5292308972314649,0.5889571893987295,2.43478322300826
-0.052715391962215814,1.0018309669288556,0.21282245412126385,0.280944013531177,0.7277681257733417,0.6750509751736748,0.7441171267003857,2.387829414940496
-0.02553076171797274,0.969781694227556,0.272575763682053,0.3393590315211607,0.8046199350888913,0.7678140883716617,0.8477958793902886,2.457625389478533
-0.038097041050171865,0.9677351147256087,0.23973837540411716,0.3077470974663727,0.7359024163715259,0.6965693578091028,0.7746514612520459,2.4253874577053143
-0.050697634096325966,0.9606438004807697,0.2373441445513858,0.23757732710252064,0.5698481681464191,0.5633556161130454,0.6623859939413691,2.42836506386544
-0.09158507800868984,0.9591219604738079,0.1797611001187635,0.215224066017469,0.5148192620898887,0.45406868967691455,0.5314465671836939,2.359324544605204
-0.041385218601200695,0.9153207990577183,0.22972495886144062,0.2628002615579317,0.7552808906145518,0.6782165820096839,0.8125607371097642,2.4381276792106785
-0.02844644809429715,0.9616959445111763,0.267776511498472,0.2833201095427682,0.7661439940192837,0.7476578437071254,0.8466008360170232,2.4435830966080214
-0.050360682652576406,0.9667453956846455,0.19962112668759158,0.28960074643849903,0.6937720099896929,0.6608706438054611,0.8124301887210208,2.493237967448549
