-0.11022631161600516,0.09982262284346087,-0.09600071026044837,0.06152734079841839,0.36088285478754667,0.3156210076140285,0.3109948506508045,0.37750397087781123
-0.10919517281379948,0.16795945269712168,-0.07611914338661582,0.04754893879918541,0.3042458678807067,0.2490349885005086,0.2760538803050268,0.29957571222465723
-0.1468990486785179,0.1069578143057445,-0.12126740502190812,-0.011669768044598766,0.2104458472712184,0.15344980335484204,0.18639812624894453,0.30880346486861726
-0.17656434764681042,0.10376134055456404,-0.17152307057438487,-0.07179187273012272,0.1326204293202251,0.09312425522149888,0.11176532058764786,0.2666370504855807
-0.14518460081894624,0.1509904914136979,-0.11376580404434433,0.019481024433577784,0.35258369622845465,0.2746267349535769,0.3026439707782794,0.35062195364767607
-0.14287224104425927,0.09810447360791105,-0.1066492867900032,0.008531487814860642,0.29772523037216075,0.25172899459213677,0.23502719171723518,0.32497103818105766
-0.15133373887516732,0.10810332479690651,-0.1158039151032571,-0.00556467985971959,0.23945762752055874,0.18433998238479743,0.17917305268574518,0.27100002690522573
-0.1922846244261654,0.10985783590092812,-0.1786515426198209,-0.06968527538160975,0.14141477896458024,0.08909019746368738,0.08806659100772797,0.2861754576721894
-0.14218913148869256,0.16667744599190176,-0.12169067896991392,0.007284497592960182,0.3087781677766376,0.25678664673143875,0.28342806078544247,0.30521572384908624
-0.15149876121160988,0.11553253487130855,-0.12324068513449483,0.01098614683758041,0.30808190785130435,0.24406175294444848,0.2740435245200514,0.311744043067567
-0.1427816846945599,0.3912026052575861,-0.09080727593350303,0.011625968144595336,0.3522199820921483,0.3165418147299534,0.40380016243812644,1.224484355512708
-0.1608460080140553,0.6757504062423405,-0.10672910708901706,-0.02020953530240617,0.35681175585010705,0.3318025923112474,0.41965607309573016,2.0690132119165243
-0.12203431471330642,0.7388035833586437,-0.029435936465449807,0.06060838339644643,0.5819369892050725,0.5087078497908731,0.6296505841783496,2.17492909666874
-0.10553447347850467,0.7080977189998687,-0.008703138536848926,0.09571689422111829,0.5936145542314732,0.5445223616737084,0.6386743006490234,2.118671919446318
-0.11285753120291611,0.7146793803008764,-0.053330052700040355,0.05787393441561117,0.511410585981195,0.46353985836982575,0.5735195401122537,2.0869796464923924
-0.15302889288470511,0.6844026682085447,-0.10708941378201907,-0.013647816452400666,0.4009045037166002,0.3675295423542895,0.46624467909892164,2.094250500492259
-0.1254860929764298,0.722365010667753,-0.04316183411680229,0.0569191668351825,0.5351135971433849,0.46984418802445865,0.6350102046995779,2.0868596659175633
-0.10072609942118144,0.702204015165051,-0.02624355141739207,0.08101212058121522,0.6103096381019478,0.5615300408368167,0.7035604345385217,2.0730843885262886
-0.12178694164737044,0.7041545433848556,-0.05414279931309161,0.05715791347673868,0.5199432736472415,0.4969520785014312,0.6015267126506093,2.0174909963339447
-0.15863482173110277,0.697291263294943,-0.09402950316344254,-0.0029826489255237176,0.4329544992249777,0.3901203048505635,0.47998126139377606,1.9515134970096102
-0.14065992533520288,0.6729270605577168,-0.07352597285077359,0.03419954144490206,0.5101642439427031,0.4824738645783039,0.5751251347985387,2.082929418011296
-0.12082888898529853,0.6916056496500202,-0.023756097881560564,0.0587126402174991,0.6202204183192734,0.5981311207911086,0.684983333959862,2.076143425097155
-0.12837860806744672,0.7147321493775058,-0.07063407222719391,0.03441614298335961,0.5720276589341368,0.5018570362044097,0.6097466597836514,2.0577206278350877
-0.15946289685994375,0.7404918700618475,-0.10335381408310072,-0.01598538547145653,0.4341672605374983,0.3743372613657649,0.5057834759790201,1.9339853016905098
-0.17316414412619469,0.7142150103411156,-0.13461532490865113,-0.020156908296209933,0.42901835184046716,0.4093990497902493,0.4933029948766463,1.998081601168438
-0.11738995788303744,0.7186195877255247,-0.054263251009166485,0.03918540965922741,0.5893171349375409,0.5798608067428406,0.6529532763787474,2.0787116300078052
-0.14785180154618843,0.6981920665347665,-0.08793029694115861,0.011979937203872623,0.5504731879389867,0.4961455008743793,0.6142767128200449,2.0842261318884256
-0.17243121870441647,0.6712923991233511,-0.12385324489130614,-0.028403521407838903,0.4595994432196021,0.39464486094751916,0.509417542865632,2.0249915166337873
-0.18204904708110986,0.6404903913403004,-0.17593216984944388,-0.06973428988929203,0.3866443608149003,0.39275753291811727,0.49169297332309736,1.9805189150630589
-0.14542272391569294,0.6519617562200595,-0.07097205005938959,0.010760387709122937,0.6014630905028927,0.5447004217913423,0.6595493238573003,2.0924230401924238
-0.15159348086123925,0.6994806613204272,-0.10111713747902268,-0.002484252604941742,0.5332997034126287,0.5019916836095653,0.6209578227282349,2.071355005247778
-0.16624581789100232,0.7248604096725864,-0.13789275122017197,-0.01211325194435632,0.45627626285754275,0.3945638746003414,0.5304168542742711,2.0429164868968526
-0.19480708458681079,0.6687589036989396,-0.15513191718513286,-0.09416350091387424,0.3780138502458238,0.3549342755554668,0.4531840115048203,2.0037138430548067
-0.15785679337348113,0.710492919400814,-0.10181254366065157,0.003088087202499673,0.5883795676982125,0.556573185888938,0.6777698582060938,2.033253354361849
-0.15082570329266481,0.6836620806192713,-0.10982894903417476,0.011886771956549913,0.5568970723898208,0.4936422902465645,0.6066888793231803,2.058241396667052
-0.1834379996059094,0.6686836510685187,-0.1121537498325989,-0.03008431149428964,0.47944893454040954,0.4171433229315705,0.5709504399976623,2.056376872550207
-0.21643030780595532,0.6758767996157506,-0.15038628801862586,-0.05968928383116675,0.37909874171483654,0.33952763331041835,0.4505313312054787,2.02285828797787
-0.18203340906729187,0.683471626994272,-0.0843013140168528,0.026426630912698895,0.5919689632451952,0.5746277916543222,0.6724185455326516,2.031536385895435
-0.17084543588542808,0.673193596671261,-0.10263656218895464,0.007805424039998801,0.6120641999201777,0.5615396688122286,0.6381845950029235,2.0660446615666097
-0.18581462698292783,0.6706491320950367,-0.1361701103397463,-0.02131846577278089,0.5014002892518139,0.45874282516268916,0.5798392003573279,2.038500391031924
-0.20738415056479453,0.6552319630595895,-0.1775838963399311,-0.07252869030142325,0.37671005134445706,0.3593804095400508,0.4689044853655604,1.9233238916826778
-0.19232851902022166,0.6648388896656107,-0.11962046931776597,-0.005680473166094116,0.5525400121909755,0.5322036264149053,0.6177596179280846,2.0273627635123526
-0.16361288468187676,0.6992573610852579,-0.08848569651807775,0.049048993645862085,0.6011922776944866,0.5419647022972051,0.6704032545359773,2.0347951182311546
-0.15766108541497814,0.6655534561912816,-0.08710926699565939,0.02076664230710784,0.5405558745808812,0.48037055526352856,0.602794479075557,1.9888998035306715
-0.1981001449718347,0.6953228390681445,-0.12037507363660258,-0.04586645758372408,0.41200981673442705,0.38056316606902285,0.46323009918547065,1.949687081188117
-0.1771717582809379,0.6906638299802113,-0.10490178091250943,-0.014556245856711697,0.5475999483054,0.5056805689954853,0.6358830952287935,2.001501888166348
-0.1531087736239009,0.6857471942348208,-0.06422815834441037,0.025351001373255272,0.5663023316941277,0.5239208703316879,0.6603399739753367,2.050651615749941
-0.18331133288890045,0.6518500061413494,-0.11029657901699039,7.946965611562995E-4,0.5157159434540753,0.4911153386962752,0.6035971766991302,2.027384935754569
-0.2089613598068485,0.6192505138410493,-0.1755624133197572,-0.05905615354351834,0.41430420789591765,0.3924694437607229,0.5114644564885829,2.0216797071996235
-0.18806388843716804,0.6651852935025813,-0.09198932197946388,0.015923388470788072,0.5966794262022108,0.5548277255938519,0.6876206422949813,2.046633805359421
-0.17496998163675245,0.667688901114288,-0.08349092957355353,0.03282566108274505,0.6123195575956718,0.5552853801730859,0.6871872071926011,2.0360599491410127
-0.18873901727729767,0.6739760664349086,-0.11399297813597788,-0.015780235003470755,0.5126754151562071,0.4872025645125062,0.6202224945475452,1.9560961135072485
-0.20969443043218747,0.6534997351640753,-0.15661847704383328,-0.0585747430571941,0.415004037993662,0.39441953574280203,0.5084347077531074,1.9529772425245728
-0.1980151485474969,0.6281046621644377,-0.09326368002159034,0.009922156768246149,0.607164776300561,0.5845626294458588,0.6884202695471003,2.0145719109620623
-0.1688335158597466,0.6684480138359876,-0.07494057552723862,0.06511257941238702,0.6423904947659057,0.6099438480431433,0.7333940864581541,2.009156106162703
-0.1631790288661196,0.6404389271691986,-0.10197026636999754,0.026935889224210655,0.5585527822010663,0.5374041271537453,0.6500687873623751,2.00638941681193
-0.20370274040594682,0.6528936216549025,-0.12969117504618613,-0.03753762815040036,0.4371204799364867,0.41941166153382053,0.5534788824283656,1.959415022325964
-0.17518378918256633,0.6866419733629325,-0.11133827535871857,0.013824001741189959,0.6096135830345721,0.5830593527220335,0.7304589134965185,2.0535484444969234
-0.15353039223361897,0.6674606204396057,-0.05510186974190512,0.0801987318494099,0.6788687969273054,0.6427188076344124,0.7605062201335833,1.9729567078660828
-0.1754187510699997,0.6685266851100397,-0.0729420027081384,0.02977164454809275,0.5890884559594706,0.5650762547872654,0.6734835158368113,2.0640976837383724
-0.2004158602130465,0.6200067804330012,-0.1392866713664001,-0.02292810120328012,0.4685876887566874,0.43324135422836474,0.6045747581262667,2.04236115706377
-0.1810605550655759,0.660210679065103,-0.09194436742245918,0.045475513432111064,0.6051993612876331,0.5831648184481226,0.72239689136142,2.0409733442850713
-0.16726628715553582,0.6466575878824246,-0.07608190813644262,0.06231186580881409,0.6802857589926775,0.63396537582459,0.7557540989185193,1.9987961243604293
-0.186486522880895,0.6779931755876509,-0.09995867014092347,0.02182608687413154,0.5724701288744085,0.5456687690601585,0.6890346556465242,1.9812009686652454
-0.22186515297587886,0.6314379200384235,-0.1486434112129998,-0.013382804537413764,0.4638889151619006,0.44023520240622177,0.5862317210877824,1.992144807737814
-0.18567459714565362,0.6506759702175141,-0.11010637784439142,0.007347820795311877,0.6068555488003692,0.5879816012795198,0.7179543349966344,1.959840585959802
-0.15734338157557917,0.6333613956764428,-0.07807993894024227,0.05449151853490891,0.6850680504525121,0.6472402541156959,0.7907781438268757,2.07621956118618
-0.18830930132501436,0.6257340118600421,-0.09562662075904889,0.017609174352438195,0.6186749907930106,0.5696182870300815,0.7118102847854682,1.947280120863915
-0.21678838789639504,0.6287332079318986,-0.17289088740735312,-0.04780972178604556,0.4749124706715167,0.45688660870543274,0.5624373474190983,1.9363595583306465
-0.22258117233816144,0.6391361399048081,-0.1444194657521956,-0.049572318595685574,0.5386947981215026,0.4982526959110964,0.6414379143590777,1.9251190899024078
-0.18045664444915532,0.6494078973549862,-0.08407376825132286,0.04301045729807154,0.6714316697020831,0.6886061733087527,0.8030701836652913,1.9757463592154962
-0.1871921022597981,0.6511258370914006,-0.09849045805789187,0.012023967193463436,0.6211359081037031,0.6156838708499235,0.7296432786761728,1.970481263949185
-0.21457321937356283,0.6054373668129513,-0.1341124767879837,-0.023109694266088845,0.5218857964165744,0.5244563238798493,0.644849865528197,2.0021078151940475
-0.23491261553236426,0.6311584925390054,-0.17637128147009448,-0.08089124226061001,0.41704082977273643,0.4055384655268455,0.5566485843958695,1.9983887221911307
-0.2068521953735883,0.6298336508113601,-0.12204887483894611,0.02440658661494656,0.6637998138350432,0.6269483080782343,0.7536873883923167,2.0545138420019833
-0.18394047256288315,0.6631895436081656,-0.10424368989304664,0.004601646424258213,0.6325041921340584,0.6136616460695553,0.7501161761336141,2.026742601401017
-0.20955262366831667,0.6639591378455574,-0.14481451690693983,-0.028495452206982227,0.569651869950083,0.5358537386886145,0.6435357576043552,1.985005471296165
-0.24503178078322296,0.6591423954505955,-0.1856651320553963,-0.08874011178973475,0.439945784663992,0.40783269263259714,0.5378721590386911,1.9086438596655046
-0.22245029445553632,0.6441375229699702,-0.1501122000580123,-0.059684191741718316,0.5456745005991321,0.48724776996804914,0.6266137059667409,1.9605547036110922
-0.20650494298761723,0.6313964007761599,-0.12801589386847603,-0.023415439860486456,0.6191009226164914,0.6089983827777895,0.7169219604572011,1.9269312054209962
-0.2219981170248653,0.6216444174299759,-0.15517818750809295,-0.039321143764359856,0.5697804733329314,0.5237093749364751,0.652590209283161,1.9994258256621351
-0.2380598110259003,0.5706156939016969,-0.17245624190402356,-0.09180597491912683,0.44138077038773227,0.41513026892616695,0.5239134124178051,1.8897547012821865
-0.25454618104710214,0.6030526902561475,-0.20259463604856898,-0.09572858665945325,0.4368098139836584,0.44019542318028865,0.5312849682953712,1.9733934427767863
-0.22432636682389093,0.6554702325371852,-0.1411766973599594,-0.027933654452619333,0.6365797842540799,0.5959893975782629,0.6961449609138938,1.9967379294842371
-0.21470356110220448,0.6147747352750865,-0.14383820941939718,-0.014590651496086973,0.5609770376178264,0.5425790812590211,0.6328737031655618,1.9271418710370098
-0.2502660999528284,0.6166723040709786,-0.16790064243881206,-0.0750749472702218,0.4681142017097574,0.42613461190751206,0.5764561943218758,1.9325405779245082
-0.24991185067679364,0.6183901377704855,-0.20592781866521961,-0.11525297238834742,0.39354195049602037,0.3606106131730835,0.4774571302735428,1.9229036266073813
-0.2009383798512878,0.6800347022143374,-0.15466107725595102,-0.024284994960841244,0.6175556716013503,0.5706138982110992,0.6948243436118299,1.9311468197178152
-0.19577319644295071,0.6464990890532207,-0.1388269357038814,-0.029724119960992168,0.6097141332432254,0.5556592131903102,0.6669600646723767,1.9270020384257456
-0.23856816318939808,0.6132040678715185,-0.1698277494774826,-0.06580777706544472,0.5015356793639558,0.46794767201602777,0.5844232891689607,1.940022648391804
-0.2647898615444157,0.6265427500248593,-0.21130981390779024,-0.12775811674777027,0.3914091797847281,0.3634502407800034,0.45633527727915185,1.8863880279953669
-0.23871179801505782,0.6666691601098241,-0.18296991171111893,-0.08866259038831663,0.5129360553119887,0.5077976812564609,0.6189442715576019,1.9368017043513492
-0.23832516529092018,0.6752497953636708,-0.15061910246743057,-0.03630343983149335,0.5818375779731945,0.5176680639210138,0.655279046964356,1.9607236842791766
-0.2456895687815642,0.6023992309037973,-0.20333501191996745,-0.07665591601107585,0.5003390137818196,0.4753633590700038,0.5770162197901663,1.9064243235238814
-0.2695570464820517,0.6226853639153261,-0.20919572356000005,-0.11214012436528907,0.392989024331524,0.3498610026546613,0.5108892058982011,1.8810896680675864
-0.23288823268831702,0.6151088954223793,-0.18592079354145336,-0.07485813443574464,0.5187635847053642,0.47628639726020405,0.5481809380063525,1.923285768674448
-0.23520747414144844,0.6672048207980902,-0.16696928823103785,-0.06645827272635449,0.5728809892045411,0.5196120779166894,0.6369412419257056,1.9625454073394475
-0.23951840332810956,0.6279698494264555,-0.1943858363475912,-0.10324968481199487,0.48553799564457145,0.4294419564634159,0.5692793161465133,1.885197448045634
-0.2851793643022983,0.5949405252004241,-0.2454007426923705,-0.15262077829860365,0.35246665489063383,0.30993643289416994,0.43670676243986023,1.8550437425107018
-0.2647346892887572,0.6399208145594336,-0.19890253952811465,-0.12101317613812462,0.5146689036076082,0.43990781269832835,0.5699851613869792,1.8697316026876094
-0.2523558409426554,0.6298670176349572,-0.18007555828300836,-0.07310226563295243,0.5687491556255376,0.5159375038949235,0.6511430404135479,2.0123500099089697
-0.24659388340796626,0.6363283061943585,-0.21055812511803762,-0.11266137147037715,0.5146621411623349,0.46117356960842626,0.5827357699497883,1.8863694303525917
-0.29170550883940305,0.6258302009093689,-0.2573786054890388,-0.16689460493534852,0.3948073326375637,0.3447061278710223,0.48457057727848685,1.8203904042596002
-0.2606595408188648,0.6552822231777362,-0.2261941325933483,-0.09949775327011949,0.5441079211536016,0.49803731004550245,0.5807069292884105,1.9524560694479585
-0.24263644372579313,0.6571185049120372,-0.17902499037813957,-0.06665679443267927,0.603878562943793,0.5516910733694682,0.6845505624102822,1.9395974061785863
-0.24973683564352703,0.6493522135883489,-0.21299809324212587,-0.08544703011281825,0.5672273964593805,0.4997315120329949,0.5810224930255612,1.978390344502404
-0.2990334376242055,0.6384866299972882,-0.26261553227290213,-0.1472063780480224,0.41650281915282267,0.3926728008308267,0.48695103424842345,1.9368445263404268
-0.2686431960935132,0.6217359652567946,-0.23233698792240343,-0.11533839906184945,0.511475860769685,0.4919791371409066,0.6150572104186399,1.8692346288490356
-0.2553656966611544,0.6166528972314876,-0.1790813013193885,-0.07398809116928359,0.6243937829210929,0.5547026658384324,0.6915833183505147,1.9831017906906956
-0.2531670974902602,0.6336993079562041,-0.18368271157518296,-0.1230631138227382,0.5484133148814642,0.49110140646152234,0.6042903261885499,1.9117976248414292
-0.2854371276899561,0.6067754045400741,-0.24179234381769948,-0.15042318843822128,0.44884695473269287,0.39975979809391504,0.52168548703624,1.9214403379864406
-0.2642106534192124,0.609217288758142,-0.2189795381188263,-0.12041054350289904,0.5448299414078368,0.49722070477972613,0.6008572049019669,1.8662465247532656
-0.2546237007311929,0.6016959811153553,-0.19484952410973885,-0.0751338272955193,0.6142547292474112,0.5756537402249969,0.6936470396842721,1.974660506350768
-0.2629152856188416,0.6059219348433227,-0.20979728440106812,-0.09835182442835076,0.5556978189415859,0.5137473577272721,0.618671526943797,1.9545315118594102
-0.28373801351621963,0.6248665088464924,-0.23645094597773358,-0.13965628265457386,0.485624573546732,0.40832333095348505,0.518109275318321,1.8776618361611712
-0.26781736294567177,0.6147687962737369,-0.21055202787568625,-0.10933069353997012,0.5841965518999004,0.5163904533382243,0.6289858273561132,1.9259106433538837
-0.2610691746289588,0.6232858591908141,-0.19539649107513377,-0.06691653762535846,0.6707432492313149,0.574164309032639,0.6965093426555156,2.001859411037409
-0.2588812824622603,0.6344662751882213,-0.19914326611094987,-0.08413729592490835,0.5587530145345124,0.5134582872961351,0.6595469308173678,1.8951600634671115
-0.29425985875482913,0.5934393782480796,-0.24884540707306102,-0.1538136059384341,0.47377787626110085,0.4236113637623078,0.4957072315789131,1.9203663412861145
-0.27992919167692754,0.6244821564233378,-0.23248451378380375,-0.11172278150642437,0.5619237893865969,0.47913606689270105,0.6297984342733269,1.939800998151676
-0.26139592708153836,0.6221439246659977,-0.1918156640013337,-0.05611435226471141,0.7177079891541008,0.6536014915213018,0.775458809724131,2.003453087724545
-0.2708050490066781,0.5900126812954136,-0.19076817847496383,-0.07066915036427998,0.621145807128086,0.5875099146247275,0.6813860339882822,1.95627327604605
-0.29033988230390084,0.6156395337305408,-0.2467534383519519,-0.14032301325865917,0.5517444395532275,0.4839705799921447,0.5652204056819532,1.8989268274409221
-0.2872503723333918,0.6249342325080658,-0.2509173174545227,-0.15039441507101503,0.5269323406973271,0.47206547536011717,0.5847355068129881,1.9228223594230398
-0.2644849916579536,0.6438827498790072,-0.19826309781799495,-0.07379268963132544,0.7408459121622132,0.6737834217242801,0.7597835107651423,1.9975984079526328
-0.25300796833507455,0.608285530122263,-0.19747335408865002,-0.08790047830187864,0.6556124265361581,0.5977894685774255,0.7199652218089795,2.0294449560864214
-0.2947380525863903,0.5942462521770377,-0.237050059367799,-0.12450273600442763,0.5660498103495116,0.4885306931317777,0.6254485625818917,1.9440798043072163
-0.31644018910422267,0.5614238361686531,-0.2691827711717203,-0.14626900255434383,0.4863208125050548,0.42346661988316425,0.5423161878947736,1.924711030162017
-0.25835874454922536,0.596579824212331,-0.19630886990390825,-0.06999244707024277,0.7070431314814382,0.6369944811413918,0.7707575946803499,1.9774885152145645
-0.2667306414235968,0.5856529767687069,-0.1950690471881648,-0.07099447906085829,0.6749220963738845,0.6089981101946351,0.7330291583076979,1.964907008797506
-0.2847913140763173,0.5925772418394923,-0.2085377621800184,-0.10728531807515573,0.5869173524960785,0.5179997403565234,0.6542749248486344,1.8837062456165399
-0.30400718261686777,0.5934567431335591,-0.25274871534146415,-0.13372528883161872,0.473154780291299,0.41881233402257223,0.5092501112121958,1.8751493801296217
-0.2821081867339924,0.6090046945778667,-0.20669173696604257,-0.07612560097966593,0.6479538389728369,0.5930239798131102,0.7146884192546993,1.9282009294730598
-0.2827119204193431,0.597926847188511,-0.21104791439832232,-0.07372323815981525,0.6612768229000214,0.5992314264722123,0.7446606963175221,1.8819569047603375
-0.3023574935501731,0.5657317464306727,-0.22291174417417367,-0.12475712209426029,0.5667743785633944,0.4890734465215206,0.6297813903993125,1.9367302558461188
-0.32220653232270435,0.5850801517092592,-0.2469924349842493,-0.11855909186220126,0.45077793287636986,0.39698106380301773,0.4943210981445606,1.9066607379235279
-0.326968672292986,0.6112771924287019,-0.19182146204411057,-0.09627897364798432,0.49678322641947914,0.46108640933004363,0.5757831144639356,1.9144482955589603
-0.2819981531625635,0.565553845318645,-0.16405021014189208,-0.015035935500668007,0.714362317014937,0.6165424419794111,0.7691274470165553,1.92947463029134
-0.2857130264920853,0.5994041580376017,-0.14156403151935584,-0.03268012009221272,0.6009246679726132,0.5990821105884082,0.6840202868830649,1.8818935951376272
-0.3239747204553991,0.5489268988613469,-0.18968299682965548,-0.060672789528584445,0.49994103408292184,0.4843847866090186,0.5833618636107502,1.841581479848058
-0.3593843067519885,0.5692166976810406,-0.23307186729247456,-0.13978944948918576,0.42716821909885133,0.36673293470662127,0.45839158435077615,1.8254233179765544
-0.34313824472894056,0.5733105698927553,-0.23205080465423827,-0.09819087763207461,0.5226745685312053,0.4850239518151348,0.5962051317924936,1.8513070384632062
-0.30450670012432596,0.5740777975374831,-0.16952309565720242,-0.05208498198127974,0.641933124287003,0.5851945532910316,0.7132093539655817,1.934497874691417
-0.31705148660641314,0.6086555774210368,-0.196974965279796,-0.0487734962370122,0.5497247037597786,0.5429641536627329,0.6454134012603974,1.90857871536914
-0.3474376131666237,0.5689972004965895,-0.23937501581297294,-0.12305985556607812,0.43750770772931696,0.41056242534794035,0.5157267641189212,1.881442970280043
-0.3831886325737913,0.5751534756535008,-0.2706492600628836,-0.1720370362933159,0.3458761821433636,0.31154046399310975,0.44006825734260957,1.7895405333730563
-0.35153223579641824,0.5800206537685864,-0.22927955882652898,-0.16094021131512032,0.4635288484664088,0.4473504133305669,0.5846409820943462,1.8332777329932373
-0.336087247773153,0.5842652489340852,-0.22140734085566507,-0.08737915805479401,0.546353129874212,0.5067841963243438,0.6090312111941745,1.946950167697028
-0.3408063017347849,0.5735716252345304,-0.23409441551744262,-0.11467476666999352,0.49599693574884,0.45820979845711535,0.5731177446378993,1.8581334048798483
-0.3713443788736345,0.5642496646176622,-0.264951145623517,-0.16201606360735388,0.38274828946831735,0.3625866508827,0.44033353172929957,1.8548271708852022
-0.3939130464823194,0.55634958880486,-0.32635484629445444,-0.2246503989996792,0.2808960384437283,0.2778594481409314,0.3758773564877911,1.8158256123975556
-0.3598806533686365,0.5755694798870086,-0.26518442730269975,-0.1394854276961521,0.5020842342439187,0.47305969605588316,0.5724231801751841,1.893777890634396
-0.35714328762387504,0.5821461610080966,-0.2830427017566692,-0.16442913454374722,0.5036218366518376,0.45972125912453315,0.5501978686765638,1.937356361791028
-0.3513088445159037,0.5868421556682404,-0.2899389844958714,-0.1904202753142588,0.3997507265068143,0.35614518684060587,0.47206332505138565,1.8217670912649515
-0.3985241867920805,0.5280847910846066,-0.3482676865725667,-0.2570495877282486,0.3256028013025602,0.2736647048079184,0.3593648146568458,1.8461093777790312
-0.4179776941139063,0.5278919319120275,-0.37746052187982976,-0.2963166618192423,0.25189963674765803,0.19588704075258462,0.28056681857229687,1.823069875294678
-0.35833228690383206,0.5791746898361017,-0.2931012110830844,-0.1886954893980808,0.4819353204501836,0.427948655018765,0.5298189053131657,1.8374501739020048
-0.36692393026445164,0.5543704952202028,-0.28863552231235,-0.1975814815682042,0.44145417826842365,0.41476452646079925,0.5311251702112925,1.8234839107240641
-0.374460427265502,0.544387541008171,-0.3463048309707144,-0.2147712308238712,0.40244326013661524,0.3284085429185178,0.46649446713783,1.7291377390375144
-0.3910733892212601,0.5683236427231502,-0.36493707796479435,-0.2922397358909501,0.25718192088198527,0.21238299958141296,0.34826393893945695,1.8065995364364114
-0.4089198826744499,0.5724080930554954,-0.39004925080690545,-0.3169924118435412,0.262125339127981,0.2012252945782171,0.2854491776656699,1.7435740661166101
-0.3566585936259928,0.555543774321306,-0.31782024959933686,-0.21662863299976484,0.4563814739649629,0.4053019508662006,0.5159798684426478,1.7953159255658777
-0.3611641657099627,0.5852242754225188,-0.3224572704449514,-0.2384840013532154,0.43852521724568577,0.3413291387282529,0.4416260276036438,1.843824423482995
-0.3843185199239699,0.5957994060068816,-0.34439332915187726,-0.28591635256330605,0.30718696031935927,0.2626309153801826,0.35644253265505244,1.8208826325508627
-0.4185523193961441,0.5701281297944143,-0.38959351324101277,-0.32530525508602315,0.20033471981560988,0.1335975758104766,0.2316976356370301,1.6925194406558366
-0.39921905177054906,0.5717831398245116,-0.35957095594620647,-0.29272069484802,0.32120167627212615,0.22501566618093172,0.3092213406909792,1.7728330975006146
-0.37029122362539013,0.5996440019219946,-0.35850531824805776,-0.2501825700716532,0.40373652344411254,0.307227136997108,0.40436292440242894,1.7939355444521117
-0.37608651651184033,0.575063356139031,-0.3452598878410902,-0.28067375671628214,0.32467072349964166,0.2653004203020873,0.37794823452477433,1.8421855178013533
-0.4056416635912099,0.5258546546738685,-0.4149677957607161,-0.317146946817755,0.22235841166719045,0.1761891755341828,0.266678257476883,1.7650726328559168
-0.41696281087882486,0.5502953734529821,-0.41962621989270027,-0.3327639404364579,0.23116412805122385,0.1417684757665238,0.22873274644618696,1.7221801637680252
-0.39574501735723594,0.5662983281991902,-0.3584258006709845,-0.2759378566256022,0.3722321858117337,0.31217223547261963,0.42141397869107183,1.7698383554100698
-0.3939691294181766,0.5754265498134545,-0.37195514902115656,-0.29080983573885055,0.3132033697242617,0.2538426128430854,0.35050278752595637,1.7038857680631754
-0.41083684840851115,0.5141985695276596,-0.4092855918198513,-0.34816130436917586,0.21837626854073922,0.17185826340095017,0.24712802777354592,1.7179948898058182
-0.45180911048096284,0.5531407093696119,-0.45594340515704035,-0.4020556542763513,0.15601183438360622,0.05827257097393765,0.18215550570120942,1.6991622363757266
-0.40006914295261886,0.5684748480198912,-0.3411176718553689,-0.2853497556396858,0.36965727647963,0.2889979323415777,0.3728701052074358,1.8158124645879383
-0.38464685997078235,0.566872479153181,-0.3499199965157584,-0.27023189114449947,0.3738039985837821,0.28680256223456446,0.395994404990526,1.769901599487292
-0.4324267244145287,0.5490673076215103,-0.39462901624492075,-0.2964721039102341,0.3031451209513205,0.21069537818205633,0.3283377951165363,1.7652533964603632
-0.42306087687560284,0.5257381252105026,-0.43453482553247225,-0.3466054462384207,0.1755784981016608,0.12525785640814582,0.203808137617667,1.7863067163776627
-0.4360330821830042,0.5280504046821899,-0.3878638373229504,-0.29531921125036537,0.27177023729771654,0.19228750597834182,0.304072560835949,1.7326264897786268
-0.404187427280289,0.5513725218138116,-0.36121129947316255,-0.26227361394611637,0.3477418003351545,0.28148947766888954,0.3830889774664245,1.7863500365175278
-0.4424932258380747,0.5382506435080159,-0.3800516472218114,-0.28855642018053995,0.2856183465660689,0.22481429558481197,0.3306919349380395,1.8110387055189885
-0.44888885657503547,0.49559718676368136,-0.42461129553877064,-0.3428536185426894,0.19049535782438773,0.10655136347084446,0.2117162024841832,1.774788820412915
-0.4564169648479587,0.5291628458495017,-0.44605703162237925,-0.3771434002364695,0.18723913618872282,0.09859927740094647,0.2005226953203541,1.7705547092757996
-0.42303837141929446,0.519733736715343,-0.40012312221357615,-0.2830431617402767,0.312484174099822,0.2555990673934099,0.3816394594153285,1.7725191937104245
-0.4393505975739098,0.550192189710011,-0.4116334965028614,-0.3050840373445512,0.2637293716463026,0.21434344902985872,0.3043381014219164,1.888964019786001
-0.45898527704310377,0.5119247807506034,-0.42459842568979334,-0.36367347477576273,0.19050559076126458,0.12432123516292812,0.2327423572541839,1.7632230062084293
-0.4531072912894608,0.5525641970521684,-0.43256454191180194,-0.3557355144967106,0.17714422485185136,0.11406704981150496,0.1803490679995879,1.7647745456739214
-0.4124365203368461,0.5305806067949389,-0.3907606230617543,-0.30485057326894177,0.31006870904291417,0.24980919115169753,0.3487300151402487,1.8234966293765924
-0.42799006939922346,0.5750894560823796,-0.38882991452176396,-0.2833158519664343,0.24825958172229115,0.1986590887389085,0.27478079265003674,1.7894575228240444
-0.4596005355194109,0.5046403969293782,-0.4204306656895566,-0.33204692355163146,0.13801684131665953,0.0937555890249378,0.20418491848372233,1.7141838358675372
-0.4710598591167185,0.5035803378374256,-0.4246668855722579,-0.3466016353582721,0.10169090848518103,0.06100748834485306,0.12783677402735244,1.7839226399174806
-0.4233690420681606,0.515546184094462,-0.32787347019557533,-0.2277008335046811,0.32026530262159913,0.27988874082835186,0.37051844550192203,1.7928259874072503
-0.4240043408977935,0.5127006003329349,-0.3327017443456517,-0.2168513034410312,0.2739386323042725,0.22199326964804658,0.30812592493955926,1.7720581921829939
-0.44410907223370016,0.5290979915190976,-0.3652206241303008,-0.28550753249194505,0.19934225584548051,0.12311728385014688,0.2507925315486417,1.806374702148599
-0.4712366405835109,0.5525040617744837,-0.39266862323678486,-0.3147125412324929,0.16442185439626128,0.06413233608272452,0.16864243752422114,1.7954075291142173
-0.4328613232590812,0.5291097726055379,-0.30019768358790017,-0.21434860191939017,0.35893624820182546,0.3048978773065615,0.3929500509783423,1.8186381993993175
-0.43412510722471204,0.5649447114485465,-0.3615349542738058,-0.23662189796749591,0.2880274023777174,0.23158821467066473,0.3326305165754081,1.899299733733739
-0.478744231898382,0.5151723571089543,-0.37357802417496144,-0.2778612353357335,0.20334974388683266,0.17604481091723168,0.24362747272289098,1.8139699012020238
-0.484265415771949,0.5169083159352688,-0.4141372226635555,-0.32413942255086375,0.1648977580034574,0.11197425692838969,0.19261532758503896,1.7387932078846116
-0.4441604800425597,0.49409130224464926,-0.3543111991659102,-0.23434628763454968,0.3672636419420722,0.2770848187759876,0.397577902845605,1.8480181940047815
-0.44640112213006317,0.540461539752287,-0.3669577710559001,-0.2631961515772434,0.31696641024137856,0.24491695437424796,0.3233250311773945,1.8236109368015785
-0.4730739507767156,0.4645247934739853,-0.4169868265927178,-0.30944837437003425,0.24153223949480904,0.1787607303421584,0.2531433225458747,1.8438896004852525
-0.4670566836945385,0.5388841204507369,-0.40565249239292556,-0.30774132022922784,0.22154200187305265,0.16955409491150464,0.26998860561413096,1.8172598126421262
-0.4439727710775676,0.5274836887118417,-0.3441414964380755,-0.24826759249986702,0.3537963711217999,0.2958558068826234,0.4072871661340876,1.9123909837899125
-0.46066558947400693,0.5150679054075358,-0.3446673740449093,-0.25362425523293436,0.2872823958404007,0.24877143078729275,0.33890107540602565,1.8282859648999013
-0.4795424985655706,0.5090158836999507,-0.3827467667683199,-0.29670064593165185,0.21425790905369407,0.16118707097435625,0.21487902547855187,1.7912469271474003
-0.47134286407139875,0.5310121206699352,-0.3799163231601127,-0.2772264497174315,0.2912749663295533,0.22437492463837935,0.35318354740245117,1.819311990436582
-0.4417999247233445,0.5248471794469147,-0.3211831931621374,-0.21715193526965337,0.40888633463301133,0.342613726350195,0.45593565678813086,1.8612128495820999
-0.4537358594058061,0.538246274937658,-0.3325293835727733,-0.23908099188022985,0.35776927795615304,0.28952618911688605,0.3771056231875344,1.8809840461666476
-0.48343801468504255,0.4903284327032687,-0.3973097868607141,-0.3095720554796464,0.2197393811495591,0.17202735333467584,0.2710670659203145,1.8565777422578835
-0.4587450595674364,0.5090242502205962,-0.35054724618567557,-0.22635324700975362,0.4365132209051352,0.339840775844448,0.4694721840149059,1.92508893415817
-0.44763504926978825,0.5204107122046668,-0.3305054265287253,-0.20889049980385258,0.4317853573229335,0.38209783985590395,0.4716736615148735,1.9383704685719778
-0.47106950567322314,0.5390373869542844,-0.38587877220293665,-0.2798040877142005,0.34571163599948196,0.29348873956680316,0.3925110491715652,1.8827326689593304
-0.4972388242227987,0.5013431376288036,-0.43392749041758805,-0.31803901206544305,0.3058423556966602,0.22313293145760354,0.35281594553903883,1.8527187876087847
-0.450633458292078,0.5276146224400922,-0.3612546454569626,-0.2420015889602281,0.5020729728894251,0.40924061934264067,0.5526101036944,1.9239283270062146
-0.44606741309807124,0.49810336940540745,-0.38847408151726914,-0.24332945792962568,0.4499253081218221,0.36040932816714966,0.4797203095675475,1.9288720586503059
-0.44776449314544753,0.5485990540648915,-0.37119860048549647,-0.25853631283521644,0.359126204238137,0.28773283837258934,0.4216498796675676,1.8703529320472703
-0.45413951200023833,0.5375095551536508,-0.35959038721928593,-0.25009681184870247,0.38335799635518647,0.32936791554648914,0.44355240746090185,1.889819229710111
-0.43463804783767584,0.5125593931334014,-0.34209287033774566,-0.18534760797498842,0.5163579562897018,0.45492191104849167,0.5496949678540174,1.8933392368115762
-0.4426509836651009,0.5286991110553108,-0.3546734078691191,-0.22039494113501062,0.43233332057806967,0.37070502744628225,0.51251782674823,1.9400650834101034
-0.4592073123572261,0.535484722067378,-0.38923745424650014,-0.2593540269576105,0.35138442548703996,0.2839388940627744,0.3812793096786058,1.8491026426090207
-0.4378703766663343,0.5910680498226069,-0.34325374488333255,-0.20739940279581948,0.513906144865172,0.4222237100821854,0.5662981878052071,1.9454463070056396
-0.4162390038354796,0.5311530714295929,-0.30975153219030305,-0.18202907609779784,0.5475339688530863,0.4845103044742117,0.607758679164383,1.8902066662060795
-0.42356988248322475,0.5600425241204962,-0.3206043068753563,-0.21285219376578673,0.46588121049950504,0.39573608284869943,0.5316814202649376,1.9244536606458673
-0.4447079649657847,0.5560786813669654,-0.36163844925161576,-0.24284532846595486,0.36991459158892165,0.29405568451357283,0.4222442418482403,1.933214251762631
-0.38779682608381466,0.5321191110952074,-0.2988293142178307,-0.14416642277382574,0.5863499198939871,0.5010780883926194,0.6550418337345918,2.0590288264152035
-0.3791365881231654,0.5453521416081851,-0.25755796541567166,-0.14699472011350792,0.5914698608914937,0.5150749513261567,0.6396913329156347,1.9702558148309404
-0.38989755301505113,0.5857240654232279,-0.2837706078000132,-0.1585715200756939,0.5057723524964983,0.41917303328549915,0.5172590918269796,1.9288159498844704
-0.4169330294779835,0.5351122035100802,-0.30376640305327135,-0.20157087001670698,0.4066753689290985,0.33213755510229853,0.43020912476014567,1.866625724434892
-0.3641131273857855,0.5638100653258282,-0.22809259020262584,-0.12367157220662932,0.5896346178817522,0.5265305929730351,0.6683002219653212,1.9318817946571778
-0.36459252249081364,0.577765261357164,-0.24619495282933693,-0.12304331989963119,0.5304257720113623,0.4826112761719488,0.6293495102883959,1.9499867423692805
-0.3760115161100215,0.5503776547187831,-0.2815334003231419,-0.15116546612496135,0.4449944008826725,0.4062693962926782,0.5215849059931646,1.9542481949142556
-0.3891320959134714,0.558470161297435,-0.2890893560491151,-0.17799577510391812,0.445658746918905,0.40736524695553855,0.5003676094018557,1.8106981501729258
-0.34763400352464846,0.576911351454054,-0.23315447390529417,-0.09972853685702959,0.5981291036286391,0.5630284462515005,0.6557822603485383,1.9900463616643287
-0.33633030174113765,0.5774797351825272,-0.24182468742170984,-0.10110982778929778,0.5328696595672494,0.4927789753105975,0.621924414618063,1.9273532546956709
-0.3690686039108455,0.5523878337069414,-0.26390638753258366,-0.151642924409478,0.4023603481385977,0.38767770180052974,0.49950830397509255,1.8780594446758363
-0.3645872682271972,0.5537978588322953,-0.25973618519256747,-0.1369282100796912,0.44313871181997694,0.4044813899681436,0.5379285861113017,1.9106560202994505
-0.3191127706649801,0.5702538248415986,-0.22230246628444797,-0.06666904816037662,0.600985057492223,0.5388583921555412,0.7067779043360974,1.9850212601907706
-0.33081885908000896,0.5735813509074292,-0.21743173476562178,-0.10986433595849657,0.5306829940213289,0.5021245790706508,0.6498065041647628,1.9573218487346644
-0.36649265103211365,0.570730384167097,-0.23478735147461774,-0.16896962017405506,0.42610882148338275,0.3997055229688291,0.5256616370205069,1.886805212382645
-0.35496756154908,0.5904973793980792,-0.25110076872767284,-0.16240431863472438,0.49076231644574125,0.46718549570682183,0.623084044937706,1.9006973890293626
-0.32676893060409956,0.6011551054513263,-0.2014959585546735,-0.07971203847561463,0.6254175035803111,0.5901149436374878,0.7277926064374802,1.9915970519404678
-0.333458448128484,0.6072843186419443,-0.22349057489822197,-0.10817997751241568,0.5644442472445159,0.49949711649201206,0.6310417904283714,1.9463656009872308
-0.3692450960250978,0.5600235836561872,-0.28362955627539366,-0.1486760010025146,0.43326146728706594,0.41901173859627533,0.5020999760550537,1.8660324002234923
-0.35462161978575846,0.5902950557271037,-0.26859937867193984,-0.1314393155426481,0.47636625110373,0.44118251760850513,0.6072993611300703,1.8746646773000646
-0.3323648024956456,0.5737672266331684,-0.20688265953302182,-0.07093672224221917,0.6220409971793697,0.5632715704424249,0.7015680299501914,1.9941440496860245
-0.33416025924724946,0.5906241153639465,-0.22360295704586164,-0.10718458829081763,0.5586932130377246,0.49493964388503364,0.6389715461078529,1.9632964994080349
-0.37121746368258884,0.5340908085383735,-0.2680675041109799,-0.16504157913005196,0.41205073802975556,0.37222474904607233,0.5252300219799994,1.8765574909201368
-0.35815692333223537,0.5549337646811515,-0.2567004227395456,-0.1266495913273866,0.5201743542920159,0.49055194009108344,0.6074316274822132,1.893915038015015
-0.3341097544704231,0.5622923580869554,-0.2185774749756755,-0.12142530738907267,0.5615148440656842,0.5330237889033855,0.6491344733263505,1.9627029746326987
-0.33240396297223934,0.5393907317120823,-0.2335288593303526,-0.1359061645167162,0.49146705318008305,0.47674527431545277,0.5938517678367395,1.8562327188758037
-0.37214579597147235,0.5546906800824425,-0.26375859881806274,-0.14624941843207284,0.36928449973359595,0.36717484308001347,0.47607824929445425,1.817853196789088
-0.34262473344200506,0.6077861133468547,-0.2355780242099263,-0.09458555615334342,0.5531891867542184,0.5340967517452588,0.6128596318750159,1.8540564994496185
-0.3372243193018232,0.5680752221932719,-0.22294413460087173,-0.09609328065892118,0.5871616032037553,0.5274020548925493,0.6794324196517305,1.9250654752650336
-0.3361693760476195,0.584112007994193,-0.2332981589243663,-0.1310062390346835,0.4810338193750208,0.45604869036066176,0.5541037253381852,1.8450931693445722
-0.36151170501322305,0.5549925490819105,-0.2753221078144757,-0.17185240834014254,0.3676492704301542,0.32259519729211883,0.46777287603129225,1.8609925467178285
-0.3308614133646176,0.6023050977017232,-0.23473810415715146,-0.10238224435820174,0.5599114957662823,0.5208626270446322,0.6826896648901243,1.9268431344878836
-0.3300149051441287,0.6259737117684281,-0.19653178174466635,-0.06942794845015993,0.5855818049722199,0.5446010440161384,0.6710995930917573,1.9655976485229838
-0.3530849899133195,0.5663123499137426,-0.2377246023641411,-0.13210834514795028,0.47803868058188176,0.4708604729312512,0.5718454391752399,1.89150872046116
-0.37479422829302633,0.5294803997614717,-0.2934207973385427,-0.20139789291119567,0.360517286213748,0.339993051941162,0.44611897011030377,1.8799160698336304
-0.34888838476365436,0.5383916015583854,-0.23905199445336184,-0.12816329212661662,0.599820773537718,0.5397397604754788,0.670341253553968,1.9094060968355133
-0.3292726695056367,0.5748802647102049,-0.2294245895561857,-0.09874347321843437,0.5611713429734384,0.5414558507095547,0.6660392422343697,1.9024587521967398
-0.3473737028022645,0.5450148569995605,-0.24261655119138972,-0.1341376589115648,0.49909363937706686,0.44528685730118933,0.551455658038858,1.9077541466665082
-0.3765233426141479,0.5545813174031419,-0.28194735570766305,-0.19962911645802117,0.3545872440126705,0.33540066857826045,0.4349806514741911,1.8912675363484526
-0.33471976226413247,0.5236380629404496,-0.22888742832853426,-0.1303060151765811,0.5793198349077079,0.5063955939228374,0.6299862141244832,1.9084677307968165
-0.3373532066786283,0.5604196354552085,-0.2523973042867248,-0.1108488947414399,0.5422099878074464,0.47593025076617934,0.5970171337837071,1.838828830906283
-0.35866820289699575,0.5534824631296906,-0.2606558759012754,-0.15266283592578364,0.4787463594765147,0.4256953959145155,0.5328709908185877,1.9081823408843244
-0.37931632847653723,0.565177987864079,-0.2991053031242353,-0.1991225872418315,0.35039727769700035,0.31454911528164586,0.42332654399967823,1.7921422666838969
-0.33962911282501773,0.5335243653303058,-0.21401290699190104,-0.11399996673431326,0.5490479329081018,0.5105994629538458,0.6409281952633913,1.8641618272126836
-0.34626327368838483,0.5284367429223428,-0.2078051004849898,-0.11024105011502716,0.5423367274271929,0.48408596798445175,0.5876575032081779,1.9403395899302003
-0.3682984127380626,0.5688108999834591,-0.2793511471788732,-0.13984822759186488,0.4371082650397457,0.40306290640071135,0.5078969390950047,1.8256451006305403
-0.3957967891530607,0.5048613402707991,-0.31087393409768227,-0.21537972808231198,0.3237338320184795,0.29245146239139064,0.38225010806600956,1.7669204813661767
-0.3456991827798692,0.5517984693682387,-0.22073376804285996,-0.1090045754170184,0.5314564167218894,0.4822143013882424,0.6243844803867699,1.8643262675365886
-0.3314302580447951,0.5687178246590947,-0.2371350509479252,-0.12083017197510328,0.5219902681737747,0.47138180326068924,0.601265505373602,1.8545609891307804
-0.3701681269239769,0.5344599081690602,-0.2549118114108179,-0.1480003615736926,0.44549017446388195,0.40805686422510146,0.5109197116127953,1.8526899372993282
-0.3884468649091628,0.5430575294382062,-0.2939275776171056,-0.18736131481390997,0.357031566763899,0.3180691931014483,0.41226221271614444,1.7683522603059671
-0.34839769105126767,0.5680742150372999,-0.21086368579342013,-0.10604748080239391,0.5472427868002046,0.5052850061004014,0.6458926782230818,1.839717935417705
-0.3559937154481634,0.5701530969678108,-0.23847159186644765,-0.12199718276968509,0.4585590404771762,0.42050371156070304,0.5593847806841656,1.8757298952032577
-0.3911903040136412,0.5377241995482486,-0.2750738896682249,-0.1536443804749197,0.3621421238987184,0.3242321906567163,0.4610357734804988,1.822345422771273
-0.3861500616716038,0.525942373835858,-0.2794945285019099,-0.18119177142988213,0.35275663343722136,0.3467287292136875,0.46439254087721377,1.8222232975902863
-0.3549522272549913,0.57343736591923,-0.2283966439796817,-0.09088565746283064,0.5300931894421181,0.48686950394431033,0.6460578669033754,1.8669580345155
-0.35452625744330823,0.5462414796688757,-0.23474135317141304,-0.12486225684751398,0.4751010437597675,0.3940801920118656,0.5377448642348887,1.8395121039949194
-0.39674902730920714,0.5555531558518405,-0.2922920798278261,-0.18479967670361222,0.34022865785376305,0.31788814442226393,0.4382426380930148,1.825332594292864
-0.37682775119407796,0.5124326114919517,-0.2778201035923141,-0.16958251437577274,0.418599995635781,0.41072173339851137,0.5259510698799478,1.7746733411658635
-0.3564970636876408,0.6040609039154681,-0.21439269838194974,-0.09953476407561385,0.5412590864712877,0.5071790096875357,0.6246846512815543,1.8133648135009077
-0.3665793262682344,0.5474980791739328,-0.2241684115948293,-0.12673643577471594,0.46767165637247093,0.42935437623823286,0.561789757888192,1.8833739172974928
-0.3921320389817912,0.5195014262542177,-0.27127904901131766,-0.18431070622010862,0.34333002691887354,0.3067182045749797,0.4377087312252188,1.7713108897367449
-0.37943547921253323,0.5089744386948336,-0.24181261274855947,-0.13299508861201992,0.4979991796879343,0.4798311376131901,0.6027069998560142,1.865705087455803
-0.3529302337571048,0.559724726267638,-0.21022363250219264,-0.07800442887970432,0.5425159389582538,0.510706495264993,0.6509684226707629,1.8272143132200132
-0.3841420025553831,0.5405905749363223,-0.24036664864435342,-0.12259286205811698,0.44732463579386006,0.42656967463871653,0.5351499200238842,1.8996240250679848
-0.40684272281423356,0.5096391649553048,-0.29743130747166036,-0.1882708386252133,0.330353861363764,0.32086495235529305,0.4369574242604774,1.8359991757335579
-0.36193139488144155,0.559148484693293,-0.2266247616635697,-0.1070539922456748,0.5583208390287263,0.5093698071071552,0.6620822139451125,1.9355391953447572
-0.36665374973591086,0.5813325144741888,-0.2169080373667721,-0.10319304062011765,0.5056057138332548,0.49127781912689766,0.5961954909575942,1.897289107753591
-0.38602594202210716,0.5537928351399706,-0.25864828453996264,-0.16807041600140069,0.4299427589577021,0.3960775680946225,0.5321398171005638,1.7916443807755251
-0.40633007213836553,0.5492519393027835,-0.2923022026293039,-0.19727415558269842,0.3713025268666326,0.30805372370751255,0.4445337673886842,1.8452055088638455
-0.36709998035501235,0.5111965482713043,-0.23258419949032172,-0.12332905196672368,0.5359084470253365,0.49441145860465874,0.6108581556683832,1.8708057672960856
-0.3786757493703301,0.5297912055219833,-0.24311241730438884,-0.1559547798294089,0.46064933653535034,0.44098254630474315,0.5728014266792414,1.798906473474013
-0.39230885446623065,0.54848833970949,-0.2951434880495264,-0.19901792103939897,0.3852461155251536,0.3382207370438277,0.45372374452321995,1.8458690673636695
-0.39434485289202825,0.5143406779772841,-0.28168513408560936,-0.17132381350370068,0.4398607591499481,0.3960001467193642,0.5465144788510234,1.8420578314893115
-0.3605962467580784,0.5385220946946634,-0.26721588495032156,-0.1377669099812519,0.5531722114600482,0.4839898401293586,0.5888163661785286,1.874240733225286
-0.3929975466841486,0.5631265811623833,-0.2841687482041373,-0.17420346031555503,0.4253750426467163,0.3931178822086697,0.5196203692953264,1.8102032561318484
-0.40428550842086286,0.5438128830664533,-0.3209562252807836,-0.23207460808573283,0.3435857001248979,0.3170831008089763,0.4381206995576024,1.798589712379757
-0.369528403712619,0.5164837583858708,-0.24373691452540305,-0.12304383741900622,0.5849790735903603,0.5377316449829428,0.6470864379056434,1.919238496816725
-0.3544862481425962,0.5640725785412251,-0.23685770012577712,-0.12340783548597667,0.5562446073682789,0.49021529078916987,0.6127720502661652,1.887927183726215
-0.3762413303331237,0.5191803622534581,-0.25408602100109406,-0.17110731944599686,0.45631839501961313,0.42492496285923875,0.5266141281751517,1.8669021798294085
-0.39396924682838663,0.5002834580890729,-0.274038374775722,-0.16327020445454365,0.4335624491819048,0.3540508920724515,0.5048889953414025,1.8576527545127828
-0.3467419593517147,0.5538563913678616,-0.22457641245966933,-0.08499167566402271,0.6404649692412193,0.5848507810186234,0.7030051247568911,1.9083039405950457
-0.34973313994725636,0.5712146577413125,-0.2393101933697186,-0.14081181279243615,0.5401500226744851,0.5025043040143273,0.6279455648344847,1.886350422274864
-0.38733621706546184,0.5525172946427993,-0.2941810511935377,-0.19454787188823291,0.42959604635192533,0.39647161511428514,0.5236450005944563,1.8223287813414168
-0.3620871776747294,0.5385672679568537,-0.2536906360675444,-0.15065275622445368,0.5470597787764263,0.5049386639104702,0.6398678126072804,1.9016325160258425
-0.34676021626176445,0.5711512682295039,-0.21096827030376586,-0.09722602249663835,0.612654013067229,0.5731834671649515,0.686132297774467,1.9273672063553466
-0.3567570687919234,0.5526420989842064,-0.22958745282960108,-0.1310627840278054,0.5304737422412349,0.49382521149111314,0.6424071978978875,1.9141005147820602
-0.3832131135007809,0.5350443299500302,-0.28460706208649533,-0.17948883659538273,0.42936906871200675,0.39681304024902364,0.5218081263806399,1.8855024772980478
-0.36471065869204755,0.5427779360088929,-0.21156166764080175,-0.11854879621729546,0.6351418011230449,0.5823088627447811,0.7276801399959016,1.93420048463039
-0.36349753169144355,0.5245703949876868,-0.2514425581197168,-0.14459885351316354,0.561652584931832,0.5252336788060512,0.6599235718468116,1.8817653788263087
-0.3873243805602588,0.5646950605195072,-0.300147699798877,-0.18320914106100653,0.45199128803653243,0.44207989027152517,0.5819893852035809,1.8675849925686752
-0.3797102678056854,0.5225053241475399,-0.2824449679540047,-0.18316278105021142,0.4957189835831927,0.45016721174824964,0.5304772719074418,1.9179411445043169
-0.3545849075725046,0.5381570721378368,-0.2232959841369218,-0.11506477912675546,0.6390814818485441,0.5655263284376192,0.7299502745054502,1.8884306890053706
-0.3577828469086275,0.5355176758229035,-0.2777490179310682,-0.16852134842143382,0.5348269003749375,0.5019570768314991,0.6288580603884631,1.8903179218851323
-0.39400068882280537,0.5375199221962299,-0.2987318538950106,-0.23762571438777522,0.4376057575860679,0.38574498964208676,0.5180467165734416,1.8354063734320325
-0.38739257989734865,0.5161161605578604,-0.29321404506933546,-0.1908262330451192,0.5310985187937014,0.5205720400055913,0.6264070134370502,1.878311339664709
-0.35097859315707075,0.5431530928167468,-0.257132420543084,-0.1657263588681065,0.657804063278831,0.6105013019730509,0.7478424601950383,1.9055152529878243
-0.365867732650595,0.5334531575080148,-0.2897091983414201,-0.19879209621293345,0.5377560703510925,0.5244895075474336,0.6062514041996047,1.8661199409649865
-0.41037705192836305,0.5258777959718692,-0.31204341095734067,-0.22927621617008098,0.4306966651317501,0.3820127936869042,0.5126902992895749,1.8077251790889102
-0.35454282562616046,0.5164751065137124,-0.2600412856808263,-0.20336088329887309,0.5953125718526817,0.5533677650029323,0.6928391385496673,1.8799166379216543
-0.352035573588984,0.5145732002105978,-0.2556808342851796,-0.1794346262313093,0.6107872701917406,0.5731717841597855,0.6843703041099831,1.8669695432032603
-0.363263785574782,0.5342137815711577,-0.25714984709372973,-0.19836578306414324,0.5089725095462693,0.4561727171921941,0.5865977050919728,1.8599073133675135
-0.38759472489576063,0.5104076143266829,-0.32323223532007195,-0.259916875204257,0.4395780906077948,0.40055231642991673,0.515415230832191,1.8115376358994197
-0.34358699249543123,0.5530349649531792,-0.2573244146588575,-0.15201055218915527,0.6402941306971539,0.5874028699480467,0.7156702127832432,1.9106208810616876
-0.37867476646232934,0.5660120371650925,-0.2847292544243629,-0.20425492814526935,0.5526566490379828,0.5139399310386535,0.6479318939732069,1.8839711949038067
-0.38087675801666054,0.5424144912621571,-0.3145277490869995,-0.24542225443307278,0.46645489415009417,0.42232674139786214,0.5404259179021893,1.81783139268037
-0.39198115533758965,0.5361304118567938,-0.31082041774316665,-0.21451980618013802,0.5038153225061291,0.43202607400342835,0.5607844061160943,1.9108660526728878
-0.35990309583986735,0.5529737167234008,-0.25609704687596513,-0.18717623159195906,0.63357824819366,0.5741000382999023,0.6982061488969651,1.9333432279033564
-0.3756099778787221,0.5695945424623499,-0.30732673769822716,-0.21291004952210313,0.5214879486999437,0.4990535555985864,0.6195029233246786,1.8570040529846106
-0.40082053672540463,0.4874672476546732,-0.3355787840490839,-0.29421841998305864,0.43532430688152174,0.3621134439896691,0.4820568490738166,1.8089614302663024
-0.378774139265053,0.5236952201432621,-0.3082307248194399,-0.23618256460775905,0.5813806982494275,0.5040258287146782,0.6523498660222385,1.8631415771111606
-0.36518610768975784,0.522307897122174,-0.2792689607142922,-0.18922882096783716,0.6439092819082718,0.5633141540455537,0.7189502507437566,1.9011895563970114
-0.36636747879654963,0.5444106031093541,-0.27969787541064395,-0.1866898938396323,0.5112549405432494,0.4679004070711099,0.6086571897905512,1.8693626418070002
-0.41245599590380966,0.5325058589833692,-0.3154140761579792,-0.2503740511323918,0.4155570524194636,0.36192819776224,0.4966917505049004,1.8311856174600791
-0.3733741983545256,0.549669849290133,-0.2694548984561315,-0.18016443863406503,0.6471299251824069,0.5589942940836087,0.6763644029046019,1.9620823077027476
-0.3727613498812702,0.5346856581058098,-0.2699172300928424,-0.17523457953695867,0.6424745896896803,0.5632624922284065,0.6846404792819025,1.92576602814013
-0.3899534635058959,0.5006331571879346,-0.31878325233764443,-0.2285924920484064,0.526796179535043,0.4739868557137425,0.5826843691004039,1.8437821216143733
-0.44028494283608954,0.4947258428244693,-0.3747233032072043,-0.3064730182419193,0.3978373615030819,0.35278811662826814,0.45713681612273016,1.8473867764091105
-0.38551082076786036,0.51124847613495,-0.2957419652911062,-0.21187256173747915,0.6220465152716703,0.5621825010903213,0.6817301764451326,1.861472903675416
-0.3904947889185789,0.5153282613873915,-0.296558842629941,-0.22546220438275266,0.5956194281647592,0.5467653435619952,0.6491222433330183,1.8538307806840906
-0.41839735477883927,0.5138273837406426,-0.3333685323562161,-0.29388036400281603,0.4786989391066482,0.42791250103088074,0.5653585723741961,1.856842608038308
-0.43235475947726604,0.49564729730624146,-0.38900011395075107,-0.3534283147085627,0.3937315899586437,0.3370228882930678,0.45254155817471714,1.8560111221472062
-0.39862669501154724,0.5092057134049771,-0.3345462062438046,-0.2562600316675371,0.6035937186274647,0.5458716221929979,0.6661672113462739,1.9372170478899289
-0.41338335785364944,0.48200907430652046,-0.346454013443404,-0.2869695875957842,0.5245000202756513,0.4765704467098168,0.6038056393158386,1.8842484058133557
-0.41661806404047946,0.4972824816302041,-0.35804664742067516,-0.34314042235424197,0.39898503421584064,0.3730750716168735,0.4962403938289465,1.822586646706449
-0.45144424647781706,0.5109494815826351,-0.40684153238345777,-0.34180561701561996,0.38157910454941657,0.3335026127491796,0.46904993876266965,1.7918675629751286
-0.4093410807977544,0.47024150260977743,-0.3287033730859718,-0.27357746698901547,0.5588374936801446,0.5209239684156666,0.6186219341377828,1.8878257823646414
-0.420695468671818,0.5143066347026032,-0.35351197878090423,-0.28307044208189625,0.48752608194657787,0.42696140951628386,0.5528118035839276,1.8909757339099524
-0.4550607713205965,0.4900787865191445,-0.39823866559533216,-0.3513868168766503,0.37563470776802965,0.32155026383050667,0.44842968987735704,1.8164022795545036
-0.45194820854663054,0.5545025929025004,-0.4026613647063212,-0.35789600129800375,0.3667688929549562,0.32915758458795985,0.4478019970361088,1.8396519052367875
-0.42579086869754557,0.5725105441064807,-0.3510867010012173,-0.2852380327633893,0.5316592993555909,0.4939858903474384,0.6407857356489126,1.833665437584071
-0.42861499940537995,0.5337171049797286,-0.3805132926222325,-0.3083045431164671,0.48674593940295285,0.4556003129742163,0.5520048397369883,1.814549549730303
-0.4548587487083897,0.4948665001234859,-0.3973537205734712,-0.3489283682334093,0.3737876714729647,0.34768600227350477,0.47268814432469136,1.8532227196449287
-0.4396678591200592,0.5120932806587061,-0.38843616357953237,-0.3330831215810813,0.39780693566837155,0.3898711960650552,0.4911637478930639,1.7758111056271588
-0.39770613475010763,0.5224283970078039,-0.3239882526034058,-0.27642677524732406,0.5714350490270163,0.5256247459105408,0.6391082602472395,1.9074139137675625
-0.4174266394109582,0.4983719467227787,-0.3466183179464146,-0.27442010732499744,0.4727064237645378,0.45440491809172706,0.5826757729676674,1.8779471114102175
-0.447415052489166,0.5155955018698326,-0.38984367261734665,-0.3218017878085833,0.391817605794689,0.3145429353543912,0.4644905697815166,1.7732861663382118
-0.4178979424237667,0.47143355886287786,-0.3503097263621226,-0.2778976235245199,0.4598412216165615,0.41755119918631195,0.5579148577960744,1.8816244235164825
-0.38440185424495465,0.5098551663232844,-0.315975893628476,-0.24578084324571758,0.5209822660294373,0.47158527828533797,0.6094033552979641,1.8712324670067946
-0.40377904603595,0.44673420342176184,-0.32572768003894204,-0.26267444072762736,0.41742547069485275,0.3971942180681835,0.5085938925002558,1.841331298651699
-0.41744689222677456,0.48194450881967055,-0.34505156803292036,-0.27071163902507567,0.3187859450221428,0.3080618138943846,0.41087843891563147,1.8299272576701413
-0.36850960377055364,0.5058777525366493,-0.21285308651574475,-0.15509382097821667,0.4905039327514239,0.4518946256910842,0.6146191931780612,1.8840135815416166
-0.37575688960784803,0.48998508612190106,-0.19085970374274425,-0.12731902985224675,0.4662998432615136,0.44074124935195463,0.5611153924423744,1.9150408071120821
-0.385462677588561,0.44999753891336813,-0.23120274126329743,-0.13713032787836935,0.38109457913088846,0.36485688752563605,0.49758170963789594,1.8995714864767563
-0.4084344901592307,0.45885263630230516,-0.2505477283170559,-0.1574654773865637,0.32754957365761705,0.2848268939666855,0.4175955718806622,1.840435496758928
-0.36847685936298324,0.441178907061096,-0.1749617592661551,-0.08873109364240214,0.567792133106814,0.5332360437643677,0.634569422011962,1.9568276091461048
-0.37780195717412934,0.48352203929610627,-0.20579926026034706,-0.10517937895669097,0.49646434541790135,0.4499576689830909,0.6247902698913466,1.946517775798661
-0.4015277821389974,0.4137981396859044,-0.24030622020028794,-0.16060933767839425,0.3836036868841793,0.3587401461331603,0.48701440713494804,1.9600610497247835
-0.42169148851857974,0.4916568589575276,-0.2286135127872384,-0.14210149021247942,0.39785330834618005,0.3470662412740543,0.4992507311900462,1.9178984040342408
-0.3698727139879239,0.4598659138282825,-0.15774542858810378,-0.07758832061615042,0.564920109007534,0.4853448468395869,0.644184809683871,1.8991492835773127
-0.3787422211317095,0.4831885162273155,-0.22086770660556182,-0.11857160097326398,0.455821416532047,0.4212948212478962,0.5556610081485002,1.9531721842682117
-0.3947060460682116,0.4718091151106932,-0.22585815174023374,-0.13277363256668412,0.32154430121234234,0.3269595519808757,0.4234844243215681,1.9087307514063927
-0.38009677015585713,0.4542970458880633,-0.21306757902184592,-0.10132349936814188,0.4529411812752091,0.40914913172208883,0.5487654335636762,2.0099974376224607
-0.38533044764419067,0.5092754631302849,-0.17534369936484617,-0.08503230826947214,0.5184737631518059,0.4770248935326514,0.5692266094701367,1.9494614355162487
-0.38593183912792284,0.4504554293062066,-0.20909053026179492,-0.0968163139463003,0.40644834121955614,0.3760287124099677,0.5035876020056402,1.8617248707276237
-0.4151536279366485,0.4308824528610083,-0.2815111160515116,-0.16476081712377305,0.2645351388508155,0.27356181982765465,0.4194139579921746,1.8429860185772406
-0.37692881190334193,0.4751165494200869,-0.20826711025679207,-0.10504230738462311,0.4948110156507484,0.48671779557898887,0.6199958851001841,1.9109925092444064
-0.3704707923554997,0.4607913547392282,-0.24492298430835593,-0.1376731322668316,0.45121609804963825,0.4373976420939141,0.5662496139412815,1.9147157169520923
-0.3878807818458427,0.448252002823943,-0.240479034784332,-0.15512180056278455,0.3915020984828796,0.3250374677432296,0.5104773551977446,1.9740148401960274
-0.409284221473159,0.4585520888886728,-0.2854919409005275,-0.17947235503440212,0.3168844176240422,0.29245964054158874,0.42686614540892914,1.9039649993310566
-0.3688076334933471,0.46399398936825637,-0.18635013070821527,-0.07814558651997178,0.5511291782962838,0.5152033752448816,0.6233317891027633,1.99405755527324
-0.34475942081883687,0.469976769677897,-0.11986755127246052,-0.025699939669047767,0.4371375330517081,0.39775178393801464,0.5413604121678188,1.9809339106602102
-0.3868993189501238,0.44854661223556186,-0.1597299344820927,-0.07762180071232316,0.32120153362512693,0.3101650852552274,0.4250629497054419,1.9439190802897484
-0.3833907288298761,0.41535647407344395,-0.16091281425880316,-0.026852407517164667,0.3440736017354861,0.3469664544381087,0.4625518168156474,1.9177713252233899
-0.33392155668250245,0.45205580306555027,-0.08642752596936462,0.04061107823103047,0.47588092718848346,0.45058828874608425,0.5903057041544397,1.9041504866755683
-0.3569176966206583,0.4499824666889377,-0.11559125131028275,-0.004062004658168833,0.40326127793786426,0.3801026490868736,0.4982917991808379,2.0003597783364273
-0.40745868073376823,0.4514953380192003,-0.17886601115011652,-0.06841378040690624,0.2790007697176897,0.2715695152639544,0.3746157563806447,1.9418269138656075
-0.388675721153834,0.4751429010106615,-0.14623968351766709,-0.044890001275300295,0.4280234419995854,0.38868456003517,0.5183379765259243,1.9539196002575085
-0.39728489762587604,0.4604055647703975,-0.16039733673334453,-0.05241466491337396,0.4241288621556364,0.39580927258495097,0.5212889293757196,1.9506838965493056
-0.4140672131650905,0.45052094932446013,-0.18228788144232438,-0.07105618525553067,0.32857172101029714,0.3247025527292489,0.4303903314786808,1.9386914654715826
-0.46563142815641223,0.43579144955692906,-0.26881848472418535,-0.15766839881169792,0.21797543688895102,0.21250757744225546,0.31416155583851174,1.8195816932275022
-0.4074125147973,0.432726642532688,-0.20534663771418626,-0.07199042862707195,0.4529606596415405,0.4615967411361751,0.5691380810555221,1.9460466477172023
-0.43422321037786693,0.44243029379640575,-0.2137511681376194,-0.07489444869232395,0.3944295731707511,0.3576935094464751,0.4831397123709411,1.9290713181275683
-0.4567147350440557,0.4524093444805474,-0.25017481471850367,-0.14257233443824704,0.28055890959563423,0.264885036643368,0.3837058309165538,1.8650178345611264
-0.4672422941207218,0.4103736278029642,-0.27326276901995644,-0.18075454606496316,0.24958379597856226,0.24307714434888428,0.3729879343430752,1.8833254139456164
-0.4211588177454063,0.4744249620234372,-0.2000738168112232,-0.06401602690121436,0.4369411962475724,0.4254998047266515,0.5637203442469925,1.9202881257454807
-0.432398580420287,0.44273863192550467,-0.19212614578445134,-0.05343266592888446,0.32778947737308584,0.3329549873322367,0.42933273611135636,1.9845989257830061
-0.4427604237298116,0.4246562343886618,-0.23055791978194623,-0.10421538743421181,0.227132923604182,0.18263828385758374,0.3486237162900353,1.8689026106402458
-0.44515017982952937,0.42655720013283394,-0.21388481302251416,-0.081553797126827,0.3115621955439525,0.29502757171153926,0.39852669914077526,2.0127688678171354
-0.426062029450497,0.4442508328880767,-0.18970876548070875,-0.056557809405665876,0.38962446750446694,0.3706749867333622,0.517948127057832,1.9578339394035613
-0.44340254230959514,0.4558240571767513,-0.23832759993683514,-0.12583577901817683,0.3091930495047032,0.29308171263661364,0.42210436881610053,1.9399807015752593
-0.47954543785544335,0.412189830269186,-0.2880204047848426,-0.1900854826467737,0.20679667133564714,0.17146443910366038,0.30577847677533504,1.9521229198008407
-0.44401087354093993,0.4413438639230833,-0.2333558789898244,-0.10612225114501424,0.3692507460510446,0.3653460133444442,0.5031286750386816,1.9968939225691287
-0.4570136416272534,0.44846106511053196,-0.23866501463537948,-0.1313637388203942,0.30626421276901283,0.3107529488801343,0.43074009502269284,1.9440024570345036
-0.46142079049386064,0.44629558383578394,-0.2706829824622628,-0.14210971373988507,0.22590827267485156,0.23074425950047073,0.32442057994579143,1.942934396140767
-0.46573110066194,0.3939939388205909,-0.25923304326265884,-0.1257130756894379,0.2168012112311118,0.20184698843841545,0.318121267201544,1.8852142063998238
-0.4204247550270479,0.5026446246785743,-0.1629657220350833,-0.03547616447379123,0.37308635832292847,0.36555554064153734,0.48425430814050285,1.9481171023278026
-0.4374978084656964,0.4509444230355621,-0.17536526590727114,-0.06581341164688195,0.29191662791958495,0.2686506602275188,0.382078611926096,1.889655186367703
-0.4560251278822346,0.41256258016676783,-0.21907812703032262,-0.11504912712291764,0.1644816893632055,0.1649573085691733,0.30234534842490385,1.8276720777975268
-0.44176520925636587,0.43414936915717656,-0.20711370353228276,-0.050472868066307575,0.330532465304695,0.3067159124811304,0.42835086148794455,1.8533103674227958
-0.4142422694890501,0.4759243817344194,-0.17144604653802092,-0.027516553683819917,0.38121678130137526,0.33999832170690375,0.4601552824142907,1.796590981563848
-0.44536657939007696,0.46756124918094255,-0.2127961446694355,-0.10688972598463677,0.2778396349435551,0.24859533100154627,0.3504094322002285,1.82668859445119
-0.48860488962436116,0.40112795975156945,-0.28998531174187236,-0.16589110406511348,0.15875516584470956,0.12018535876935049,0.2587559664629254,1.7723263709719599
-0.4401614122839662,0.4673733516880549,-0.1671149751758692,-0.06095753090079553,0.38527088290268435,0.37117777473214847,0.48494165089339075,1.792580606832011
-0.4452770663911917,0.4561286060776365,-0.21491699606013795,-0.09247404520389427,0.3209296182776049,0.2665630077050507,0.4063220423803679,1.8209149345301383
-0.4699724509663131,0.461390430595158,-0.2541496918454489,-0.15708792098517388,0.21211073554603288,0.1994672653970478,0.30080231802212554,1.778714799093731
-0.5012141545199997,0.4638652804419762,-0.29810978712643643,-0.1917231937987804,0.1990661758529181,0.19596264137283295,0.31155071590616823,1.799586874154984
-0.4609799931902509,0.49350124498499814,-0.2522522666382949,-0.15417044861225496,0.33489660599647375,0.3230000840045155,0.4207859445386254,1.869656029245001
-0.4951177714889685,0.4869295265508734,-0.2969435290678582,-0.21668120139567237,0.22189794510392652,0.22022628593966062,0.30245366634997334,1.785562129619652
-0.525780305360608,0.4531045647711774,-0.3462770148702432,-0.257610973737219,0.09608702064647161,0.09246424610961979,0.17450525797986652,1.708145498232605
-0.48951440383216094,0.4949723468402193,-0.29604468487392444,-0.19070402191607974,0.3081632470879372,0.2844948906876761,0.3775562331816716,1.802111749532152
-0.4959166010676484,0.4836596042305768,-0.30019569812316665,-0.22920047403024663,0.24650315767907577,0.25222646673847354,0.33821216969860524,1.7452733112146483
-0.5103012797959635,0.43934356915059536,-0.33313778163478647,-0.2535028785970359,0.18866657450253735,0.1658637325081631,0.2567685562416458,1.735220783587787
-0.5254618256006568,0.4435865775442691,-0.33791114102916353,-0.27467118029550486,0.17353245834465625,0.11310707211396653,0.2232497331511452,1.7625728020993687
-0.48712608398085044,0.47062285247755264,-0.31558854721910834,-0.1936498688395449,0.3137228702903773,0.273244071377047,0.3534207371073558,1.8409206822792825
-0.500324575916562,0.4291456400405877,-0.3291001726006553,-0.22591600820162033,0.18771292263400974,0.17855799708063924,0.27702350673884835,1.7718435547747369
-0.5347694463292397,0.42878300068542613,-0.358090094008508,-0.29193223324381734,0.1075673053862447,0.042484612607216345,0.16040502416965277,1.7599550277536529
-0.48922168404763067,0.46000052223838833,-0.30730640280164434,-0.20232460812885666,0.27247428997582535,0.25232445335050396,0.37208448136299543,1.7995052530544438
-0.47563048058988155,0.45391847510832556,-0.3019153248729358,-0.19424631609173018,0.24629234109214415,0.22104177885812903,0.32832722508939394,1.803273817847379
-0.4901138193083256,0.46644658271850453,-0.3026082629988686,-0.2254556039635242,0.17463521048163963,0.11948959890242775,0.2612418320389119,1.811622846987077
-0.5117439480649209,0.44524127482806763,-0.3249418454247699,-0.25672605746774446,0.1596456156115926,0.09910525207456691,0.22606264276836047,1.8136233653655232
-0.4685617220353915,0.5216620189401748,-0.2643704380878935,-0.18549043176183355,0.3069989525871923,0.2769862199451386,0.4265961151748243,1.8264394621260904
-0.4806617352246556,0.4498465036813363,-0.3012705397012449,-0.21563383323545987,0.23214352804333444,0.1956449050133201,0.28968830986492533,1.8188652383349513
-0.5207910323346326,0.4649550367307026,-0.347118632639561,-0.26093558580014425,0.11659098725768137,0.09658572330600246,0.19433569137627388,1.8337270766138336
-0.48544548455573666,0.4721180419447067,-0.2777282195356695,-0.1766262989554778,0.27030404846686157,0.2542390041892578,0.35352083479715174,1.7896339284255889
-0.46382339207317497,0.46225496630806406,-0.24878608435886868,-0.1394622252254745,0.2925029345176628,0.24712460907332584,0.3637527631570508,1.8301634502179513
-0.4660678689778054,0.4856879493488879,-0.24699393624376895,-0.16597497342985343,0.18038242893547035,0.1685603685925027,0.2763487747523806,1.7561022829525166
-0.4856850992377207,0.4485067370981968,-0.2965121990528791,-0.17750657606332543,0.15212258882929464,0.13352298159332815,0.22647437664095685,1.7292349678064343
-0.44292178256330594,0.5275189134774251,-0.2121176440193857,-0.09323798211458201,0.34069776569281857,0.3044843347594424,0.40346322323312866,1.8385602877516498
-0.4579242888026799,0.5099928173816997,-0.24047461035548312,-0.10509874136626356,0.2577685474470532,0.2515468031159387,0.3477990648574622,1.7612643251357674
-0.47916458075304935,0.4624572775483809,-0.2625992880635217,-0.15763144733801074,0.1575022324727275,0.16160253663610347,0.27309350647441444,1.7835687357466328
-0.4576505415886798,0.47699869192222905,-0.21208286174367733,-0.10095771409428964,0.31087397517113596,0.3246493749352773,0.41531887710919,1.8578081156625315
-0.42940568027937215,0.521146592556989,-0.2105288568389754,-0.08156106594334298,0.3461515783859955,0.33621094366428644,0.4277686367424421,1.830567983134252
-0.44511922390425385,0.5043559198676437,-0.20810173266422843,-0.08681977653494252,0.274599719829041,0.2757085378073329,0.3550986002880963,1.7265358330334413
-0.47466003967337694,0.4962122127451378,-0.24816073680338052,-0.126546036453936,0.22698907783258365,0.24530086497580428,0.35534880587112155,1.7479864715960463
-0.40998214683418244,0.5555723578903216,-0.1589762606721339,-0.034367203332920065,0.4883891028827776,0.45539523427906264,0.568368044863999,1.869390439531472
-0.4182615257838942,0.4928074477148652,-0.15744973437233642,-0.043962982839871045,0.3808427579233212,0.3651485505307653,0.5126879946955101,1.872351938683988
-0.42451833245815496,0.527530289910236,-0.19511831976909522,-0.05327786773104391,0.3115358809012943,0.2854778615182645,0.41079726016862406,1.8245167564228
-0.423599392842554,0.5202636992777712,-0.17608420652264622,-0.045224324243782754,0.4078658190183889,0.39013627325230316,0.5013041566637129,1.891407710610493
-0.39598883018933373,0.5100945585307937,-0.12478192808071317,0.009558391623390922,0.49378577268088686,0.4810507176478399,0.6148454735645392,1.921801207430591
-0.40215870072515547,0.4863464891372402,-0.1509312905300529,-0.005732250688867679,0.42642453724779233,0.4127423587076654,0.5276962469790737,1.9221583554204427
-0.42471805415457187,0.46018203814493697,-0.19746374213131954,-0.05581349271406659,0.33925197235789606,0.29596708148602113,0.4269092444511668,1.925397756030395
-0.3945305411346879,0.49147468060289357,-0.14272851341636184,0.007546422822004378,0.4893693060346528,0.47125389355888936,0.6324926683634726,1.9398789752760828
-0.3848226353754579,0.5116693265586226,-0.12508254502853697,0.01815023548740688,0.5182333059129474,0.5096408796990262,0.629207063400487,1.9867743564372198
-0.38066033337741323,0.45310365478460757,-0.1623114932436273,-0.01699728873933337,0.45661161031368597,0.41726439444070995,0.5292615600047824,1.9215425168052218
-0.42687107611947306,0.4634287779946887,-0.19901960118027082,-0.08426106406564449,0.32603836315023,0.31515628253205036,0.43143892323025923,1.9183757670586479
-0.39206576017268857,0.4796106584135874,-0.16048712239596605,-0.012063489217159551,0.5424261932095391,0.5332903375018468,0.6547511993423705,2.0248065070218466
-0.37710980884998335,0.4951127453835594,-0.13347468860528963,0.0041020442843167915,0.5524559840026682,0.5452247790614857,0.6642693614101366,2.016988193106333
-0.38802641023697615,0.5037632890454316,-0.17055510733873389,-0.042502552610724914,0.45374676606807945,0.4354784638452415,0.5546265870901528,1.9732502881818195
-0.42405767724473065,0.4646913744591249,-0.2032226950805535,-0.09729398626522494,0.34879675548106875,0.3321350816171612,0.42921761072567494,1.9163471765309983
-0.41952829159747085,0.4500538690364038,-0.20859324128011847,-0.07492576951865929,0.4231475646454703,0.38306389593624157,0.4862207810374158,1.9643930760229225
-0.40379991912886404,0.5290190200740988,-0.14399971878451692,-0.004082800080927235,0.6029408508138185,0.5685259929978396,0.7034402752649874,1.9743926291735958
-0.39721712229670386,0.5048824253051174,-0.1447450929868968,-0.043149494164592295,0.5256491008233821,0.47367739206904713,0.6385527157396725,1.8726154586999515
-0.40894961577190353,0.49512911852136365,-0.22148517436856394,-0.08195988873449835,0.4108869957107398,0.4046909846028213,0.5114119481162037,1.9288071455779097
-0.4421351053115111,0.4802316058901052,-0.23442843486753012,-0.141247607163011,0.2841497919608388,0.2584892475837554,0.38995389410460674,1.8637968564582776
-0.43327618986057437,0.5232132753582655,-0.23497368377861277,-0.07792825163873413,0.4044933056921063,0.38106755468779874,0.4893020288255311,1.9172533979044837
-0.4024197178014045,0.47898390179630745,-0.17133159766377398,-0.05501360845985431,0.5530057646118013,0.5436657130390817,0.6431173514423615,1.9091191332582191
-0.4199395318218301,0.5279689901295592,-0.18454795044235087,-0.05967292498136681,0.4954278021821895,0.4696827641272526,0.5823585237122438,1.9457433024471653
-0.4378428020968342,0.5103549149224248,-0.19838061898188747,-0.09476419115269229,0.3821432651994266,0.35652635404243904,0.498255852605164,1.8463915021063058
-0.46076955556001337,0.4970336777204506,-0.2772098592216258,-0.1523820105435247,0.29294673079412265,0.25173776704224404,0.37595007180028633,1.810165210437549
-0.44866797211823994,0.5125553395216289,-0.23335564185871532,-0.14187107761615672,0.37158990206763437,0.3463813965081961,0.46905088272298456,1.9333550781002469
-0.4029576577696027,0.5117210403621142,-0.20092062394619373,-0.06791484182526134,0.5120858861912524,0.4854409505470184,0.5877284494249083,1.9618476248322845
-0.4256085309472384,0.48189304056689375,-0.22307817725288476,-0.09989262726940377,0.42304335267027093,0.4186920076915891,0.5506250179834185,1.9803293263670094
-0.4509451679819987,0.48637943537808703,-0.25599324023740205,-0.14791433270841464,0.32941698613935333,0.3093586477754453,0.4177982302487364,1.8694846891289503
-0.48160508121738455,0.46455566660781955,-0.31239435704744667,-0.19930747301288734,0.24071402998992983,0.24329051113092875,0.35977140434429083,1.8952063127384107
-0.4408571016011986,0.5045470798375692,-0.25669583607490165,-0.16309446916093034,0.3699702249563492,0.3742432718037218,0.48519805242608643,1.9350810744042506
-0.4266219351579385,0.5378365806258647,-0.2299940197030134,-0.13244828062561298,0.4689133802324009,0.40667387486131923,0.5410210117723787,1.9763753317086379
-0.3969443086816264,0.5062851890934412,-0.1803874367211155,-0.06502920356695242,0.3951494325968486,0.39159166779445626,0.5048164639239755,1.9291383173377943
-0.4320307538122873,0.483513368150099,-0.2078778163636255,-0.09471552257920064,0.2838319128848279,0.2703121918194571,0.3791203146873624,1.949698837060882
-0.4533917478292323,0.45682059759106536,-0.25789150385902143,-0.17430428214546198,0.19636193593272905,0.17229071776608548,0.28226188832076465,1.8077981502145855
-0.4109378597127107,0.46699074128748086,-0.21340829842997608,-0.09299795078789905,0.41448576127975656,0.3680816569326575,0.5099865438379646,1.9419648571481019
-0.4072406424757295,0.4837892121898739,-0.17485655998138067,-0.0445839797219241,0.4654431163036292,0.43125406363363505,0.5670658283592637,1.933636999857029
-0.40900289398518486,0.49040806199754866,-0.1825782840430485,-0.07027409148967764,0.3804860785933845,0.37144170169258334,0.49373297795462084,1.8947736887365965
-0.44252820377593505,0.501955631770872,-0.2315410554749613,-0.1428325969407028,0.29141207487596266,0.3003053311002549,0.3925665826235569,1.9308729303213121
-0.45923676559518906,0.46849201831109955,-0.28100200558171723,-0.18322242859728555,0.16881519649893242,0.1625718641740597,0.2922646413839327,1.8551289490403036
-0.4270831762994759,0.4864664610263383,-0.21359041429123654,-0.08443044593615057,0.4126480612609224,0.3780649189266211,0.5405147121363816,1.970465385135296
-0.4074595143526334,0.4917730272101724,-0.20242648576163627,-0.07875316880425212,0.4126614642623002,0.39996528662515385,0.5604072733917143,1.9413887530203842
-0.4282787392594011,0.47472778452390735,-0.22262579485890815,-0.1055075358621349,0.36579098666733584,0.3352990889604362,0.46016003315826887,1.909261617788649
-0.46327735034703954,0.45741118921427887,-0.25614373924732475,-0.15542298521890227,0.22473692140893,0.2443240670079018,0.3469841113333744,1.8500727247728934
-0.467892431459473,0.4962601277670096,-0.3075858412141899,-0.197393505915064,0.16016722742764938,0.18965459437087454,0.28820469962608336,1.8972701513724384
-0.40999219223832106,0.479721764895449,-0.21687161646589054,-0.09184331463247486,0.39280248265017487,0.4066290820394213,0.5334405940366463,1.9628375437458407
-0.42533060330679884,0.49726944500812675,-0.20789341506500472,-0.09758250775029573,0.36849676478138854,0.3495297756032621,0.4937138375809044,1.9586672514707584
-0.43506654688563534,0.4751605006671631,-0.22729808519700284,-0.1327610960256165,0.30366527398211873,0.27846491610607893,0.42993383985613837,1.8731799944418581
-0.4712030622159271,0.4513210928073647,-0.30304344235095315,-0.18739632295104175,0.19581696684962907,0.18745222214368445,0.29527574427932846,1.8277969891218033
-0.465484836758152,0.4597010582442973,-0.26939287986582966,-0.1640522360856102,0.27600241270423603,0.25490122574913365,0.3703122294894508,1.8607307546839797
-0.41893786969697766,0.5119385729971355,-0.23058353613551835,-0.08797079764434192,0.42750863329803374,0.3991168425516505,0.5200818843986657,1.9304857022801647
-0.4320588706791317,0.49755055561393385,-0.23967639491548376,-0.1257190718981599,0.368129690248449,0.36123706416842094,0.4896846248475501,1.9586077705706604
-0.45700597524390785,0.5064857720756653,-0.281906428380607,-0.17350715787150567,0.2529466716067775,0.26910658527260145,0.38600738342260726,1.8713588486662234
-0.4960063214119407,0.4967594990857643,-0.3218565291437212,-0.20428897203310023,0.22000925373278088,0.2068145544103981,0.3349074219898942,1.8443413254882646
-0.4295441327779955,0.49809907667837283,-0.23055852818736702,-0.11853304382530955,0.45566717588407807,0.4454960018464571,0.6065955488046646,1.971602324677994
-0.4299968324162772,0.46722731010888713,-0.26114597379095505,-0.13540497104765734,0.4165689089558019,0.41780847952980527,0.545669354260881,1.9476719596637997
-0.455915843237384,0.4863912741579251,-0.27876397476366405,-0.16584578067545117,0.3261222769869242,0.32528136956964593,0.4730911543641049,1.911536290911216
-0.47927510637994586,0.4759483118629643,-0.31414150064277097,-0.23331334685809071,0.24425127968342594,0.23353573444461592,0.35837115627431787,1.841171935540905
-0.4443369933810989,0.4858595344463983,-0.26830223819038684,-0.13000197846677042,0.46663408387085165,0.4175912157964917,0.5780078174280698,1.907171014885719
-0.4315439897087937,0.502938042179538,-0.23894379374394875,-0.1341683548480268,0.4645030155536662,0.4461659173783294,0.5972343768285077,1.9629495478325805
-0.44887504792040256,0.4335201819216067,-0.26706662772075535,-0.1594757732733245,0.3827077544021642,0.36470673409718246,0.5061801897361112,1.8819321182137636
-0.4633158929286938,0.45842961581196845,-0.2937882657707784,-0.2098879706016427,0.2755677570444099,0.278877690075991,0.3924456883410887,1.9427564398232733
-0.46643905709250877,0.47178278673802787,-0.31356574261417625,-0.22071774219005086,0.2304351939678192,0.23656427130638713,0.3476046555331784,1.8649547845535275
-0.44001906232356924,0.4967659047861143,-0.25112867547746964,-0.13281153040726595,0.4319832767936222,0.4254772819963094,0.5916072040161604,1.9777062998209607
-0.4360074143493519,0.5157263291178764,-0.24498872748465028,-0.14668354262557312,0.4049477626038843,0.42159873573444473,0.553852530890751,1.932317139811068
-0.45160860315402607,0.48279858398784065,-0.29163411376767134,-0.17461345055116537,0.34110438064056264,0.34757840313212157,0.4731619585718114,1.986776593473886
-0.46922608511425057,0.47058676240955827,-0.3225201966987029,-0.20763005053993386,0.2532047786329234,0.25510292334972184,0.38332297532455756,1.9099027465943812
-0.46558804532648557,0.48209023129401946,-0.2893279748558153,-0.18977423905146926,0.34508219540701035,0.3343562726587963,0.464661249535605,1.8909410047438064
-0.42825496434323795,0.5101937044308354,-0.2686279408178743,-0.13476840806574045,0.46142946725340983,0.4674927205096916,0.588753311228077,1.9310871371149454
-0.4282571435432099,0.4853055240413036,-0.27859161882619726,-0.1576779655789401,0.40356532066697526,0.43006845620179746,0.5315489727800737,1.9327633111147153
-0.4653789993763715,0.4536075470601921,-0.2904449352703326,-0.20713352539514085,0.3070398213716863,0.3336446017124672,0.4301439458246105,1.8812050817248251
-0.473164700511894,0.47903992169590226,-0.3327591277817147,-0.2255217231213517,0.21559900686740666,0.20564400407260214,0.33222691364349866,1.8425619551610461
-0.45839273608578257,0.4810191010693495,-0.30648953335695833,-0.17726983187264095,0.3704189296468402,0.365098460495036,0.5060387093922533,1.9293529360631276
-0.4363052699932862,0.505596381811609,-0.25206226032427187,-0.10203508638957949,0.48094851300844227,0.470971760483354,0.6253314019339218,1.9100493596237191
-0.43664548792827546,0.4573306154428987,-0.2468278512524018,-0.14725235576317686,0.4515601261294509,0.41406472296984137,0.5636219736146283,1.9719661971194222
-0.46294151819991836,0.4814913248581741,-0.31890146452743084,-0.19510464709399128,0.3328465564129474,0.316635625343342,0.4547757579935671,1.9577955970437377
-0.4834223987561864,0.4826095617164454,-0.33997318886336936,-0.2476541999550813,0.2210890124695909,0.23467139091753403,0.3455800997884816,1.8503074615446047
-0.4888419834134696,0.47789555311756937,-0.34930494836960263,-0.2610479198137639,0.24283799544803375,0.22641342716969465,0.3219962263886421,1.8738461457665263
-0.4433117253723473,0.5251904953197674,-0.2891697930879824,-0.1889991557350968,0.48960746627020285,0.4120404977431979,0.6050789769700824,2.032531343663076
-0.4316621214038196,0.500337152069936,-0.2996341704343054,-0.1710220356487691,0.4499043991691356,0.38999635745470596,0.5384760203926857,1.9717970493837427
-0.45787917969752556,0.4777159206395583,-0.3064618465900782,-0.2265332661396937,0.34698013818377305,0.30129575215268845,0.46492564475000386,1.958881892331534
-0.4786197977020603,0.45810325857576606,-0.3591534334614579,-0.23924135315024722,0.2588248266088243,0.21073517008217046,0.3336577914530233,1.8539854164796157
-0.5004420386489872,0.4792541003080494,-0.35413357998365524,-0.2839590119525498,0.16574816603904063,0.11088510133322416,0.24306517032200495,1.8804625169496054
-0.4715122429521511,0.47346810984973403,-0.3091867184080432,-0.20846344347415557,0.36466020130891047,0.3418886894914426,0.4657585212855122,1.9587355546858536
-0.45116268703874773,0.48758573948651635,-0.2858313105980745,-0.17919181020549374,0.40021596317807834,0.3327275515333113,0.49788005866518537,1.94222283971355
-0.458397592606386,0.4835678230046674,-0.3126167394778223,-0.16512559286095949,0.35365185878106853,0.30022702506300514,0.42164147958970244,1.936611176862254
-0.48984602284133094,0.5132103863853532,-0.34511639004071687,-0.2696156724686814,0.24177511532753138,0.21712839870319742,0.3287987212796686,1.8902903078367006
-0.5126439021338605,0.49718789504332705,-0.38084708919431115,-0.32355145292949794,0.17009339410176016,0.12253182664787782,0.22671070520518927,1.8506295651648106
-0.4873876916049194,0.5144886248511815,-0.3629626447562061,-0.26655222327199907,0.32466378490521625,0.29410699400011897,0.39765547551716873,1.9343798989155188
-0.465909912500178,0.5080594604488019,-0.3143399114384534,-0.21488001513112256,0.40572345978147195,0.3443740267986326,0.4934794869702304,1.9702558610975403
-0.4674406967912351,0.49593998508700465,-0.33123192392317974,-0.23780232560572057,0.36925578528908576,0.3178985234416266,0.4435785832568101,1.9465069156428247
-0.48871279099055537,0.467233863027382,-0.3653312752039618,-0.2919873139538449,0.24546698980774634,0.19665727188651458,0.325175136610543,1.9335331754849012
-0.5124151583774891,0.47549672113154434,-0.3904728393282477,-0.3325076266413124,0.1399910277382113,0.11011359023905531,0.20508772404034553,1.8931075460269182
-0.5064721901313098,0.47098080441752405,-0.38375822064918613,-0.29533126899139994,0.21546729869215867,0.1414775711162383,0.28373889565435906,1.8434173067787325
-0.4572982018061825,0.4961032378555096,-0.2908898661403825,-0.20758098344952397,0.40237946466978214,0.353250673807199,0.4932803819588976,1.9844294973641707
-0.47590649342571034,0.495417595908178,-0.3172982139785475,-0.20222736985201506,0.3538298648947308,0.312646599432642,0.4053189960984508,1.9469238764504255
-0.47252389349380475,0.5279047575277048,-0.3260640809303249,-0.26072474464214523,0.26989834114558986,0.2115740809945952,0.353181317427485,1.937562394781645
-0.5124375357132417,0.4760914600380405,-0.38393584976176576,-0.28342296629274566,0.15324095104686897,0.12353913650099281,0.23645843129605923,1.8713313121856672
-0.5353381076175,0.46692925613140684,-0.41233127262906377,-0.3341205639634315,0.12024566905919473,0.059314411302688386,0.23338313625839113,1.8752512348807295
-0.48777408751341206,0.5216398353628007,-0.3282475292878847,-0.2283652566154953,0.35174440067783413,0.30787009480724997,0.43709985033878884,1.9395241460975996
-0.4927692694143195,0.4949204442943144,-0.3480024651693421,-0.24739956536366864,0.3112267450282828,0.28541600965943664,0.4251509249184685,1.886141171919493
-0.4971724178500365,0.49789526550323837,-0.3646120897637456,-0.27958623353041756,0.2730125323781906,0.23808457548665946,0.33786240174578247,1.8845009527955268
-0.5233385938937466,0.4504774371880763,-0.4109422813198228,-0.3282076486241512,0.1592827652822366,0.1362183534277131,0.2339355426669545,1.8544568414105376
-0.5503677793543087,0.47066067375966136,-0.46325759481559503,-0.38768537486066734,0.10675901768866179,0.04536631109504176,0.15345379258898567,1.8888474007086533
-0.48417902955619463,0.4908687975491325,-0.36636508352318076,-0.2617130690385803,0.31561006807179387,0.2552835664626552,0.41722352230900056,1.9146854360443357
-0.4797082487316856,0.4920208760677911,-0.3254770797070649,-0.2511658706593448,0.3044555287736886,0.25765468250844364,0.38255928260971855,1.9089949030239042
-0.481311140788467,0.4940691146955578,-0.346895116854233,-0.28113594017149346,0.2329574718656491,0.21062939970426833,0.30464488923474353,1.9102670617032582
-0.5243355395572473,0.4718376362768252,-0.4064823795531475,-0.2984586952687376,0.16087346180771178,0.09851714746365478,0.2121559043406768,1.8696065374265176
-0.5350944455559445,0.47236520987329284,-0.4300568134950358,-0.3290060702735597,0.06832606035679088,0.028225192253486672,0.14114705960503082,1.8151127649824346
-0.4708121296060511,0.4811930448026043,-0.3452507296604,-0.22422554328883618,0.30362071145757386,0.277689227685469,0.40314080421417653,1.9493891849298988
-0.4619042801240243,0.4895468300912215,-0.32558308609166253,-0.23162644571500324,0.3062237131436934,0.25626970840212143,0.4125724119476956,1.9795671275073314
-0.46585568612451767,0.46025047138257574,-0.3444949691173327,-0.23098463729602575,0.28549607250769293,0.21993003390937715,0.35881848758939433,1.8957751168981876
-0.4942114395117918,0.4696767918022856,-0.3697905696855577,-0.27226112692009635,0.18129498328496413,0.1328362545570171,0.21564403832357049,1.9876020681269442
-0.5027691645225257,0.4459695073749133,-0.37735239623511807,-0.2688483638930772,0.1379374437549743,0.06779286213244536,0.1732685798220395,1.884157193234692
-0.4231648474562213,0.5131519266487564,-0.24244812907322488,-0.12184760646673436,0.38503767443884584,0.3169120464439411,0.459684133405908,1.9393927745672173
-0.417928312134204,0.4871200778660793,-0.21673185397033312,-0.14272038034535808,0.379063683787492,0.29142274920919997,0.3852917815019284,1.9409963400652888
-0.43266012541340326,0.4627486151200159,-0.286473771680776,-0.1669831640140686,0.2886278065162927,0.23216594831350995,0.34782700501480984,1.9549264058268436
-0.4657225725009883,0.43909803491740573,-0.3323571614134432,-0.22950667686832532,0.184053995308459,0.1299114103164523,0.23295583834849998,1.858221907705079
-0.4707297482040017,0.49665436380426364,-0.33345452504371675,-0.22875346827121182,0.23743860519940516,0.17231417693408496,0.29725873475785747,1.9878991333833786
-0.4412924491532399,0.49882911209177994,-0.27950334596934345,-0.17312849036776412,0.3427768729996482,0.2995115453954733,0.45740921013109,1.9383079636430152
-0.44311963786574904,0.46266408056492947,-0.2811437314951727,-0.21243733999009337,0.2993646768727423,0.26734428173943847,0.4066666239426784,1.967417671654636
-0.4585892467110525,0.4627480453774332,-0.31181191240847583,-0.22816491545901044,0.23552828377052196,0.19487212875889573,0.33380364217297753,1.994839204203144
-0.4869829036709328,0.514945025227979,-0.3468815408292161,-0.2566259841413323,0.23984868147656555,0.18343416642104116,0.33131225910759105,1.9431366666798242
-0.44203859506909904,0.49515801386762864,-0.2730667253373422,-0.17187442970278796,0.39551213297522514,0.3447675470799492,0.47977417769408,2.002673525477989
-0.4273212077930838,0.4774988561963019,-0.28980485191612837,-0.17773341207907742,0.3410727667103187,0.2881077884041685,0.40525533376371126,1.9837318253526164
-0.4696796819667174,0.4658639829932784,-0.31167878217849887,-0.21178743453133342,0.28889901466472967,0.22498826374820569,0.35709037575870084,1.9691081631164322
-0.4734592728389436,0.46104143366079736,-0.326836896841707,-0.21352328034817625,0.2518125368803247,0.1941570917010977,0.3342051094490182,1.9647906625490295
-0.4182565697829813,0.4860150860698836,-0.24217540909880675,-0.11598689269215218,0.46050340453173794,0.40638512340395005,0.5278646285028467,2.030290609663821
-0.41457781224731716,0.5160963810015524,-0.23277971865339814,-0.14685264435146295,0.4499602805761748,0.36707938034786297,0.5152681708589205,2.0876220750479533
-0.44167828585331315,0.46438287112925797,-0.2690570710664921,-0.17716279491033396,0.3643853237199937,0.29188913987849185,0.453286751979113,1.9838455331887785
-0.4498229348763262,0.4887455444286897,-0.3117384186408233,-0.2233837380137213,0.2547166812912907,0.21317112654964757,0.3234733707652698,2.0237256995727817
-0.4143796996534955,0.4397993468705158,-0.2588757626368222,-0.13365312127660942,0.46025096599962406,0.42523869815929904,0.5518002608279314,2.061620937184725
-0.41110783865575895,0.4803308128939062,-0.23227198938602056,-0.1102157604521542,0.508084830414815,0.45735288670275986,0.6097464445473104,2.0858814543944892
-0.416585321356596,0.47819461326072027,-0.23879772940599372,-0.13857742489867975,0.4352166594628706,0.38586419405682654,0.5349858433712403,2.020122183929086
-0.45808330720904256,0.49079793984992265,-0.27395344710685365,-0.1732195856661187,0.3306145243299372,0.29018951110688607,0.4003766032308249,2.0398341244720526
-0.4586485909718584,0.4604094129390915,-0.3218041734732848,-0.2097109671103946,0.2686861858029829,0.2344792149970254,0.3569998559198697,2.074233470339511
-0.42840496722401594,0.4446997170352573,-0.25438895621783253,-0.1462883129850675,0.5211387759761819,0.489718514027888,0.6089963975915326,2.2049355166300226
-0.4273689838712683,0.4156995617651734,-0.2619099595661663,-0.16657469851649465,0.5027847984314544,0.47179324591166816,0.6129642673488155,2.1708297991878185
-0.43992118976475636,0.4454485272205971,-0.27138065216117263,-0.18470070569005048,0.44318752438960346,0.4106317706727459,0.5245428699421237,2.145962670799341
-0.4577228579507446,0.428754732702279,-0.328159241016476,-0.20485899879161895,0.34113647495973726,0.2792293742224559,0.41517271466728817,2.0900219429999845
-0.4308473296488568,0.4430979189507121,-0.31308012328897483,-0.1982036886366405,0.42677766566850933,0.3655537709068775,0.5020094791247658,2.146130840219436
-0.4006052877315285,0.4513717519775276,-0.2565988610536972,-0.13216829348517303,0.5144850563022372,0.4612724073149825,0.6463481443533058,2.1327618321525152
-0.4234498176201852,0.45013375807278766,-0.28377273096496713,-0.17328494943357153,0.46567699897233533,0.4108703817513981,0.5361213377867241,2.052285498203831
-0.44053138658705193,0.4740051975748153,-0.30737941221545884,-0.18605565344897187,0.3792468275835562,0.3315168084372159,0.47127022909721705,2.027128159380923
-0.42920348955386295,0.4880634653971143,-0.3316377294406745,-0.2430489261504415,0.3474877293548933,0.29264849146908356,0.4372451680615106,2.0094216566881498
-0.36392327730971374,0.48701887261123805,-0.16624221452620982,-0.0025334953310469505,0.6593141856610164,0.6062098956872516,0.7325044256840351,2.1231668016566165
-0.33512475299223404,0.5057556210426302,-0.14001930696158432,0.026955176460867702,0.6158056920534426,0.6113914625308203,0.6907441448023064,2.1142597298216295
-0.34738740190827344,0.48268439874656843,-0.1828150794427327,-0.08565806095109803,0.4885096284031581,0.4463285924356867,0.5591448482423039,2.0485398390607092
-0.37175744899547003,0.463686870825011,-0.21386179885645615,-0.10792588114466276,0.3315234556817382,0.3023805411567086,0.41887251234520273,2.004035223215133
-0.348932533052871,0.4697981947988749,-0.12352118351286437,-0.018914972932529972,0.47224381536586135,0.44811529993536364,0.5715194441136698,2.0367529033020215
-0.3280024427863943,0.49546148154944697,-0.11071415036635299,0.03727817761918725,0.510377595145499,0.49919102133780996,0.6029882168713432,2.055935691096395
-0.33869461716089677,0.4978691018093861,-0.11135743427391158,0.037423298979418596,0.4425686925517867,0.4120448634698294,0.5605255713747501,2.1053248123130497
-0.4234186966155044,0.48614099752979356,-0.31112598379957906,-0.16921800457805905,0.34085222665847603,0.3294489924989376,0.467205798326799,2.0368912964527826
-0.4453310198911222,0.4361149142761385,-0.33789358742541636,-0.2201911925299729,0.44392054398975467,0.37653638074549867,0.5278262853438654,1.9639883268043588
-0.3611160394528217,0.5215580149402828,-0.23326237691118437,-0.09791578579752536,0.5082525477260248,0.4557050164534386,0.6400823470039169,2.0339397295024995
-0.36062747979024345,0.4895504939882378,-0.21069913252350872,-0.09735996869103952,0.45474314380610875,0.40056204914460447,0.5719818977637081,1.986947352640243
-0.39951532480566987,0.5029497273878898,-0.26657051699169826,-0.13698409759480118,0.33624164442806037,0.29787339150035297,0.43491951531421436,1.9971374647329758
-0.3646908734429375,0.4848009502449771,-0.22916035034609872,-0.11404380520093524,0.4130273767808973,0.3789506813205715,0.5185454217002046,1.9877740373422514
-0.3466783530213292,0.49312437609788096,-0.14407877281038822,-0.02575762670143794,0.5131099243362899,0.4922363665759549,0.6229080614644086,2.0093620523384352
-0.3628951305002628,0.5050590559674357,-0.15737781970936127,-0.04074565590143692,0.45709273474422485,0.41772546669995164,0.5360473131061604,2.03646497139031
-0.4047573855660427,0.4584175254391489,-0.20773809949134778,-0.10667264893823855,0.36158127308582044,0.3514134615247836,0.4649912116462315,1.9092525334860433
-0.3874013227082118,0.5070273448143687,-0.23591628912083062,-0.12753116916663854,0.37315505349252653,0.3418204220934425,0.461940920509847,1.9481591751403553
-0.35553618665225484,0.48711609576778914,-0.18476873713353467,-0.05181477753837427,0.572249214150941,0.5246648949998433,0.6348888939425361,2.0701674285695035
-0.34212110076697355,0.48672121556696873,-0.18845434765790625,-0.0418095630880059,0.507317255258024,0.45983683040773354,0.5776381507290627,1.9879218017329783
-0.37180102881038923,0.4765009957585633,-0.22219505527122627,-0.10610090531574706,0.3765968917040309,0.3491852092568332,0.452664994486696,2.0382785706820936
-0.39077936807303804,0.4868441632417594,-0.2676835188461835,-0.1755053965087229,0.2801149402200451,0.235697037289512,0.373415054341522,1.9825951060108862
-0.34806314636449437,0.5023900543136215,-0.2180124002004178,-0.06988280210228855,0.5333943503012367,0.47809196120975367,0.5750692987634034,2.049341182218612
-0.3454589720660026,0.4957299561992176,-0.1888339925824997,-0.0691153220423164,0.5343761138177898,0.4544935268752731,0.582647106691119,2.039252266386989
-0.3593016012467987,0.5103973566948887,-0.21398729778708117,-0.09456181851785522,0.4323415428543524,0.36981168703000805,0.48516737343369903,2.0647440596859927
-0.38343587699201553,0.4520766307865608,-0.26738285731561906,-0.14638837666186033,0.3044414244384483,0.2445224756932182,0.3626310537075757,2.0172084771475385
-0.38018216644189845,0.4634901672920252,-0.2556175464322821,-0.18524872147019406,0.3159199001793678,0.25881802553904193,0.36284086765776974,1.9793141713453344
-0.3474926870245486,0.5154364858852731,-0.21189213064139567,-0.11014914444351706,0.48171399338964876,0.40748853633040244,0.5188571875779733,2.0715529336648317
-0.36172599710824915,0.5265519525698577,-0.21408400497373986,-0.1369221697716124,0.40149458373415875,0.36074038631944894,0.48222704012065454,2.049452014949781
-0.3784843428755781,0.49965322946145063,-0.24632171715634002,-0.14679374391461125,0.3066075891971297,0.24020774453783877,0.36255715104423847,1.9728363108144027
-0.4045572894294472,0.5122314126378171,-0.3351472108551631,-0.2312009239755619,0.2279897912073578,0.16609794204690495,0.2736960108995169,1.9520570135088757
-0.36080976792699637,0.4536829037262875,-0.25482473112883797,-0.16707849290314186,0.4597758484018979,0.36936136135195946,0.48650296556331685,2.010020680001166
-0.3866562747599266,0.4959980373339023,-0.2680074411657148,-0.16677727910579845,0.38567879473300926,0.3108832544639285,0.4384280905947032,2.0187231882251115
-0.39206279099182195,0.5276612340680715,-0.2993165774243236,-0.22368982494055506,0.31291284126099755,0.2529595948685127,0.37921795447881357,1.9097361101208252
-0.41918339435695773,0.4810572681680578,-0.32127523999125723,-0.2328902867244615,0.2571732019727745,0.18568095995300313,0.3094665129138784,1.9224064879876068
-0.37866533952763537,0.526942038094011,-0.23143940599453705,-0.1560997298902741,0.46495694144260663,0.38400621225067366,0.4616656992864377,1.9078613775428621
-0.37085142046212893,0.49996048521168296,-0.2433395828992774,-0.15924586880348682,0.42051290465154445,0.3297828390479463,0.46291601623285883,1.9561611030600132
-0.38384744935839876,0.5009106064739253,-0.2562493165881148,-0.17556480984216802,0.3592010924383502,0.26254236715545654,0.38283244113926407,1.9958727544762702
-0.4031004850340306,0.4638772060081455,-0.3027731866708617,-0.21363227367063303,0.2531079928295876,0.16839412383316943,0.26260076496250795,1.9187065348544188
-0.3573582642964044,0.5247695426747097,-0.23659749571632582,-0.1271265623300114,0.47046905383599286,0.355278226174842,0.4811178055168101,1.991598612712194
-0.3382217260871568,0.5116224626825296,-0.20375373940343,-0.07519012619834584,0.47865138881216573,0.3738242474142728,0.515612338250777,1.9246241337171885
-0.3616465105747628,0.4910746533372302,-0.21426862689175502,-0.11493004260223812,0.38487276946058274,0.32398755275360763,0.42664839186682363,1.9761596545008522
-0.3838125086152055,0.4726021656841299,-0.27013534314451493,-0.18759654152287525,0.2733632436015525,0.2097795893241627,0.29602411089748,1.9306624013992815
-0.39554915681677033,0.4795535646832192,-0.2921805381222663,-0.1862618514573387,0.2480315701677041,0.18927803934138432,0.32568128137294033,1.9846185223994257
-0.33115180040976866,0.517787830010808,-0.195782196454602,-0.08172511164945913,0.5075154992830861,0.4085796168338589,0.5454266799076284,1.9981382619400352
-0.34488507495366905,0.5066082243805792,-0.18254293596014542,-0.09759662388217577,0.43403646250896305,0.35722852533666094,0.4845379167980727,1.9700442884532239
-0.356226479996148,0.5037700399164224,-0.23306769934942306,-0.14151563828421565,0.36146128225790747,0.2660056849032497,0.36272356959123375,1.918381379658593
-0.38416284475393825,0.47295136821401496,-0.2749349226069903,-0.20280920897575996,0.22234784545997874,0.15207808061816053,0.2768722794952812,1.87583132078607
-0.422183258572532,0.47196396647540184,-0.34476028308742945,-0.24813399647356055,0.13049768223135727,0.026433947054183133,0.14224409854215936,1.889969556835495
-0.40717829673491757,0.4948315375033176,-0.30711162594331026,-0.24451181361898025,0.2638729688142484,0.17031802502609877,0.27467125431762457,1.9926461730878653
-0.3648593370906211,0.48948565547567174,-0.2410144371701537,-0.14739803737793836,0.4013328745852991,0.3291903728238992,0.44483075691491425,1.936019102039423
-0.3713894859537972,0.50328240290693,-0.26918593443393807,-0.16810933862939514,0.33813548044778263,0.26371089777020185,0.39705913012431593,1.9180397755310883
-0.392628101708409,0.484340599653262,-0.2958526697489019,-0.22318657548937265,0.24980341437145856,0.18572479813402082,0.26461097238008235,1.8768701064381526
-0.4217008282803662,0.4685650754953528,-0.36468950975288844,-0.2658277145345473,0.16185975769046723,0.05403109562640749,0.17324322512488244,1.9291544414522406
-0.4632231855227391,0.4421396789366743,-0.3983388370970734,-0.31159606435021237,0.0888517351405675,-0.005373097074533213,0.08922780214037626,1.8539537937099333
-0.4096019540954246,0.5091111079758224,-0.3080358098588566,-0.2234143501568659,0.344292588680757,0.2644090293624426,0.3544080882883191,1.9682088014031165
-0.39422450652187613,0.46769727592034316,-0.30344162919402606,-0.2316554856567821,0.29863193308324565,0.2533526841831788,0.3816891140779767,1.8879662469636367
-0.4216426036679314,0.4682883898497338,-0.3156715421686914,-0.25009830481177625,0.2652477240688138,0.19643118557785538,0.2842540018407014,1.891054046809673
-0.44053539649266976,0.41402705972607307,-0.3687218483431731,-0.28160622168731264,0.17117362178027581,0.08069270646805755,0.18395525759512676,1.8820093397193471
-0.4749642093699141,0.46102500613960046,-0.3604290999629919,-0.3129547804303947,0.07470106143334909,-0.018918114456157407,0.07495594805301078,1.8479513226302624
-0.4402691323220189,0.49274132259851433,-0.33010312961106075,-0.2424252745951413,0.26257241727044606,0.19622663440308463,0.30073477637964036,1.937397279149874
-0.43981091806177297,0.49859519524391055,-0.3414061401367712,-0.26826094247626203,0.29028647977821703,0.21947997434910982,0.3013627246341949,1.9096233755270307
-0.42661936231101405,0.5223126502154861,-0.3607435633381818,-0.2617125749424901,0.23559907814008635,0.12439637822206911,0.24611777058070533,1.8677745213184709
-0.4490893967136836,0.40595314290987916,-0.37371530664790564,-0.30622257012317955,0.12725543136740766,0.039095277696765574,0.10998092203756063,1.8382415194381077
-0.46532139334754585,0.47089747398893306,-0.4084073404369285,-0.3578771819126415,0.003567085021399896,-0.07727758397853296,0.023766260121313804,1.7586611437717048
-0.4531084202578667,0.46287475025452823,-0.35282894078969396,-0.2745145100181177,0.193645414525336,0.0744245968094201,0.17148416468748368,1.8458324582608574
-0.43594842085612373,0.47244043685283493,-0.33068468748458435,-0.25252550838146837,0.200238596137971,0.10369966300036143,0.21577770140448305,1.884312374946497
-0.4384203123733539,0.4980757973467369,-0.37304011294123773,-0.28716732823221763,0.14518268106902674,0.04953270806547681,0.15384174963641994,1.8723595592485414
-0.47834494559217344,0.49097357727385893,-0.3970280632841219,-0.33527810404848835,0.06296586145682331,-0.011149811462874989,0.06285286645693092,1.8681256558691604
-0.4652657445917686,0.44430515902920414,-0.3984408819261033,-0.33757194820557623,0.07467120042816264,-0.019650773756261758,0.04386636375029071,1.8284284892284584
-0.42663714881514564,0.4538710690495522,-0.3222051300399076,-0.24249686450748692,0.20366244543109,0.11625182951499294,0.24110029040634107,1.915949904445118
-0.43157861611455184,0.46331373222006406,-0.3735107193342748,-0.2827907882405232,0.1644859756054348,0.0768721943641115,0.1407330656012355,1.9540431770235813
-0.4691761424624814,0.4359686625531814,-0.38875272600424327,-0.32994734917645174,0.07747401270512615,-0.0029464645344316562,0.08634183627406318,1.8604587089223248
-0.46766817897790364,0.4561790392848163,-0.408680245956221,-0.30942919680271896,0.061429095061575525,-0.020381944270907136,0.09621885265733271,1.842262704555092
-0.4151636256517258,0.5165269286890215,-0.3121273184956413,-0.21564310591155295,0.27483185469102445,0.1596714073039428,0.24435919758510652,1.9600096882443154
-0.41111031800778675,0.4337851816107988,-0.3261221321885664,-0.24191651738226494,0.21498008254268175,0.11110414939543241,0.2427575618886595,1.9278077678714367
-0.44665300436474475,0.4348066315267417,-0.3618017297827395,-0.270421433435564,0.13246794645091742,0.043249384763252,0.15746346664948127,1.9212487111188752
-0.4417061675869809,0.4407839057093052,-0.3446773638111824,-0.2741789261085211,0.1732717098224097,0.03966178157312462,0.15328921278553498,1.8337370966115092
-0.42661893555779373,0.49487866105984674,-0.29052825878921273,-0.2044727947550271,0.32977932730193993,0.21535515540199843,0.3340619301506547,1.9721405125235645
-0.4218503657824554,0.5075586172995616,-0.30319982507003207,-0.2123042481762376,0.254405419597061,0.16987982561627293,0.256557695368275,1.9375431829969134
-0.43056048323627,0.4693617773956735,-0.30019824240225745,-0.24400950369602165,0.1890349233547874,0.09303682965029664,0.16899356164915716,1.881515480088766
-0.4202353172202369,0.49541617584823555,-0.3122417644278977,-0.23808485789528677,0.2786251814801912,0.1841640139564951,0.284554338826573,1.9366225293655317
-0.4118438507894408,0.46841130618196175,-0.27460957039813333,-0.16971708038204664,0.40691960738350635,0.2811487894548933,0.36952240829905403,1.929965743979583
-0.4154615922037577,0.5048012521659037,-0.2828651747897557,-0.20407589437024937,0.34432863589368035,0.22210353048787876,0.2998196031870502,2.0087531262866465
-0.41463820705191407,0.4920139641989769,-0.3331445792895152,-0.21916883060649467,0.25868995010242063,0.15116551303119768,0.24807737751138167,1.948120039131724
-0.37189324131782686,0.48491732682758215,-0.2769258531950316,-0.15063860338283774,0.4578561874147675,0.3236057157244614,0.44567991816769453,2.0150768903012177
-0.39282090922774565,0.5078317305568667,-0.2616986442800114,-0.1499117207279312,0.4356824012560062,0.3209104518587526,0.4374845664185546,1.9814762506344805
-0.3962142638471734,0.5191041166332226,-0.28952990533623624,-0.1985136235994776,0.3727775347477128,0.2610827654850419,0.37110135022927465,2.0739064885642575
-0.4113761815760217,0.5002118044732855,-0.2905211809030715,-0.20412981028769323,0.3713416548269656,0.265588751859793,0.3666168993083651,2.0199513629988153
-0.38949089965607886,0.4886445203613307,-0.22352475435504543,-0.1218164806087498,0.5399712288966796,0.44761039878071723,0.5852957830778194,2.142628650685426
-0.3883077004039947,0.5101700080876277,-0.22566976996808452,-0.11783055805678294,0.5435295216591455,0.3981125829992579,0.5202054428778328,2.07799761463057
-0.40781234163019797,0.4946030160998659,-0.25590467507323583,-0.14081333466330734,0.42964550527634576,0.3248399745110503,0.44495372887863793,1.9790915749759124
-0.3927173156071234,0.5276525066088764,-0.23783927082367237,-0.13723415399778452,0.5316467993813143,0.3930002734353597,0.49126791803021086,2.09546885714937
-0.35961071602911915,0.5497826565082371,-0.18650965600463834,-0.07560261996371691,0.6846448255498123,0.5456515854837545,0.6768265100425628,2.150286070258496
-0.3804394510690724,0.5424620557643799,-0.20214915917671056,-0.09177195124439777,0.6039028788276242,0.478116545082633,0.581089428990832,2.0646059867544064
-0.38496881054561705,0.5343126505295066,-0.2339026044383404,-0.12362018070532305,0.5150169258471218,0.3893746172255237,0.48549009329876924,2.1094307997153394
-0.3957625571718856,0.49405300854113593,-0.24542426790756178,-0.1447671481508449,0.4843670870069498,0.36031520870340816,0.43888901142593856,2.01830290271916
-0.3482745823239167,0.5549257802400085,-0.18880058770640273,-0.07211001858071232,0.7507939258579832,0.6106230680288919,0.7053312796343624,2.1626817435344234
-0.3313789665588134,0.5640549686487506,-0.16529807610510963,-0.05179221178131106,0.743149033870481,0.592119129019176,0.7108102305266171,2.155268196934158
-0.3538206133168913,0.5545009015167784,-0.1981559957467321,-0.0703363566667355,0.6310515074919519,0.5268708736529567,0.6151678288584548,2.076163293045957
-0.37092315498616524,0.5289090000192997,-0.21227469081175773,-0.11207812688301791,0.5269595841980336,0.4071910665798702,0.5251284493208067,2.052232147567025
-0.37078689675351345,0.5319307929094748,-0.20991381696265948,-0.1007094161847058,0.5713705403740978,0.4306284388090263,0.5118143099869952,2.0622846979386473
-0.3331849889139227,0.5112539656963332,-0.1340479403740921,-0.035729521397115216,0.7985504809280217,0.6664168215531333,0.7637419483600097,2.1939841465168906
-0.32326511100977545,0.5509024607407021,-0.13015522889084424,-0.032763391052382795,0.775140919791875,0.6376753703232838,0.7473214739450714,2.16772078927732
-0.3443192762449333,0.5503014061126199,-0.1486572238080172,-0.06997478669104205,0.6555476053282052,0.5440839911322566,0.6335428043419569,2.145511707788071
-0.35928660143916447,0.5247956180424422,-0.20266876077072782,-0.10833186905147224,0.5400831004523475,0.4519390659087863,0.5523489074625183,2.1188814143928605
-0.3686253461327935,0.5061378258712768,-0.18122263000415284,-0.0990080260845788,0.667068179499563,0.5659528228756582,0.6378876366984894,2.1483372494160404
-0.31286213147069464,0.5898146500615664,-0.12160875313641277,-0.022864452533279372,0.8110326221839443,0.6479728297390845,0.7847662346517994,2.236124909987882
-0.33085561157269516,0.5081562469893378,-0.13029022491791686,-0.030952951186166144,0.7421088336385618,0.6046619750598807,0.7366316952235055,2.1496497082875297
-0.3407144687753826,0.5699784122808181,-0.15696963458190744,-0.06047306845963561,0.6158393976609032,0.5334987737835521,0.6035300162313085,2.022331845447948
-0.35761776114697097,0.5274553430842588,-0.17954131831128448,-0.0935721269978232,0.5246826970979271,0.4321305825853032,0.5170524947282119,2.04066539643534
-0.3163031406689571,0.5656156598885222,-0.1225733177792284,-0.012530441875239218,0.77107240816813,0.6498549183683252,0.7815672221528271,2.081949518959455
-0.2918323665698141,0.5610377921795517,-0.12033622298657984,0.0023025093218266846,0.8051594326645445,0.6573247781627363,0.7503184317780058,2.100044390408142
-0.3153321653385923,0.5648733758651876,-0.12756234901583133,-0.031374695615035086,0.6792342374485556,0.55549461803611,0.6905312315061366,2.177354561036257
-0.3457591032361832,0.5660357972696575,-0.16400004417222142,-0.07839780823009468,0.5699299130018456,0.4627529777789525,0.5624417377656159,2.034981593282997
-0.35369211242072596,0.5280820378062395,-0.20221401589571208,-0.07520231488536279,0.5268121342463591,0.41892474430219767,0.521495519562329,2.022213461184869
-0.30678868847533114,0.5163072726717932,-0.1212279354329013,-0.022785183891802036,0.8069697352418256,0.6801859030091116,0.782831732888407,2.087154226657815
-0.3120102861440424,0.5263076143185038,-0.13027871397377205,0.01770568115402965,0.7477930275042889,0.6496078757687022,0.7733866500191543,2.1517695747379264
-0.31986196885542006,0.532022261613672,-0.11903948165910055,-0.02892747435299811,0.6595772125893264,0.544401205858978,0.6701543785031571,2.0755577910866787
-0.3520746490829739,0.5278577411835719,-0.16944488663765694,-0.07443070781728425,0.5604590657250996,0.4732016850233568,0.5565206911454805,2.0171436685976714
-0.3441979330360063,0.5097865122343026,-0.1859935260321603,-0.08031366254172682,0.5344016822054114,0.42401153411581394,0.5229139954077002,2.0381278352261463
-0.30703774628893166,0.5109751004234009,-0.10690281144968447,-0.02046970888509375,0.7768123810611082,0.6439268922930994,0.7743881737585306,2.092397733116388
-0.3074927527914489,0.5328892947998967,-0.11791832921735615,-0.009191544834380116,0.7492901648043612,0.6073749841297323,0.7353158484683945,2.1059164309160003
-0.32499475451854637,0.5470826163412572,-0.11563993988101615,-0.03712811713311748,0.6228880487123281,0.5229804667460609,0.6032263167213076,2.097577513716708
-0.3308647169963389,0.5379396320402765,-0.1868613835066346,-0.07398205096402136,0.5017285325639672,0.40783324768511753,0.5221652280699767,2.0192552103710533
-0.34432577949076176,0.5339121660054744,-0.17962020665176656,-0.0663031026814973,0.5635963581113091,0.46897581935708144,0.5824141298120511,2.016556796773257
-0.3026489205164382,0.5301216186365351,-0.1190733842558694,0.010129874500168251,0.7579866207032805,0.6520501193732338,0.7491374428497335,2.0677494502613634
-0.291298113838053,0.5368859571066913,-0.10202207109963707,0.032475129606374636,0.693602713168757,0.5839052886390605,0.7023293525531015,2.035272545189277
-0.330176390276763,0.5450148932989043,-0.1242053626116845,-0.01675750430989381,0.5904470374605939,0.486182421098759,0.6040517270064345,2.0238134176227263
-0.34457360946272103,0.5124383466713633,-0.16683883677345113,-0.06653355965739276,0.48714840220195743,0.37130421478097014,0.5030608643952248,1.972119801138854
-0.3454794778457372,0.5371688049499012,-0.15150191219641868,-0.03783827606970597,0.5721684936624531,0.44485315522176405,0.5690306894774487,2.0106296702976874
-0.3060852964747471,0.5546726054154643,-0.1059452695152531,0.021647088267846643,0.7308081981629599,0.6073849186147293,0.7041623218340759,2.090847394827085
-0.29879853279669205,0.5249711087620728,-0.11827311472983079,0.01785744507997078,0.6480390294315409,0.5487475542704472,0.6720632856121247,2.0563214058797197
-0.3266250942691182,0.5371075324015693,-0.12897451254222803,-0.03236177927356759,0.5322038153570546,0.45361767320211516,0.5615423170175116,2.0507217719573423
-0.35990475269996847,0.5375529329154092,-0.18774458909809638,-0.08208325717709865,0.439258103969156,0.354573110509998,0.46499051803292635,1.9210002887008502
-0.35348852989854684,0.48924849646460317,-0.17142939544751393,-0.03291389924256918,0.547638677223437,0.46181256531041637,0.5605136987464598,1.9886852664274697
-0.3171225291675991,0.5175721623554992,-0.11982329519727702,7.368182808478174E-4,0.6609792246371828,0.5640098828288017,0.7298621455014949,2.0827125186064173
-0.32859463804941685,0.5367980068611993,-0.14274934800829026,0.0010329058267453117,0.6161379109086645,0.5276475350738732,0.6710045220869016,2.0314544270171457
-0.3447263060521437,0.4907052744898967,-0.14840619687002332,-0.034636976613521886,0.48686420451450446,0.4288651783432248,0.5311326077571356,1.9883224601833527
-0.3763519204742032,0.49878755911949135,-0.21172281310337326,-0.10006975725677493,0.40772313261046317,0.3368464002142218,0.4504561977230114,1.9913214630320963
-0.3373709022356929,0.5094671154628471,-0.1475406548792168,-0.021572164057976018,0.5919080424830847,0.5006797914880188,0.6065352202950078,2.030343629670456
-0.3108876410324916,0.5025878870574023,-0.12886265327042135,0.006160558588493514,0.6470301270450144,0.5748755310421021,0.663333594742105,2.0305279165969394
-0.3167999695421566,0.4978771779449433,-0.1350714575808944,-0.0159194641304366,0.5895555994962082,0.48344218712840126,0.6035180814975518,2.028898385492434
-0.352816121273197,0.49366610125249294,-0.19464311688651953,-0.08180298641694628,0.4465149000776689,0.3825873980020506,0.521841392395113,1.914066899146822
-0.368647713767734,0.5448622197220332,-0.19833891245332685,-0.06637010676876395,0.4942708689017854,0.40321845497242864,0.5654951480764177,1.981564935042442
-0.32865724893557147,0.5572192837366896,-0.11491565628743303,0.009297944884680526,0.7013931325500533,0.605386657340658,0.738020880143967,2.0113247912915644
-0.32258453124290104,0.4530901855338083,-0.13507907499495436,0.005388947629569402,0.6271771796421681,0.5576212314202879,0.6582352979979327,2.0162998294045376
-0.34332646379845466,0.4813510523486629,-0.17475460141679028,-0.06397915684739758,0.5288882433213689,0.4417276566007673,0.5763161647089854,1.9669932002881225
-0.36475590060581276,0.5183101614879055,-0.19430163322201355,-0.06055422049735676,0.4973681443378975,0.4257616175732389,0.5360145812086816,1.9504787199880593
-0.33789516721191026,0.5223307405845694,-0.10297193196588084,0.006109238156469354,0.7010597532438819,0.6297624095002823,0.71414033855989,2.044782233807431
-0.3279496742091376,0.5047820079178373,-0.11722144857183853,0.022755454223699872,0.654705700190943,0.5664914174370317,0.7022831368925211,2.0519162575988643
-0.328884743932924,0.49079220555008946,-0.14920194485955124,-0.044916699109891434,0.5418485129589216,0.515374877917903,0.5878394873617051,1.944845711810197
-0.36316189494993,0.48245853718409226,-0.1796396328105211,-0.08695013254969086,0.5514188486017124,0.45092202562816963,0.5870056994131547,1.9973237292197976
-0.32268694128348757,0.4876213430589613,-0.1426444890539714,-0.01986817157286866,0.7214402497234766,0.6582821384819316,0.7833174691932493,2.051678406861818
-0.3173377003498537,0.5307640020052808,-0.12423514864413335,-0.016702017856221274,0.7145154386863458,0.611631176389687,0.7373491208278314,2.02477988354465
-0.31867169980943205,0.5222668935794529,-0.1345552048805244,-0.026655949410197333,0.5924253363958738,0.5180007641299543,0.6226911536079722,2.0301939443531065
-0.34152208635729264,0.5012911855607545,-0.16747893016349788,-0.05557679956896033,0.5945911866685855,0.501813927775479,0.6201920116570167,1.9601501687582068
-0.3103079968519995,0.4699001121682023,-0.08452810533947244,0.04010886522948154,0.8036955477240555,0.7177797216938145,0.8466893518765366,2.137267861823196
-0.2869517957075878,0.5278082172314552,-0.07366561338962546,0.016694782232941296,0.7812419591849595,0.6910258101919632,0.8157745017139487,2.092445749729032
-0.3222071795376064,0.4831518195355464,-0.11480943500211097,-0.02308115375207498,0.6673284231410808,0.6055772783407731,0.7261840168159021,2.052108889662291
-0.3196954503243118,0.47155406548181383,-0.15894956902718896,-0.06325660327588298,0.5680913974538708,0.4980221716240213,0.6071850102624554,1.995277356187662
-0.30579929397610756,0.5205495181645521,-0.11603468768131767,0.004543352372483822,0.7232458546582554,0.6500671444521279,0.768013751754872,2.001946547272612
-0.2806680263098682,0.5011362582105258,-0.0606574881565104,0.04676124433378753,0.8013170058980762,0.7271810641285665,0.859144753594859,2.059698091575914
-0.2900013085290568,0.4932609935145415,-0.0947433053527297,0.013807892057636884,0.7195431690091345,0.6451957573700391,0.767395419784899,2.0144176065086072
-0.3074626359070399,0.47896999538719015,-0.10900793279393284,-0.04760394387787634,0.5535733307599557,0.5116552664472883,0.6503256671458196,1.9798627005400418
-0.34881615401792754,0.4752398585203026,-0.16651485820235545,-0.08107481137887149,0.4909401919495771,0.3997634452571591,0.5235571980137216,1.8962704410883489
-0.30268147200469714,0.43889143125125984,-0.11826216125255401,-0.02987317211224577,0.7354665884747033,0.6343200862896462,0.7968448639492468,2.020550585769214
-0.2876690088108015,0.47791573257030656,-0.08476288539773086,-0.01315488410204152,0.7541290522837651,0.7003771347512545,0.8358497318029088,2.030162660562518
