-0.004625964316891721,-0.031250080989123755,-0.0560617989527072,-0.07201365606381657,-0.012959126562758211,-0.015977901647721556,-0.024969956588832252,-0.05236016111244603
-0.005245568338476753,-0.03924859210986799,-0.05100060025099593,-0.07627388525708625,-0.009130315717507045,-0.01664950603283937,-0.022032491368037588,-0.051628082019890005
-0.0012607089430567407,-0.03237018517943413,-0.05276193286165152,-0.07145723829221902,-0.005007640140257937,-0.00950559748195525,-0.013366681580246514,-0.03637488808073408
-0.005732705929385509,-0.02855131831143337,-0.05516269335511293,-0.07630150297775626,-0.005832625870440415,-0.014498551565538849,-0.019108876696267926,-0.04487924187865628
-0.004794409386333699,-0.02566398855596913,-0.05334522974182205,-0.07438725090846153,-0.006510031988519641,-0.010332436333790301,-0.01443834960660127,-0.05017586655410423
-0.004587217810261774,-0.030634935888639393,-0.05186957712111485,-0.07275109887641988,-0.008485751267583209,-0.009622764571759618,-0.013134448652704214,-0.0423610372714835
-0.0046806614910331334,-0.034491160551330204,-0.054087852480713364,-0.06598045809416288,-0.008643441738664012,-0.005372340070468172,-0.0043379859693616594,-0.051417543991796745
-0.0021125974901463817,-0.029751837076614506,-0.0510121414034348,-0.07198235225807546,-0.0043192714673866515,-0.006594151217852277,-0.005783696476267069,-0.04208827010242771
-9.275675400925451E-4,-0.030085510581886573,-0.04803266546048338,-0.07275231041581713,-0.005237834980479831,-0.00942023805753473,-0.005912269462757394,-0.04487194441488883
3.7341446000728205E-5,-0.031882130871751416,-0.04772906006629958,-0.06525400938291931,-0.007452391264223362,-0.003967493443003279,-4.4935247515210525E-4,-0.05416617330288921
-0.002119363337302757,-0.030649055939222396,-0.042931569448999736,-0.06026018288605663,-0.008203671885195687,0.0030757625788836148,0.003973184352401145,-0.05508586426126184
-5.95060461650473E-4,-0.027957667617625293,-0.04631930880326959,-0.060318265749694414,-0.00205645777548553,0.005567914267080125,0.011275363678801035,-0.040907254723607754
-3.062999391884786E-4,-0.03167762447356515,-0.04177056995561413,-0.056858036465235934,0.001411126769773581,0.014148108634710013,0.01219360072339897,-0.04596319075875505
-8.533177008880041E-5,-0.024730955196319276,-0.0415411301668983,-0.05380299767454989,-0.0010353731129472325,0.01395147515055285,0.01036873693590528,-0.04576143750039632
0.0029389773125545163,-0.02917340728839372,-0.038976250294144484,-0.048479553320565784,0.0014049054369221013,0.01623528189676731,0.024388489309625682,-0.04700705446202771
0.0031109081561469854,-0.03019921184771068,-0.037640470923591615,-0.05091577561961427,0.0014621095474647266,0.017930918608479247,0.023664723334964992,-0.0450321324816238
-0.004661006544199773,-0.030984405637029817,-0.036887521884333134,-0.04891569166634364,0.0020157718726905283,0.0129245484122418,0.0214891803576183,-0.04755007995280065
0.0012211833706995928,-0.020962573334864325,-0.03247455919083387,-0.04471204199828685,0.0012621661139897925,0.013844984780837842,0.027824454256575776,-0.049536567722601024
0.0016597029211467104,-0.029296563080698713,-0.03290428434389182,-0.04215886913610874,-3.590763829219574E-5,0.021680327907490728,0.028004676746906824,-0.04421586239782469
0.0032594631304771813,-0.02387509150329782,-0.03238030570436918,-0.04144276220449456,7.353738067203402E-4,0.022780775468636747,0.03071547321347456,-0.039951823889350015
9.135269219311184E-4,-0.02283452695317774,-0.03196630711220916,-0.0353071546337695,-0.002824554483671091,0.017395262164293997,0.030405000868344127,-0.04035890615076593
0.004393032300455194,-0.02972435153191625,-0.0321396457444079,-0.038714591232004804,-0.004121565421275525,0.0162942592479783,0.029086082717737424,-0.04921823439351368
0.0011404669436994733,-0.030068672615045346,-0.03163471111548013,-0.03385156732810866,-0.0027889874429310696,0.017065359917261824,0.025243780611122695,-0.04874537033976896
0.0030588376781343876,-0.027793353442914143,-0.03303046393296713,-0.04080349931964933,2.2631382484821101E-4,0.022861162010225353,0.03324947580966746,-0.02965888567026184
2.9916827923319504E-4,-0.02527947266621961,-0.032149603346933814,-0.04346484105737,-0.0060162651310086005,0.01975088615862906,0.022094404606301906,-0.04299805954829064
0.0010617445580883341,-0.026877761488144823,-0.027657753318832478,-0.03669244588461865,-0.005245774432656967,0.019483264547805326,0.02708360509051859,-0.04941632084451904
0.0014974890469693232,-0.03443967956929841,-0.03127780352260175,-0.03856918772199811,-0.009057736311563763,0.01877501269363483,0.02695056818586495,-0.052672296691133005
0.0034486842653455546,-0.025719797652242,-0.03296821175606624,-0.04059545563107003,-0.0031423305297795276,0.019815946376894572,0.0281834905719882,-0.0439511249077974
0.005041121984753382,-0.024230108508510623,-0.03275359070011657,-0.03882693959362646,-0.005302312119873633,0.015465537465744299,0.026200436911655876,-0.04626463456335136
0.0014611026830813043,-0.02813471114438626,-0.03570572173836455,-0.05003218188711909,-0.004763270702524613,0.01217236148155382,0.020084070419224984,-0.050972240023165256
0.003037426058825816,-0.03190149888708672,-0.03452546593122937,-0.040982614351632404,-0.004446768670114583,0.016698836632682096,0.030577126434960834,-0.04736521712817191
0.003462161250274101,-0.028009609417422147,-0.03670348678068402,-0.04508460552283136,-0.0060352739588310075,0.014410341322286063,0.02343890612060056,-0.03707398321539809
0.0043927586372917715,-0.03330304506738821,-0.03810035741917607,-0.04670499871232452,-0.01057623706326664,0.006721130379445254,0.019876552722078205,-0.039523465329179414
0.003198588712896534,-0.03050096638615867,-0.037923612579911066,-0.0460113196326248,-0.010256944280728033,0.008708586386577996,0.010585404348441636,-0.040652199990293646
0.0018120659832733823,-0.027538058093187847,-0.03514818652039359,-0.04651594506768558,-0.009146490375284031,0.012371932063075223,0.017062682836675776,-0.033116065187507975
0.004112121168192008,-0.029461932286030005,-0.03852210178764,-0.047507455731988536,-0.010107914996323273,0.010728645837390954,0.01082343883526033,-0.04219151874612567
0.005439319778466914,-0.031679021526038145,-0.03581479468793152,-0.047415558179821696,-0.012349403007402716,0.005615232138988826,0.004383836424615784,-0.043308101324683795
0.003239949148583492,-0.03558558863431138,-0.03893001614879858,-0.04942227971349505,-0.008557635412401515,0.004391737504518119,0.0053064847862686415,-0.04928157744442506
0.003160895298329429,-0.036415034301374966,-0.03790503841799158,-0.04539320694227891,-0.01152766702366698,-0.0013046830335569839,0.010689121812106876,-0.053907326045741576
0.0026555547864473834,-0.03066333722157517,-0.037382532982004,-0.04461119124532577,-0.01297945185440934,6.223232650267332E-4,0.0035160783572546184,-0.03675509508502606
0.00446570730977039,-0.034141769355454446,-0.040409682437605815,-0.04419812652618549,-0.012454748436028965,4.66029173724354E-4,9.213515593922914E-4,-0.05625968976595736
-6.1624672140484E-4,-0.03541095362762678,-0.03839567160314469,-0.04037447694861117,-0.012389031321786316,-0.0029205708569714182,4.429842132053432E-4,-0.06427844482724315
-9.028360545531268E-4,-0.03790098926630387,-0.0373373786647134,-0.04294753033628974,-0.012779244561343063,0.004282787917732188,0.005168798829508078,-0.06248442070525639
0.003416471450715387,-0.023934779117851888,-0.0385549159034536,-0.040148715204349414,-0.01060965580039712,5.707180308463923E-4,0.006931752360432392,-0.04621171041207869
0.001197462492163836,-0.03315973386884504,-0.0386660989656846,-0.046355917768775665,-0.008840801121148467,0.0010246112744881394,0.00836903496586443,-0.05878994406551731
0.003436245178343499,-0.029585131764498066,-0.038053277102737426,-0.04315863024231663,-0.012352250691754501,0.006054517359984107,0.008309461381052026,-0.060130857334356594
0.006330168500936389,-0.03745828032912525,-0.03735778023966607,-0.04003670437411174,-0.012052102948404845,0.009131739325711966,0.016641141966491864,-0.05959164169188265
0.005063647786289866,-0.028174654657168115,-0.039758903729768626,-0.048438352445243874,-0.013201547203037598,0.008369694080770231,0.01725248808612969,-0.0494333320248486
0.00282037397778443,-0.031275139273194356,-0.037742836563612436,-0.05276807230084318,-0.00832933930462385,0.007919460774270914,0.014235158528343242,-0.05593101478014669
7.400069217942351E-4,-0.03759072189008642,-0.03951436324098652,-0.04822721844850447,-0.009961511615497532,0.010923329348082314,0.017144138706590078,-0.05483793358915579
0.004703623398139183,-0.04008071119863687,-0.03832268017037909,-0.04589205460785016,-0.012053685504510454,0.02058356104885933,0.021903316678730984,-0.051802443744743215
0.003867155344463068,-0.03488888952537092,-0.04025624961998634,-0.05031522356624211,-0.006870261683150305,0.020815085821335646,0.0242639172565651,-0.04285768716887624
9.790937978828012E-4,-0.0315333595499881,-0.04028223418000879,-0.04777957941603437,-0.003978194510020547,0.018499931830358238,0.030317270028857344,-0.03609975426583711
0.0016482392670307514,-0.026948878242212492,-0.040060267612433295,-0.05067081699918361,-0.0063345804378368556,0.015028268795622853,0.025568063925548837,-0.037839452391441306
0.004617990065707359,-0.035302330946004504,-0.041343879999578635,-0.04620730559227946,2.0447757567128647E-4,0.024490730712713325,0.032777174911438965,-0.043518050182658426
0.0025325751297681416,-0.03272015114121982,-0.04413114802393778,-0.04600461306519188,-5.230507757692853E-4,0.022059125579622196,0.02909336252238545,-0.03785523904324936
0.008026722744452434,-0.033127703097183374,-0.04165680833953661,-0.05109211561134946,-0.0069555160396211025,0.02218933159371578,0.025358902494581358,-0.04312546479645078
0.006934965495854039,-0.04013849054271677,-0.04256415785631042,-0.04824036052478166,-0.0065465867232082,0.0168646317932609,0.020130689713461835,-0.06090233862148076
0.0026371479735949922,-0.03568890288733897,-0.039299047644131925,-0.051046648161729526,-0.0026873743099178997,0.020973689342874646,0.027806139372530483,-0.04856366408696423
0.005894649073109497,-0.03496975847686165,-0.04425515086417048,-0.05068109005988792,-0.0074886430204,0.02497669455664919,0.03220778906404946,-0.046597993124102066
0.005618220189327786,-0.032837628233092366,-0.041481152189974335,-0.04469866996874472,-0.00902673255572335,0.01779571080991356,0.022432518190471273,-0.05439097216650118
0.005991878722541157,-0.030116545961886062,-0.04381481458532151,-0.04383592600433798,-0.005379309816093779,0.020018285562458913,0.031947535833909184,-0.0611000879351789
0.003784938054765,-0.035137932679359336,-0.03992758433826649,-0.0488466411401999,-6.480657955799549E-4,0.024922696233150847,0.03887031428128046,-0.041077301947846166
0.007368598104374868,-0.02792118188538413,-0.04151718830120546,-0.056215363463031305,-0.002174471545163194,0.021912790977212864,0.027397654668040512,-0.038579977872753864
0.006928952334725389,-0.03221485193141024,-0.04318010609785838,-0.05470643039499552,-0.005749100726798688,0.021745400186359388,0.03609599972682751,-0.043105115680165645
0.0075708098064022076,-0.0367932867216909,-0.04267571535627805,-0.05399802608698263,-0.005574106254416557,0.022072569975939097,0.030478736834310828,-0.06418501930911111
0.008299460142487723,-0.03633394909537458,-0.04319039876523578,-0.05334926802698313,-0.0011920158238305728,0.02448207816500927,0.034137896844325825,-0.03848604278116352
0.007408394776435429,-0.026991557066729063,-0.04675605468858718,-0.060582197784622635,-0.007072053955765711,0.021139571122664694,0.025296632186182756,-0.04432616872026381
0.007620844046150417,-0.02847260923581418,-0.04564747734614686,-0.05468584388039763,-0.004462993096147809,0.012848863314888749,0.022755944088507295,-0.03935017338693602
0.005389942790108837,-0.03245081297273878,-0.04493963743797965,-0.056403064436296106,-0.004460007168386565,0.01768369184596628,0.023072540645428106,-0.05211864172166699
0.00851031870840537,-0.032941986912094136,-0.0463170063130956,-0.05796840370189161,-0.004170845477838726,0.017245906608272046,0.02130604494149403,-0.04356400576695198
0.009071362427007113,-0.03301247026314876,-0.04709211794178563,-0.06259431710622569,-0.009522089801844791,0.01257854679702284,0.014049565593263477,-0.04270494430453077
0.007231035674417227,-0.030011520844056543,-0.04813577834988288,-0.06036608773582854,-0.002410167358385237,0.008697279465806377,0.01921504789748592,-0.05142555490800848
0.007027830832474309,-0.03290043316053691,-0.04463679927093256,-0.05603633255936575,-0.003743512131583606,0.011441567407412192,0.010612742360087737,-0.051411795664454085
0.007826508431989053,-0.030479945972882144,-0.044928321669805926,-0.06353855504554996,-0.009301077414509461,0.012380866496833837,0.014834315885198223,-0.047473901727655185
0.009531172896466353,-0.025161486197118502,-0.04905222600156188,-0.05719065710228295,-0.013701929173281951,0.008012210217008939,0.014121796421963881,-0.05316934341222947
0.007682217046844479,-0.03823971931025763,-0.050278009691676055,-0.06559834918418199,-0.00558211093437112,0.00892201176336705,0.011308422050392463,-0.06236082665022426
0.006820116790075625,-0.03248619729932425,-0.04796174518725736,-0.059278698446318626,-0.009602934540903014,0.01274832757825677,0.017002977310728896,-0.051959125555789604
0.008594255766247793,-0.03009735265542008,-0.049339793849111205,-0.0670871194259108,-0.004276260023982859,0.011842651407017079,0.017347467147448618,-0.03970842848158117
0.007249128488547129,-0.03121050667765992,-0.04834617195560543,-0.06746762052073525,-0.007461153407983443,0.01314067160048976,0.013467221919755782,-0.048910879508387496
0.007848654866502658,-0.03306051358394047,-0.04887978891021221,-0.0685560787340756,-0.009009189105492602,0.014259051187951009,0.023093048004058918,-0.05391873538017013
0.004559036607082517,-0.032100596539388175,-0.04919099026885275,-0.06396677158984947,-0.004147749816542848,0.014662511515017773,0.02481241089440359,-0.05486412014158344
0.008942057613237958,-0.028404508503095935,-0.05003167983650522,-0.06091754169900177,-0.006554362730413162,0.01989198493294264,0.023604524969550997,-0.04243368347949949
0.009676630188910924,-0.0298398759925491,-0.05115759667109108,-0.05902488612299294,-0.004581819327649131,0.014397156478781363,0.021317735174294142,-0.03555720095687655
0.012737949011152758,-0.03216971600667856,-0.05016600231490031,-0.06797127261412167,-0.0043041862751707904,0.017226207242904464,0.021632450736716588,-0.05385166377049827
0.006875799120389405,-0.03506434619676791,-0.051076778810990715,-0.06332769178207648,-0.005142276108073381,0.02071634120952242,0.029823496535769684,-0.05071953653048295
0.0054871756179231505,-0.02675529491146608,-0.05104434565917278,-0.06599084789089825,-0.005056898038280187,0.01762079678030265,0.025441042205833125,-0.04755299791101716
0.008320675761924051,-0.024283072057559637,-0.047743210299168906,-0.06762088804656169,-0.004355363610441428,0.015691122428974344,0.024466044933637278,-0.04396225183147876
0.00841455984949666,-0.030538918646734237,-0.04952737077820296,-0.06662379338585922,-0.0038216826145549294,0.016368997475120328,0.029158475862656536,-0.04766947930159867
0.007577587191975502,-0.028706983958688835,-0.04936377679412552,-0.06575190321525919,-0.0013961503940874355,0.02147830579612927,0.028648729531575677,-0.03846673914021132
0.0049409799151278475,-0.03164790813277937,-0.0505716935509173,-0.06883975332923492,-0.005765719333780945,0.0233067010180314,0.022699174944511468,-0.04065941278657188
0.009827678975379452,-0.03334179430944862,-0.05071935797159516,-0.06402633655787378,-0.005987277817025349,0.019344158914385932,0.025097796881296403,-0.03468670380941033
0.012386244172089719,-0.03521485363183195,-0.04556892719927818,-0.0624466771370839,-0.0026855249164708596,0.017774196628706773,0.027808308014602733,-0.04725977757955253
0.008470474224991946,-0.02834509722792157,-0.05178545734135967,-0.06949497573088412,-4.6375426052716243E-4,0.020665091497139534,0.02492985219149311,-0.03722333674782327
0.008930692391040334,-0.03061346798558453,-0.049076303462995775,-0.06604173798475547,-0.008139970981006758,0.013497656983828016,0.024593428086530644,-0.04265879696726413
0.009453417156587847,-0.03128984400337306,-0.04882643744687857,-0.06499913312533032,-0.00747832834663303,0.014046992791149227,0.02418037146270659,-0.04036326567231815
0.011900327762181823,-0.030103943006203875,-0.04661069665493494,-0.06387818123045569,-0.003233533300947737,0.016124562794082562,0.024912109977266738,-0.054029617792045244
0.008888700835021633,-0.028551551882319347,-0.051776813236547675,-0.07014450456306467,-0.003283315421664346,0.020122252601449852,0.02126262990521489,-0.05204321347578505
0.012601613003811955,-0.026370690825860875,-0.052069124037427736,-0.07048717550608563,-0.009253853064217674,0.01282908376622902,0.020854491858025476,-0.05617451129763674
0.006272533869155674,-0.02322740018281523,-0.05219579623949085,-0.06983852775669476,-0.01049495344133604,0.013617292263788659,0.017744917497739113,-0.06539608229313817
0.012998766438583408,-0.028331747693209498,-0.05262581329324585,-0.07001091922495895,-0.007641392242991015,0.015154861138786125,0.026369692249264835,-0.0655123426270129
0.010083376719546766,-0.02093860168265374,-0.05076150336154939,-0.06447370247066411,-8.578241714972459E-4,0.019925615655453505,0.026338073857054438,-0.04949115522958829
0.012540540470160965,-0.023666780489382484,-0.0479033151276797,-0.06882456276084106,-0.0077043070454458126,0.015670543571371914,0.025405014103098325,-0.06284675857954439
0.011422707191366163,-0.028777947004492353,-0.050926596261132426,-0.06458268472924074,-0.0040334547189280106,0.01920774691353483,0.026662904941911206,-0.06859163315190117
0.006579651931706829,-0.030598534667019166,-0.05214596816694739,-0.06500199122900227,-0.007129077244385682,0.028799058348287217,0.03383550219742705,-0.07844178842491992
0.005320248689656289,-0.0315007246261542,-0.05488151081457915,-0.06648242009533137,-0.0016836174172359438,0.029017975177753178,0.03604323196760494,-0.062257481587690566
0.005328579597141711,-0.02797106642024126,-0.05231416726740824,-0.07326563275487863,-0.0022104808987225655,0.026633070469473934,0.03697566124592184,-0.0601869826614366
0.010164908200462567,-0.031742270877694496,-0.0509942907537718,-0.06728646565914312,0.0032400961456359647,0.024652904591005657,0.03808358037405897,-0.058645247488893486
0.010167148692083034,-0.02679085426202387,-0.047220665932361364,-0.061648092412689356,0.003403002147291019,0.03916995160890355,0.04850975123606836,-0.049908456314164164
0.01012873553346627,-0.030385657635854643,-0.04860729440994004,-0.06262363128490216,0.0020251779836310915,0.037007309307764746,0.050199160753444244,-0.038694661944139196
0.01002910028977596,-0.034070808401200366,-0.045581014149400155,-0.061904226129718964,0.0021618383714425947,0.038925050147688545,0.05286825676925849,-0.04691484194730918
0.006918460789580333,-0.028023435849657326,-0.04659383650109473,-0.05699537492572218,0.0061888287159517445,0.04277955397279919,0.061144240066577545,-0.04307800868412473
0.00817566845450981,-0.022532243711875195,-0.04374468118805546,-0.05500586855248036,0.005647762936052021,0.04691745624483669,0.07016740054123381,-0.04181260358413524
0.014003267169764539,-0.02437554006139442,-0.043523176015695636,-0.05404770536282674,0.008003782174453742,0.05207759357708275,0.06362664542090962,-0.03719769168555775
0.010578894972919634,-0.027245056524000683,-0.0423431648137184,-0.05038078462030776,0.008673622887286443,0.0487906382864637,0.06823408881894982,-0.05001253878821505
0.012224358530625925,-0.020451542739217114,-0.04187804081480978,-0.043244897345011316,0.013510188500602226,0.05615669808201529,0.06937155422252289,-0.03726008701563072
0.011349890534146699,-0.025116522977954282,-0.03780722438807291,-0.04584237516491255,0.0074170169423116794,0.06159716421379593,0.07832712014898524,-0.045618127446646124
0.010952186291663994,-0.02314923616015848,-0.03355669557429235,-0.043710253037715,0.012593905426676984,0.06100577893982354,0.07934947793562563,-0.04353839209518937
0.009653694530051037,-0.021713179189318737,-0.034192530471276114,-0.03599603645066091,0.011358775816839651,0.06226023799673673,0.07817002505524957,-0.03984415371702008
0.014690123585204959,-0.02415503937874894,-0.033242712171684466,-0.03358560766240615,0.012286969594302677,0.06343308362652522,0.08598829768112264,-0.04932451518535928
0.015961375764667562,-0.021716746239314466,-0.02965935917706486,-0.02891231451211209,0.011575392482036114,0.06775280554147782,0.09048178950645214,-0.038191294806854355
0.007704530924086759,-0.02273364274744625,-0.02929236181788336,-0.024942813002061737,0.014747339792401159,0.06622859962729297,0.08832420233051679,-0.028818461485945912
0.015479765577981204,-0.023416566238997127,-0.028812778253919417,-0.02977654393479202,0.011912012390943473,0.06475058572758181,0.08956729779512076,-0.043754146885356185
0.01580819818111345,-0.024602543504822005,-0.030070181824844642,-0.02468516911633136,0.011501885930138738,0.0668339631983078,0.08533742204591391,-0.04120520678731347
0.01622942214889427,-0.019708907048603858,-0.023705349800988432,-0.019581480776421745,0.017494859413313458,0.07103350041342868,0.09031834199674509,-0.035899213678114605
0.01669541448877279,-0.017298339263438916,-0.027631186299716375,-0.019828966218395715,0.012060305864500425,0.06531494112296218,0.08638381360636538,-0.03619895787274559
0.01581717796367882,-0.02022764648212973,-0.024471355416189285,-0.024331436364382383,0.009361219167650005,0.06211590864662511,0.08921964814840135,-0.035374360545657124
0.01302377134672347,-0.0220915075449294,-0.024111359667925547,-0.022727814060428772,0.010732813070760195,0.06510834474042022,0.08499198570488353,-0.04698265130841882
0.019045848175995066,-0.020869410949920366,-0.02249514237115,-0.018801843472513447,0.006355245271048811,0.06563855131517561,0.085824724193125,-0.04112769792712339
0.015347142296500528,-0.018431332438277548,-0.025553468257187108,-0.02279691535829168,0.009002307898870743,0.0599806029983212,0.08127270709745274,-0.04056424654314921
0.0118268111393592,-0.02159977220318493,-0.0311907757282126,-0.027330328010479535,-2.3364339789731068E-4,0.05276113467467977,0.07507706503225431,-0.04971203800299807
0.01278735819201331,-0.02458834429382363,-0.028116907600729723,-0.029990516604836908,-0.0028504266095328687,0.05096576582881125,0.07107137851242172,-0.06045554085882827
0.01420119621892512,-0.02622091458354509,-0.028016733850289577,-0.027484832035079725,0.004430735653129522,0.05580495592899314,0.06906313657323288,-0.051658616851611536
0.015838619685885545,-0.020721666572280365,-0.03133455136482999,-0.02668635843435942,0.0024901428880070666,0.04889755441633114,0.06843884028666175,-0.04928863975852562
0.01367691756198336,-0.024844060257478914,-0.031019190484410195,-0.026898321501845478,-4.129520690302497E-4,0.04417762528353568,0.06274134965806813,-0.06318141803741092
0.013341347420721069,-0.024726296970763752,-0.031942101050004224,-0.031085980077221523,0.001846373341363079,0.04567758036150975,0.06983361700990653,-0.0564972799378116
0.012832067426330645,-0.0246448775379492,-0.036570888882747093,-0.0357418949089114,0.003989013273159589,0.05283214741079031,0.06910205941479806,-0.04481478547240915
0.01078412986105619,-0.02410155240854457,-0.0356124981900371,-0.03287556460112978,1.4395461088614385E-4,0.043964950523040724,0.06430642055337189,-0.05395777963573688
0.011252649621919852,-0.02636694560650187,-0.03579096129347807,-0.03347742396024962,0.0018489700476408233,0.04289405818100144,0.06047894792961715,-0.06315026296130417
0.011522899343284798,-0.01993382805826659,-0.037594943659552765,-0.029059017452203448,0.0029833042214637818,0.05025083224150261,0.06710430987574223,-0.056554451007733035
0.015826063340557382,-0.030026906549459807,-0.04146158072080739,-0.035904909064897995,0.0049163818113948385,0.05105467308411304,0.06803727880897929,-0.04696672937811892
0.014771415574335334,-0.031112607932876235,-0.03756391188856637,-0.03646190700292804,0.005028900553333548,0.04820927352749104,0.06066663840481918,-0.05685102493249571
0.012870817815257951,-0.02883144657064561,-0.04133273280745065,-0.038661777321508925,0.002982615128578954,0.049281475425936874,0.06649426904990684,-0.06704001220083024
0.013101919334291175,-0.030264435454254494,-0.04095669272477287,-0.03457848319051461,0.007652150050387261,0.054044465978194574,0.0744682225963777,-0.05688874038190122
0.012614821894357912,-0.021855264893559916,-0.038129162165487236,-0.03584284493573629,0.007152468254618536,0.05918787362078877,0.07614361193868897,-0.05290333120206066
0.010565607410099575,-0.023563205511373423,-0.03878589158387961,-0.03826626584298134,0.006812561706818851,0.05437515811276704,0.06830431620922264,-0.053042337842542336
0.013241941005769567,-0.02641393654264173,-0.039924773696642026,-0.03261950650678095,8.024938500743683E-4,0.048894406688454205,0.06781701072214885,-0.058100353672848576
0.014627031238794583,-0.02808944709080846,-0.0405921845777909,-0.030649983290084337,0.006650731329567537,0.052262073728561086,0.0704317769345801,-0.052816746473211704
0.013228828129195768,-0.0227661207529808,-0.03913521514652219,-0.03991356955022541,0.003174858320144461,0.0517983070161587,0.06800994691337292,-0.05101504163666107
0.010943268186915817,-0.019508871982958816,-0.03897994823643099,-0.034767790429645236,0.0022017668093747013,0.04603303902440922,0.06420186665540677,-0.05460764995360817
0.012234438239788158,-0.022423990377125096,-0.04068771347337558,-0.03336241124734397,0.0033558650195716485,0.04735008392794845,0.05964131007549614,-0.059122222137317694
0.014832878856915945,-0.026230193370607825,-0.036321616263022466,-0.03134079377479032,0.00558134225337996,0.0488112332561822,0.0635940830395478,-0.05147015089226051
0.012306045264882437,-0.01794824857599615,-0.04229433151562556,-0.03745581625993053,0.001801087014402765,0.040400617593786624,0.05695198954917,-0.048063930457195106
0.012708347775193696,-0.027098975687718827,-0.037953725590620345,-0.034399630390728006,-0.0040046089360568395,0.03830971244553691,0.04958308507669025,-0.05633338497072542
0.014189416352495628,-0.024547931244308246,-0.038469761564320915,-0.03530895217278842,-0.00296731648219076,0.036567996005011955,0.0564501446575637,-0.06831227510640772
0.013819901280340493,-0.022992078230625587,-0.042138417741517525,-0.038075235768173024,-0.006509042622283342,0.03674220102134467,0.045532049131029234,-0.06631836511194494
0.017076661387629255,-0.020448693711754683,-0.043205686861104105,-0.04127614559276896,-0.005484055133980595,0.03330440639272853,0.04488445926501314,-0.06620478259607675
0.01308032558447313,-0.02485245698694913,-0.04391494220037486,-0.03952907475498588,-0.005003761775355441,0.031280470036215244,0.034722252833279996,-0.07150780419465187
0.011658338546040557,-0.02663048499165016,-0.04140097270434086,-0.03883842921888989,-0.009446045451476218,0.028038722258878008,0.039071032670339394,-0.07338285717043323
0.013170791877051478,-0.023801527295442073,-0.04216675889156673,-0.040899239544466524,-0.008639365790654855,0.03338099736469118,0.04015350980378695,-0.06866764315732445
0.013501749051823669,-0.026526306141588997,-0.04591796224256046,-0.044693411994231894,-0.008537262188912438,0.02457530587806073,0.03092051031479022,-0.07200089828954695
0.013517963892845097,-0.02610470468713817,-0.043066371798803425,-0.03357385807554709,-0.005846854489431991,0.023010309772957097,0.029891497809272142,-0.07604235306341627
0.011972242658180577,-0.027138902340038486,-0.04162208270824298,-0.038822970518514285,-0.0124303269897374,0.02507037990226977,0.0345621760001538,-0.06196892809966643
0.013495389417193417,-0.021372953831539317,-0.04350236959732238,-0.041323341985667,-0.0085023858265305,0.020818661642207074,0.0287423874788188,-0.0637320762672876
0.010280081554210226,-0.024812560054793882,-0.04170736198146301,-0.040812064917938554,-0.011714182657497116,0.015269905746086497,0.025603809604313042,-0.07756904254336211
0.012620147230819953,-0.020713377606901284,-0.04179115009025201,-0.041102976913315686,-0.010210347576795677,0.0188901168310276,0.024827841324016265,-0.08193055395452342
0.014426424272460025,-0.02656803722452466,-0.04418240103006391,-0.039140932266646854,-0.010178897626431692,0.021921034336829712,0.029089722135058005,-0.06956385060048664
0.011814617568369367,-0.02754330663810159,-0.04256582542124716,-0.036630104056028116,-0.01260279879432516,0.015443726863702517,0.021200391210849906,-0.07430752320173342
0.019295848574214347,-0.023626216946942412,-0.04229246563291827,-0.03943978091215811,-0.012207403203998653,0.016059588835659288,0.0220717613366468,-0.07128351135681699
0.01716147427954399,-0.02856599918271909,-0.04021261297792813,-0.03925574105513463,-0.010624516758620285,0.01328255739233018,0.02484811973632311,-0.07789719735077595
0.015931756392823074,-0.024787322213158276,-0.04157735937389289,-0.04191272403442388,-0.00964773778030714,0.01272658501343708,0.020044107571819965,-0.05497326885965358
0.013982300422647188,-0.028158598933592308,-0.0436512795523489,-0.03755948772801177,-0.013167430079576678,0.006535133399356609,0.0160482951602148,-0.05485808066792089
0.01449003879080192,-0.029758091926713144,-0.03838529236223466,-0.03819855641176629,-0.015393007770206987,0.010433515683628143,0.003239547169342178,-0.05297041572149745
0.017152062718998336,-0.03489032895480668,-0.04158759651609126,-0.029823920501184046,-0.016285395919296744,0.007773772885428126,0.012264863544792858,-0.057822237910243934
0.018281249962991644,-0.030255158040887353,-0.04400214642655986,-0.0366242894650804,-0.01961198976061066,0.005228174362651344,0.007239624566623182,-0.047814444744320686
0.020057341851216427,-0.036352717611191854,-0.04508331188942712,-0.041909696038526456,-0.020629090969801592,-0.004012306822017304,-0.004580737432294722,-0.05367200851867634
0.01558190374929337,-0.03318686250678368,-0.040269950341428225,-0.03968223506389773,-0.022510157066249165,-0.0034937282577954163,-3.5835491698114327E-4,-0.05878171524732249
0.01752072962666024,-0.030551104999016573,-0.041790982913809074,-0.031709752275774994,-0.016889845284285616,-0.0016899602281343303,-0.005062770003733308,-0.06153609888143605
0.02043963482546373,-0.031631058184503735,-0.043580444454714776,-0.03970291761583965,-0.02270519625081992,-0.005783002107924231,-0.009475132985369606,-0.06333184417677415
0.015590697271383257,-0.0341588468638113,-0.04128258720618065,-0.03868421745078819,-0.02437837918414942,-0.008832969266658596,-0.013549106214178201,-0.06629886264226743
0.016200956586391223,-0.03301454205309767,-0.042812059959455175,-0.033178440293544394,-0.02148368168161846,-0.007806546319408833,-0.010506618461854253,-0.07074865407885952
0.016928829732500206,-0.03246505443492674,-0.04392036343212776,-0.04344955469103045,-0.021797499496763982,-0.0053367963905374015,-0.011437759234913593,-0.06532228012317842
0.015721380226784012,-0.03639094551400708,-0.04243353643992376,-0.03752146390769756,-0.023097716905074686,-0.011144772248742347,-0.014736089285456533,-0.06964687483925197
0.019817258797925418,-0.03389036441402712,-0.04179703252482027,-0.03843790407700739,-0.026345101430858362,-0.011786800302852313,-0.01382088445765625,-0.07558472145383642
0.02050073555220849,-0.04006192363119711,-0.04124893410163106,-0.0354572164179377,-0.023192749617543192,-0.006407694779033083,-0.011215722069332216,-0.07107725037738999
0.017692461635018995,-0.03238516676678402,-0.04265132634160882,-0.04330043142425639,-0.01510192423064898,-0.005068973888503133,-0.004989499908424795,-0.06731241754654554
0.01875473707922256,-0.034844706322567795,-0.04310971891607434,-0.04046485079618896,-0.022285527146180196,-0.00907809092956093,-0.01912077999294156,-0.07038264268725579
0.019679140849293158,-0.03944840751700763,-0.042963607980233576,-0.037993060039471956,-0.022842852281511866,-0.00744506263040301,-0.011563375978561876,-0.07757591211821278
0.018951095388003564,-0.029357374264327562,-0.04150463901033219,-0.034752525569296186,-0.018403619863460056,-0.009418229583228766,-0.010448268612476674,-0.07317906438512796
0.01768653902128407,-0.0337015759512123,-0.044989752654708705,-0.04129615984276623,-0.023166317486733975,-0.008656508320781494,-0.009748573119319651,-0.06940358437623932
0.015265690444290934,-0.030491202120045673,-0.045359755943905955,-0.04679364093114447,-0.024162105766708932,-0.010183227319849924,-0.015847450396485965,-0.07579572971901469
0.01719887168247755,-0.03952810999774101,-0.045329738524585404,-0.0435800550778771,-0.023903835178237527,-0.013274409779550663,-0.013155276859692314,-0.08736805626141662
0.01771840156041675,-0.04015919983144274,-0.04714240782585566,-0.04464316138846401,-0.022670593764187917,-0.009810600032995533,-0.01653704425412754,-0.07801542088136912
0.015491040221291767,-0.033346806297761857,-0.05138728299203631,-0.046382483270129504,-0.026694128966426426,-0.013535391036504717,-0.020354426783909876,-0.09524682823806956
0.017428679204631002,-0.03152404769742896,-0.046895767549570186,-0.04304251093072407,-0.029129661293779856,-0.01456822353520739,-0.018953915423256334,-0.09229290697148113
0.016460953667915362,-0.027120177155315565,-0.0457235779013486,-0.04547528021864182,-0.023866351006840623,-0.0168477361769086,-0.026607698929543986,-0.078143309216114
0.018869210612837667,-0.029602786019075945,-0.04454924744566257,-0.04499468109535223,-0.01979584366627572,-0.01199609548445886,-0.012357378870140668,-0.0754076539571127
0.017179741193401234,-0.027386414005776245,-0.046598783160013715,-0.05053093139373126,-0.024696334918703322,-0.01234810984319272,-0.023676208608564366,-0.07013014704459675
0.014466200677802276,-0.0353480414359226,-0.04917510897481321,-0.05122911344349368,-0.02674603727310146,-0.014766416086959127,-0.019996478224936557,-0.08339421739010626
0.014501532006113597,-0.03221332239061298,-0.04821707222399822,-0.05284560617324793,-0.0240648802475558,-0.018024723552513677,-0.017550486572254796,-0.08641641339242859
0.01695335617151058,-0.03606686375790503,-0.048256385225797144,-0.044321486623153966,-0.024350671397522807,-0.010566249293056038,-0.011880734486219617,-0.08283808424969083
0.013994177408634236,-0.032765368239604055,-0.053247931964907985,-0.04858113434153669,-0.019556803325708205,-0.010211788543525401,-0.014393142100537203,-0.08655903667972004
0.013197389970552047,-0.03522232749071874,-0.04937452110586026,-0.05131904811978329,-0.024818835886047927,-0.007490933611221446,-0.009915471662867785,-0.09240479207337966
0.02026960072648537,-0.041443692482561675,-0.04889504132558229,-0.045343959173918535,-0.021042318109389082,-0.007447101366838557,-0.007926586203427234,-0.10221471021238059
0.015624887548515463,-0.03771717280896219,-0.05183816141910332,-0.05229074595095847,-0.02089364146109033,-0.002181180879902589,-0.0023345472808031604,-0.08663723490257241
0.016721298314305157,-0.03204798663382959,-0.052346749117558065,-0.04842910556408019,-0.01844215946492081,-0.00707178949593739,-0.005876086013193969,-0.07818767005657515
0.016072602236465557,-0.0367883558264436,-0.053414889583147156,-0.04746487956641287,-0.017667920601822425,-0.0013934653332010926,0.001270364601948766,-0.08445550402626915
0.01336054756451992,-0.039432819567642975,-0.05385433682488563,-0.05177790451130592,-0.01813460587403101,-0.0028854875951186292,4.839184652816005E-4,-0.0871224381121898
0.013560978083758968,-0.037215376985289296,-0.050577248902913347,-0.050387977483077814,-0.021994051693635417,-5.920361732632198E-4,0.005642148199094817,-0.08199402230811008
0.011918414133315531,-0.03700920665550051,-0.051035196886232606,-0.05312833346470744,-0.02097630034200703,-0.0017756889797656918,-0.0049974656593196574,-0.08117716180322693
0.013868249477112765,-0.044459266450882946,-0.052479737621005905,-0.05126449962558158,-0.021736340116657944,-6.46253664330921E-4,-0.002121598562249228,-0.0867640474830869
0.013377736095931328,-0.042057459930048065,-0.052716658795718165,-0.04524170684822313,-0.02509657130137841,0.0014394067644195217,0.0025437701153450064,-0.09054630305676188
0.008448143506710496,-0.04092539187050699,-0.05101623714829069,-0.0517237014664324,-0.014001441915023779,0.0029753979133191407,0.0024035671415290434,-0.07252196286682755
0.014769500067923835,-0.03229780061872524,-0.0494030535798829,-0.05231388999079036,-0.020239660578413754,6.298604487824708E-4,-0.0018526095424327533,-0.07840906390964753
0.012592347976222879,-0.03637157620486029,-0.049849946647706166,-0.0482115131060293,-0.021300598769560034,-0.004440802439644498,4.6730772228771643E-4,-0.08097089430392933
0.010124451594675432,-0.03440971093120744,-0.04752282150609239,-0.045806314705234094,-0.018745996936642955,0.0012489877064563535,0.004603360263851794,-0.0885434792600107
0.017191625647684658,-0.02852882333848749,-0.050271668095396,-0.044419479723905544,-0.017619077637475288,0.00859195819629554,0.006587801920257518,-0.0860570154524015
0.014389530532276115,-0.03354763936302268,-0.045580641919201546,-0.047499816844459856,-0.010646676094583012,-0.0018824296500113682,0.006698359707705612,-0.0713280794771031
0.012340094481880608,-0.039814125236347565,-0.047409330816297925,-0.04870028245420829,-0.017786820911212715,0.005523071829838517,0.012809391324200683,-0.0919599827208604
0.014894804627054968,-0.04163871303514429,-0.04611046882729907,-0.044459175925326694,-0.01227937844709719,0.011411480190733667,0.012538639829578065,-0.09582735902119562
0.01326090633498087,-0.036944873383453564,-0.04949328676063305,-0.043100665236106304,-0.017498678433521146,0.015694637324077235,0.018033507637026918,-0.0804500118700088
0.01331971133526196,-0.030736859744263496,-0.04701061564963682,-0.04242929623938545,-0.01186300853586884,0.016541690606936305,0.018186890678339996,-0.07454953163370884
0.014553007126721414,-0.029980915781485706,-0.046403989494737376,-0.03834646323404174,-0.015492325164038482,0.01482474331731718,0.01659229416698407,-0.0740832645317824
0.014108363074446835,-0.03809587099332083,-0.04748730673827779,-0.036272235554678366,-0.009607686664070149,0.022187011690357965,0.02362421709848024,-0.08674354131162555
0.01607236426668213,-0.03507447496432567,-0.04600416136957597,-0.04014536365559119,-0.013772063415286384,0.02080429103839211,0.026850223484668142,-0.06964285830916038
0.018563848653271608,-0.03846281141290983,-0.04381210233617823,-0.04199968954499045,-0.011237811433997984,0.019740256425685648,0.022697053526016926,-0.07651078405385618
0.01812795306960164,-0.03678443435831587,-0.045509698107395524,-0.041873378434655543,-0.015146789259560593,0.02094241438703475,0.027353797661353804,-0.07738865980647995
0.015560033150074697,-0.03946298392580978,-0.04496963081268578,-0.041373076900357166,-0.007638454033669619,0.01892980122136686,0.03273139995486082,-0.07223916538812943
0.01423127785120525,-0.027607102675469123,-0.0426859240377767,-0.039601143811421595,-0.01117734672241379,0.023051227271591857,0.02672825251559337,-0.07049735254341868
0.020906905831652754,-0.03403824449034289,-0.04534674167241407,-0.04185725632116331,-0.006722346273092883,0.01831549217705259,0.028347904427409944,-0.07240088518029346
0.0169543490025229,-0.03488772750632952,-0.04300661215801865,-0.03872107869260137,-0.007497228898989361,0.020141980736538622,0.02661867794659406,-0.07538448974228967
0.020602742267929155,-0.030064304432984267,-0.04024509027994318,-0.03403867802592724,-0.007815697645561635,0.030186901038360112,0.02888184782754503,-0.07331397194809647
0.016983778718971023,-0.03252369083420662,-0.04016450918502276,-0.039063057651206,-0.007270480334111021,0.021819806255391882,0.025852691713986724,-0.06681163584105257
0.02064026237211518,-0.025359936522701982,-0.039168399071795354,-0.03600054156556932,-0.0111490705275967,0.022523759979092044,0.026424621452878546,-0.07900484390513746
0.015235395250101933,-0.033865986412141405,-0.03668141944067314,-0.01850501658499133,-0.008580701473543274,0.03802595876810588,0.03836023240913698,-0.06341656545811508
0.017683817573972884,-0.012962545297636907,-0.029114506341420973,-0.006175414134039407,-0.003988656121326039,0.046592101761015,0.04823066627044679,-0.02324437642403394
0.014271306000884583,-0.015884815891245612,-0.023079900513463085,-0.0010676205386886135,-0.010060507640284985,0.04256220276865731,0.042214493787916474,-0.04226612058286432
0.012809475363048276,-0.01346547372331405,-0.02570815660722126,-0.007113985616013816,-0.007640609143986529,0.04102880117999823,0.04327001157688022,-0.045556412884483845
0.01736316385083356,-0.022536589120029503,-0.027256149642183612,-0.004046039399492128,-0.006820648212269697,0.04349758346085784,0.03911536633002862,-0.051849536436542824
0.01901423816845091,-0.02269580886159168,-0.0329860188597608,-0.008189052311160763,-0.005373572711915361,0.03667222641867961,0.040812484353171294,-0.02934670776071156
0.019793606531667136,-0.025185284167396443,-0.03111836210211624,-0.02077562624323879,-0.00644825596271082,0.03341131744946393,0.03679146097627893,-0.03660866781335599
0.018933999184194996,-0.025737089737963213,-0.031469172469614046,-0.018922537386420434,-0.010234024289063602,0.031957871902894765,0.032747774808043945,-0.045088023798090106
0.018928244480090336,-0.023992303604808522,-0.027947851553084782,-0.01041389258192156,-0.007631961771926542,0.03341309021392602,0.041202969275663776,-0.048835047120775826
0.019314339944317586,-0.022293219794962644,-0.030436040737383336,-0.012549407245936312,-0.0034618721492732374,0.039271995727025326,0.03763381253577728,-0.033516145929173666
0.02323960762204866,-0.020521450381055184,-0.028518787083121385,-0.018656033513343124,-0.00364341755401026,0.028210510791651402,0.026077231555529514,-0.04060542392931459
0.016190614592112632,-0.03465084922169763,-0.0287564670332802,-0.016000788976221657,-0.011378959987561763,0.024861254322091034,0.02496677995816596,-0.04864970425712341
0.025128939208648025,-0.03232166523703778,-0.026339874079152673,-0.019036194766635466,-0.007655960670834836,0.026437746061518174,0.02971892233900872,-0.058478862547896616
0.019850351518265575,-0.03340298987606514,-0.033004846963377715,-0.022650146981248894,-0.007133932341016582,0.025820246235827442,0.023093463103608314,-0.05738500655666922
0.020064455734039248,-0.035780271756210576,-0.029405789266727857,-0.02395712535256362,-0.0066384549706546255,0.02243316649191451,0.024481060229383667,-0.047634648141593655
0.02263668169069811,-0.02798844384621064,-0.028002754082847848,-0.018653955995409206,-0.013702967660003403,0.018268494831629654,0.016008454748446536,-0.04870474803850036
0.024596142713174927,-0.02076946613454158,-0.017615523875027753,0.0036636613689019605,-0.008419635409285036,0.024482190533217915,0.01935586776916258,-0.05529012289391596
0.02214649434056972,-0.005658484914733569,-0.011784862999891066,0.004194944460764363,-0.008812745995904328,0.02929381380053171,0.02252420135257997,-0.023973548926450403
0.023456206489208736,-0.015358349249726495,-0.012087925640498376,0.0055395310852220025,-0.009015604520290696,0.025397906681476314,0.018631828264556213,-0.04226442013376733
0.020581925804990898,-0.020324671158422205,-0.013259281782772999,0.008148783212829193,-0.01223389206491184,0.02611408622638289,0.009693117632066435,-0.04415752202281435
0.023081937859599277,-0.02065555424144956,-0.010217716861048153,0.009952591057207609,-0.01152257484963277,0.023162330477827557,0.019403617435872048,-0.0440198923388601
0.01986508118056979,-0.011329869034881066,-0.010241645203283179,0.0133028020696951,-0.006142177334621501,0.023690194062979026,0.016127013732384034,-0.030093077119020973
0.024682787797830195,-0.012577447633467884,-0.011906496714542003,0.010266644692112581,-0.01643745449664098,0.017502324026821954,0.01131824496166885,-0.04561779214103976
0.022196183423359876,-0.017878528020012847,-0.015633481918051688,0.00262311833450319,-0.014575476276488539,0.014543361983012142,0.0063873462847104205,-0.04994046482439862
0.023596350603324746,-0.017510692147412337,-0.013467048505091665,0.010765953907148431,-0.016170629810714793,0.016839653787195503,0.005498841294572241,-0.04092717338847402
0.021338209565818316,-0.017294283507394037,-0.019337503841185134,-7.518914201967423E-4,-0.0098222479032575,0.016418485635597092,0.00945694682270535,-0.02652754177928159
0.022831574563476086,-0.01377467034066914,-0.01607571831271421,-0.004394246145391075,-0.013366105170741764,0.012035220145879901,0.0053056285578078535,-0.03911382231622196
0.025038846351348763,-0.0258389048496155,-0.014287025002741163,0.003884486564035653,-0.01625898857660473,0.01473116134782318,-0.0012912196015509652,-0.04824821872601426
0.02801135778155981,-0.02745632260547055,-0.014623734200558678,0.007923305856116844,-0.011155069239522971,0.016911083667385116,0.007022858747356202,-0.03691522854318278
0.027540643034823037,-0.02786431582480533,-0.015939607442119245,0.003631548504125844,-0.01190170488053223,0.014541867170198204,0.00553861898484472,-0.018843644607583393
0.02707262533295688,-0.029279401131807603,-0.015171491916873461,0.006369785790214904,-0.014862639813816744,0.016472771287360678,0.009405259356232138,-0.027587472200781046
0.027385018941865506,-0.03201043740748666,-0.01617163822313413,0.008400736619687155,-0.007533486729723512,0.014934543756619184,0.0013047702209217935,-0.01773910911566431
0.025086735106805494,-0.02909150120248848,-0.014335486398030065,0.0052665808929827085,-0.00774970402151757,0.020673218533946467,0.010444285992730963,-0.011307872341097673
0.02897954604360018,-0.024251427959257027,-0.013507255968088617,0.004262997357575023,-0.009420634109737007,0.01883073963690417,0.012447084741505422,-0.006125454131478362
0.025518418916257463,-0.026956084198969082,-0.01657937406134498,0.005559768239391677,-0.010793921664542022,0.015048192658370863,0.0033426621952242198,-0.013753205971625269
0.026338629852271655,-0.0252893549122256,-0.013100100652514957,0.009111407065964415,-0.010938425537553415,0.01764625437083987,0.006703497506394842,-0.02206182265929065
0.03161362341889656,-0.02679112801565615,-0.01522331144658186,0.006516290552297415,-0.0063973547706911,0.02448275408172391,0.020386165942587835,-0.0031095997394118328
0.027030343462977266,-0.02374222932017367,-0.011540286081251998,0.0049947438619659425,-0.007562406768289563,0.018098015223519875,0.01004185328676994,-0.012586278270377445
0.031010093069453303,-0.02257537947199408,-0.015109067913073539,0.008236593516313843,-0.011420697558565578,0.016183775554658178,0.012321801508232819,-0.00866012509915054
0.03109297525638633,-0.02139487980950926,-0.012390926810431283,0.00915947657744354,-0.012308323095484812,0.019208251557603223,0.006069665112693632,-0.021939070648586734
0.029478077714161575,-0.028084307843073156,-0.010528321218563218,0.013588663805514734,-0.00857750254050206,0.024972656500879493,0.014013351572903648,-0.013468067341426701
0.029123471126641844,-0.01653603387159842,-0.009218725220554063,0.016582264400052414,-0.010255733545049595,0.019136166465735578,0.007590391003041623,-0.006657030041713893
0.027524560417063082,-0.02294873934274894,-0.009907677165849251,0.013118861167570271,-0.012947617102667909,0.022154095792728045,0.006782817442954709,-0.0205993033604006
0.030937257916905526,-0.0228343064941441,-0.007261392953123735,0.01851359415398268,-0.01195332402141182,0.021064017961848584,0.012173785807014299,-0.02978276537738225
0.037007135127441484,-0.016432029465845405,-0.00251878243106163,0.021296338276523313,-0.008292260986706114,0.025755378703552066,0.018751359905949665,-0.010845851644253416
0.030911887860085568,-0.019232836057631285,-0.007597735276537987,0.014919297222750946,-0.011080525869398943,0.022973479077037517,0.008059587877496258,-0.005247887346804568
0.029868162603795517,-0.021827276862223195,-0.002448020997150277,0.015191433537486762,-0.00976998643924273,0.01829113840567068,0.009585866278875916,-0.008471566110500846
0.03603031919489272,-0.02135799749428223,-0.0034481516568821164,0.017683170823179394,-0.010217530032417906,0.020140074418724438,0.014302703944005823,-0.008696069906942166
0.034588518617599005,-0.017520677926451168,-7.701631088824357E-4,0.022217737179449158,-0.006103470165096014,0.03366693953981049,0.021864631393481476,0.0010497811058784966
0.038834103371372275,-0.019267617444807573,0.0031589721397453302,0.021515116380618607,-0.004898134873403001,0.02131986316567408,0.00926221459649097,0.0025275841957905216
0.035763185718785805,-0.01690919527579208,0.00389398743143474,0.023463889326963878,-0.00811109145711299,0.022166928248076655,0.016674299058300233,0.005530539436386456
0.03933490048633072,-0.021715926468651555,0.004547149847926598,0.02599747741261195,-0.009012572516585722,0.024907088478397222,0.020209280192895026,-0.003141580055574914
0.03971746097842855,-0.009573898640564663,0.0055546147060536325,0.024204228971388398,-0.008415586202099389,0.02814323713095959,0.021690199902653112,4.2359178356017976E-4
0.03695081940249608,-0.008608962429673964,0.004476460794414627,0.02802581129424747,-0.0061323923668682116,0.025996877099927006,0.012391943429636466,-0.0020293120624420014
0.03285820877075719,-0.014474602365275696,0.00687516345259414,0.02570831999879394,-0.007378207088420325,0.021501383744524743,0.012727712635474365,-0.01496044557288647
0.032836947495720095,-0.018636083743496942,0.009677538039317597,0.03477004955973578,-0.008734157826949033,0.021295128244626677,0.009780725601618655,-0.01475331422941918
0.040243338307973685,-0.012307160293840243,0.007944289618909932,0.03321810422851078,-0.0054086646045873555,0.021968458631678307,0.015405428969309397,-0.004037076836946068
0.039414023638464656,-0.007916779148172754,0.012282450067565632,0.031351841915329144,-0.011401827199809658,0.020643712731175365,0.004696093407903163,-0.007089152916133096
0.04020201400447762,-0.009842865702193443,0.014405178732419234,0.037774594606988426,-0.011026420974990974,0.017943231641970307,0.006955805688107235,-0.011502301408020723
0.04279634415909164,-0.013962833747899514,0.013362057487823832,0.034665132644197065,-0.011218099728564176,0.01494885776278429,0.002313198089305076,-0.02254753026724405
0.03986469286319405,-0.014491781571633663,0.011029589771907385,0.038802208224310866,-0.010161742943958843,0.01696336555283363,0.010664318743142066,-0.010772321876892458
0.04025141029251691,-0.007948890896043217,0.011715964865377293,0.03328284342989107,-0.00844170438896865,0.016427630103832438,0.007786506573433562,-0.012829395502272528
0.04194804417739951,-0.013382621506133395,0.012002597825043669,0.035163305194588136,-0.009462651300370842,0.013095480073157417,0.011879318022383206,-0.01666683862534356
0.036653314720788914,-0.014743558457907282,0.01027929787040782,0.04243657069196349,-0.01391465243024464,0.02103059935698599,0.006014288472931188,-0.01937689546538563
0.038029252807514416,-0.01064907663741976,0.014296043846467302,0.03886403637354268,-0.007876919107812071,0.021977379745308296,0.016040519750220236,-0.014564714345773342
0.03964525363032603,-0.008923792474673115,0.015989997784182086,0.03834751826029724,-0.0077242651027835,0.024509356607784943,0.017890885269671697,1.2686495124426933E-4
0.03765126213258109,-0.006555604622747927,0.013344147978565552,0.03738882254474735,-0.005014119906622349,0.024634084666569304,0.017310703370385226,-0.007088981015776832
0.04178294023329124,-0.011197450474414708,0.01348060664914126,0.03608966859510707,-0.0029627201727186517,0.03289671966425636,0.02433652190894845,-0.015834881909069003
0.04004130601128834,-0.014897484451222836,0.01215365626574886,0.03723262425783069,8.336462958553375E-4,0.035998197849779014,0.027598228478738527,-0.006378521664878855
0.03960854538196825,-0.011319901020783429,0.0076687749207832575,0.031513096317016334,-0.0014449906519155438,0.033913189433025764,0.028248223064813373,-0.0020195348653728948
0.04095674029156185,-0.010688053512200871,0.009498885256094077,0.03583838901006764,0.002027326620949591,0.03531563033231083,0.02889647437369113,-0.010750374782426802
0.03916169861549273,-0.009631975768444875,0.007431749365798731,0.03757010977227852,-0.005545809242985911,0.03449431882078267,0.03237854731475771,-0.009528323165966423
0.04045140571184045,-0.012050790899245201,0.011573791448301077,0.03681386045324774,2.9317917367839585E-4,0.048189352524382154,0.046276062991760375,4.531665773904406E-4
0.03809386635457444,-0.005890061683758414,0.01457888799720549,0.036917614054550116,4.8544821443908084E-4,0.04557080883217795,0.04291265504621194,0.007176280819099265
0.03763798954867999,-0.0113164897775469,0.012177979724070628,0.032720724550472376,-0.0013394461959260371,0.04961529598057359,0.04460388833277551,4.723419252829786E-4
0.040275240027475935,-0.013745863852192123,0.01390149909248784,0.038040764204640455,0.004910963492148088,0.049481669727093544,0.04285518681174148,-0.017663079462403006
0.042037405164067974,-0.012944325998419213,0.014974368502309824,0.04458871465785863,0.0020402382852466603,0.05023220154958843,0.05596378785538984,-0.0032365023581347953
0.043716395416546545,-0.0017911955336500026,0.01392224334691995,0.036914420980631954,0.006527095308751741,0.05389931931293549,0.057951970719791586,0.005919235550331686
0.04402078300529313,-0.00432553736777521,0.013226870024986062,0.03603119826132105,0.004736003036095065,0.0565192746484151,0.05484089946043537,0.0031035346396623836
0.045327956963057234,-0.004562778221586371,0.016487409806494394,0.04926045081974413,0.004323254591334359,0.04872028698697892,0.05396818422504148,0.002909099577953009
0.04186043302049942,-0.008662428827351505,0.016089494158734643,0.04698551101198675,-0.001165153144561827,0.050249897978857865,0.06098630678186998,-0.0013828014472356696
0.04353596873794294,-7.153883103701669E-4,0.018068350705085494,0.045886811925707115,0.002609761194001186,0.0629712544053339,0.06656130608411873,0.01745819742267512
0.045017206746518046,-0.0010417348971365834,0.019529886620336938,0.04518427904014498,0.00239646058930395,0.05732382510855171,0.06818034295585798,0.010583543750499483
0.04447032811719593,-0.002218179734629489,0.02277729540663086,0.048256252226712544,0.008124055184839484,0.061369014640074576,0.06469018407059261,0.005353060079332692
0.0478945728672849,-0.005927462354711037,0.02004062610660333,0.05273790330253445,0.003084543468227447,0.05956359507331383,0.06607124029286313,0.0010071186605386173
0.04528609165144408,-0.005910666282295154,0.022122232419203816,0.05198729307330527,0.005145938155058579,0.06393263560001665,0.07207422085494969,0.01736573840839744
0.04538801875825374,-0.0025382089744043564,0.02226830191041414,0.04891682896619811,0.00592471453415212,0.05833680280317791,0.06320222428985098,0.0115753854085095
0.05101920266761852,-0.004617777234499647,0.023212229396345804,0.05320295488536815,0.003969739010854192,0.057649260790137595,0.06416633249521542,0.0027447066900518663
0.04849910715509576,-0.009039011388013635,0.025036760545267447,0.05471904393807309,0.006211897804324526,0.056664347282974654,0.0656843237125917,-0.005736621465846221
0.04691421503314937,-0.008317680546568357,0.025139117514465317,0.05829563523366243,0.007194212899572648,0.059746771862491936,0.06749823323683146,0.01040925281734326
0.046990089566321946,0.0033639612058785524,0.02341036737727979,0.05510683072308869,-0.0024042452264916715,0.049943278345131105,0.05656732712193084,0.003970734082123507
0.04857655432703838,-0.0044394741529010925,0.0272038659240432,0.05210464081183244,0.0017965624966469896,0.051582457676988915,0.04839232381693955,-4.531346069274218E-4
0.048409754504485245,8.59632071327333E-5,0.02506835852433141,0.05858746607986816,-0.006252331154618409,0.0486921539841132,0.04918063071293123,-0.003392252124770178
0.050632981015114514,0.0046038243725869815,0.02845048286833361,0.06034263060951781,-0.0017796035660647804,0.048482393246630506,0.05110277135604823,0.0069779542752568344
0.051137579558570304,0.0022516328799247593,0.0250903225267848,0.054595148524226894,-0.0012902285806210955,0.039132642817185266,0.038280687235051354,0.007384077550160164
0.05064777464533216,0.004137494356681369,0.026766041106938872,0.059335477089365624,-0.0012673553608327842,0.037828618112496666,0.02727879899511508,-0.0015991167689244083
0.0487480765568323,0.0030415348608583558,0.027152228494320165,0.058678018842171054,-0.007264113037828799,0.03225698327172975,0.03125110211776606,-0.003830027592293313
0.055075581719906515,1.4457954394409332E-5,0.028054897471952098,0.06214112434640859,-4.444005383802087E-4,0.03635244688754099,0.029799126385114796,0.0045579460701720325
0.04939382537850827,0.0034386283309675173,0.027310919053828576,0.05963103248310248,-0.004827609715914081,0.029007586420962208,0.031239981709659918,-0.0026314458450007253
0.0504521391470371,0.007168206833192484,0.028189158512143913,0.05714973019937676,-0.0022536063704138966,0.023229305844848887,0.02350354134130592,-0.005227416194505281
0.053909918711716735,0.005540459827512977,0.030852250452521515,0.055686271082023835,-0.008821310945675202,0.02319107954522259,0.01988014210914073,-0.01891524214071309
0.05379975644631567,0.00313708248285678,0.03077836951153034,0.05616354253983455,-0.0016949452212720118,0.029102742283695856,0.026022474021857867,-0.010217564059481384
0.048670006708750345,0.004346752779191092,0.02610446257170968,0.06198676805077554,-0.0057774811139137865,0.02708278657337274,0.01980677371831669,0.004400846232949009
0.04655263512405899,0.004838825468826933,0.026881095893690657,0.05634273770426865,-9.116649572899126E-4,0.02484601081970542,0.015329848260176901,-0.005857172783499604
0.054570805145782476,0.00420084071198763,0.02557900359938156,0.056470915756055576,-0.004465582012037302,0.022769872538028937,0.017267350249621474,-0.010848415600748004
0.04816986786999771,2.474080844772498E-4,0.02635806516885381,0.062157153086097365,-0.00566524144007643,0.02837965219234066,0.019297798991421897,-0.004071140671405289
0.05259250867512246,0.004045468254683952,0.02362630363585979,0.05499845766456556,-0.005212381712154484,0.02244647909676536,0.01606915958478281,-0.004495093288682164
0.047905190990752085,0.009292891375434768,0.0220982211759791,0.05765459465400888,-0.007642788173602595,0.019342977077762915,0.011187012411427034,-0.0037417728004013047
0.05168685955361552,0.004236633063388923,0.02452644428543753,0.05697425895932835,-0.0032447218942557267,0.024344447544344894,0.007907597959705765,-0.009802688343705734
0.05041005756525794,0.0036538573865006925,0.025556780383751136,0.0530997731030675,-0.0023981932305380434,0.027189432908548992,0.02064915180637148,-0.008801479717556918
0.05324206463559919,0.0060633757622320155,0.022152718833610096,0.04795190080227902,-0.0048999481886568734,0.027051275341646384,0.018608643532860382,0.007586222232828807
0.05080478506628269,0.011262133076102375,0.020003276022650566,0.047378032638705644,-0.005860298880927256,0.02305076250000209,0.015925471279778405,-0.0036484212728553254
0.05350397980401907,0.007600467986898105,0.02443321154444159,0.04973923652485617,-0.00288985566689349,0.018340983251931803,0.015398285499104268,0.0034279928110327296
0.05201615608586705,0.00734949112713515,0.0253341584642794,0.05609196967971847,-0.005882583553302608,0.026588218447778984,0.01779309875523219,-0.005275004598587437
0.051130786669929505,0.01385926942393896,0.021842173931584313,0.04717964474343058,-0.008088251708248775,0.028701221635599333,0.02262185639842916,0.00427309097519112
0.051978355600322684,0.011576715870973402,0.023803785157233134,0.043772632536255685,-0.001980373457230479,0.023057137471751248,0.018381871277773392,5.056698385973384E-4
0.051176354940122806,0.010591286191231428,0.021768688388187237,0.044173212431370804,-4.382450369837655E-6,0.023777860639112348,0.02202341625537405,-0.00766314872929694
0.05206379424324651,0.006310477194397859,0.020943944237448813,0.048861158115083875,-0.010224885016537556,0.027970154588099823,0.02413988299655361,-0.01459173924353925
0.053630555583032403,0.0028766660633424627,0.020065193716137696,0.04649430933524607,-0.003082010794707141,0.033754613486124935,0.028813999154521798,-0.0043703094711914645
0.04956538124676266,0.010154147635689077,0.021121386570516102,0.04911109696828462,-0.006722396162358976,0.02674158440316947,0.01952304743068471,-0.01310373997889738
0.05069053203355265,0.01041047110992649,0.018282433268790855,0.048029490370795805,-0.004688282868203796,0.025048104395923792,0.019167700851159847,-0.009568079115962934
0.04805959302651033,0.00610923695477867,0.01817858167283209,0.04538288493266113,-2.633356610895961E-5,0.023477327590591957,0.024495096012508544,-0.016691901060071915
0.05243219320773211,0.011733902482218159,0.01777047696730238,0.0432231506723429,-0.004981481781791909,0.02403895070123604,0.017060374489377875,0.0016942135033811763
0.05282551689951479,0.004977704735430641,0.017364372758377933,0.04423903741604443,-0.009763885893691038,0.02353448115337851,0.014142004331772515,-0.006540795293009302
0.0500085900515347,0.006085371044788002,0.019993539291835415,0.04819659335321387,-0.009858916544044987,0.02319427259429112,0.010254759451133345,-0.0056818296630571806
0.050043005759096704,0.001978932498980385,0.01573781403931834,0.045011411715324065,-0.005814916999313048,0.018969129932859492,0.015946491123332237,0.0015835703248799765
0.052670344042218084,0.007386775158670302,0.01689589360943877,0.05026353769383026,-0.004635626920515678,0.020328703946170066,0.011878559176180735,0.005461919080058662
0.05210502976102148,0.006361106302807538,0.017515871089248992,0.0416643926607248,-0.010514462416055779,0.021979964672729797,0.006257646527555275,0.0074171143634138865
0.054341599586944414,0.004286173944880519,0.0176270087929006,0.0493975729726371,-0.009269552847547205,0.01795039416271566,0.005336614285294369,9.788133779471903E-4
0.04588206410800763,0.007320064837340942,0.015082793613412056,0.05321095727843227,-0.004045453716343537,0.018264925022251445,0.011440209233795297,0.0014328385298897127
0.045468932700838044,0.010781455587431338,0.013816870918292722,0.04256283907051508,-0.011898318629970291,0.017015736695416624,0.006946621414044463,0.0029789081796020205
0.05035485069339832,0.007750839624160279,0.016471565638650668,0.04122397938060647,-0.010510134082773176,0.014935577004272949,0.002034850559396955,-0.011118741415121107
0.051775246846278516,0.005808191168683362,0.012232663434669501,0.03951971340618588,-0.013214528608550082,0.009859831121927601,-6.535999746991711E-4,-0.009887996613129887
0.049163638207725416,0.0016864241014908682,0.014518232812150927,0.04647274801449304,-0.009929741816599537,0.014247365204512712,0.0018072915058523075,-0.011837271821375768
0.048079383853058454,0.005606624805585635,0.011842424598358974,0.04670251611345105,-0.010148980780953077,0.012453248590698818,0.0041823943736791274,-0.006425316615044344
0.05083659592429961,0.009277479522960793,0.011181183340697294,0.043648304954321364,-0.00905293680831102,0.008624252713877272,-0.0018986327227474736,-8.395793951892209E-4
0.04614634139402991,-7.337065297887841E-4,0.011416364361096224,0.0448562349257612,-0.013094343810834653,0.004841282766801458,-0.005413530433356734,-3.865647701317561E-4
0.047537101823683946,0.0034479097557574426,0.012420936700080088,0.041472945252242495,-0.011185285940098781,0.0158101040916523,0.0028651797074277473,-0.011005441506470724
0.048648852512624206,0.0013877425545755328,0.01036746286791083,0.04151744798182689,-0.017527120415096936,0.006278427073754767,-0.004899343619341887,0.0033320974371171355
0.04952644637936224,0.002698912065825836,0.009608729183732042,0.03280771239012196,-0.00660684817844151,0.0019026974965459624,-0.013472313951479166,-0.0034453078758752077
0.04724833890859698,-0.0012625662076479562,0.007833651708670753,0.03735994208045667,-0.01180501613137413,-0.0012368826850899684,-0.009567516046233775,-0.012592285262873903
0.049233236725923,0.002280750785334937,0.006167440388186427,0.03242335248996758,-0.011865733685704663,0.006823820216148279,-0.01010450005165583,0.002349584050842816
0.04909934430853019,0.004593186694952682,0.008071079644767472,0.03065476088564164,-0.011634587951274556,0.002366131811318509,-0.014675752771847933,-0.01103214780733055
0.055070381256164376,0.0026472032764592634,0.0033209261012241836,0.0283233159156843,-0.013688689809619244,-0.005685225173162187,-0.014453045623822923,-2.575778245872325E-4
0.04989042322043679,-0.0015828022558673754,0.005055522745194615,0.019855986981581867,-0.01587638260472196,-0.003971924928213118,-0.022203834218008676,-0.010089209787658338
0.04646859002074702,0.004003937403003611,0.0022378001891503086,0.020229681209977153,-0.010108142020541808,0.001225687296462642,-0.016618724583483062,-3.483079361896746E-4
0.045905181479982626,-0.0013231378976414085,0.002293865529393274,0.02333095215983983,-0.014352559686827618,-0.0037199361860219718,-0.021681958745467113,-1.944742244002456E-4
0.04780526755746836,-0.0027960772668206456,-0.0017828239962344283,0.017292446601056746,-0.016360019231946007,-0.00608381010722209,-0.024034430518121676,-0.008215431537549701
0.05147143079137487,-0.001587034584522214,2.9469153986758757E-4,0.006999693146262007,-0.013909652496202914,-0.0058288424478211524,-0.026253850476602038,-0.019855747308058082
0.05183597833522633,0.0018717692637783632,0.0026558747083087197,0.00849787978951319,-0.013706577681765805,-2.5984117088874767E-4,-0.016533368302675634,-0.003882743353415904
0.045667426194095945,-0.001765534285885351,0.0016951639888153256,0.01172392795809248,-0.01431998122898029,-0.0011964555718227546,-0.01729614567832952,-0.009377798176056504
0.050121820516060324,-9.227362849552115E-5,0.0010823316038981949,0.016702192713700097,-0.01479132304229723,1.0402974255562376E-4,-0.02447544822620019,-0.003707201324076878
0.0480374882948448,-4.4396290887095154E-4,3.810859347696736E-4,0.019887500296476394,-0.01207749634469144,-0.003290163211095111,-0.023430308303480103,-0.01597623084663324
0.046345632321073506,6.849252539176345E-4,0.002531277996360141,0.021265413235250934,-0.010507637332866688,0.008289919464325293,-0.010885181624373104,-0.0032243830733619293
0.04275546818282767,0.004858971813932426,0.0018049436740930206,0.019614956572124975,-0.00788105305435186,0.0058659575689839275,-0.011153457232288277,-0.0021202552983917732
0.04558217220781139,0.003162515879430922,-0.002471840624376124,0.011126460197481133,-0.011177442082003074,0.0023433562988011882,-0.013502752831114379,-0.004756617816321324
0.049131556890767855,-0.0014658888558910796,-2.145509297405706E-4,0.019150528209863824,-0.012204338195012094,0.004825593329434204,-0.013162764976294018,-0.006860456339861644
0.043917521401044754,-0.002080776987461857,0.0019483194967952065,0.015139840125234776,-0.011848897588262595,0.009854978436833006,-0.01007361685503951,0.0021052544616491984
0.04509688543193813,0.002045990758830547,-6.579376469609898E-4,0.01390064676512526,-0.005666558591171771,0.0047518805576774415,-0.015205450665569466,0.005141707738536722
0.04838555080569945,0.0013888817660679654,-0.005567931039776207,0.00973006833129748,-0.012341684066997765,0.0029786885984958364,-0.019028713497474866,-0.0017713327549116976
0.04680589630072565,-0.0015653068358902154,-4.5376294373945217E-4,0.01629715952514285,-0.016405313555277398,0.0023122212994902804,-0.013315554356217563,-9.827788230639383E-4
0.04574143479325888,-7.234750535869228E-4,6.199523125233624E-4,0.021138372190539042,-0.010026055580368383,0.012229176973421844,-0.004607745428027306,2.854849318406265E-4
0.049907176760034824,0.0018716595494407036,-0.0030226653044778395,0.023930258453061366,-0.008198208402089551,0.0026639669121871195,-0.00928651452127635,0.0016006115225857115
0.047280873210414576,-0.003612265599643522,-0.0030845438894767457,0.014075300162274722,-0.013137919732006164,0.003142130217207357,-0.010912509097395776,-7.442667638244981E-4
0.04466518483582368,-0.001723638627692157,-0.002389095760033215,0.00978767577777187,-0.01382796361396165,0.00978467191727591,-0.014192138188969632,-0.008151734940812675
0.0467859012764037,0.0013299376057425614,-0.0030477929217228093,0.00866818254491922,-0.005466739522976272,0.013440925876643903,-0.0031830996511323126,-0.002604656533398044
0.0431752202659175,0.0015469818794598272,-0.007414853677919179,0.009267904151974485,-0.005155135998379461,0.008876409953341928,-0.008552559924372434,0.008122881020238875
0.03910136763661002,1.2207981470392366E-4,-0.001861366170209074,0.015371580259723763,-0.014578148694069298,0.008490594272278421,-0.0026627902289126483,-0.002683433497560737
0.042262708071196656,-0.0013160604037203033,-0.0012250054882575502,0.019408363309207182,-0.00917028091528339,0.011281610977976027,1.345392898068572E-4,0.002312647687147542
0.047119911443809774,-0.0015538399090717467,-0.0022502150639757764,0.02252924391745848,-0.00788189807121802,0.019739610687361794,0.00872406451167431,0.0057158492697400864
0.04681853934728473,-0.0018472759633139677,0.0014824656561503095,0.01030756624637245,-0.003667859049375161,0.019349056315078786,0.015309149614611203,0.02490304604688677
0.04678899623279309,0.0017020713992085795,-0.0017089182619691571,0.010484866806059357,-0.0021690631049131044,0.02214351352438888,0.008108395483837589,0.006489123482343
0.046697606846484205,0.008301219772078233,0.004020012746247238,0.017082562742877873,-0.003537125655792809,0.024775940228006475,0.014421694283773852,-0.003741697690562377
0.04532536945038654,0.002248457934780667,0.0018712392479466587,0.021122083423479952,0.003136495862795298,0.03100205144637224,0.023827872953264353,0.006710966331861699
0.04266296980880882,0.0031415953633572827,0.0013485985394896798,0.017185244974708174,0.0031767621706795396,0.03682190693648749,0.020439381088160968,0.011999687481960432
0.04481078116501806,-0.003977269733248327,-0.003132921108376339,0.019271174844164424,2.2608255839940915E-5,0.035478214546137934,0.02368431655671999,0.009496295942151697
0.045271542412426015,0.007611464824944779,-0.0030270192088985366,0.013417387371470078,0.0028920095844838546,0.03491186071806816,0.028099747392256784,0.005975112815959727
0.04425037976413045,0.0022016284608555184,0.004480687789590878,0.018671404559518046,-1.1314496221009158E-4,0.04244637093185855,0.03886776649615871,0.006641525610569966
0.04515900014199728,0.012931549338544292,0.0012374507361315003,0.019894122753548255,0.0069146090786475775,0.042866952770812844,0.0360863897197774,0.010142173187820189
0.04319184561054485,0.007692182660598684,-5.92190534833987E-4,0.015450410226758792,0.002521258995325144,0.039549013555802294,0.034633177946216495,0.006891758969019158
0.04077438050403225,0.001201995769553529,0.002945794019845971,0.014118135133388419,0.007608516277292093,0.042040351830282985,0.02993822143460092,0.006235319486338469
0.043372974024937255,0.007297470647986217,0.0022530170126541954,0.02155705541058936,0.006526773701429032,0.043738217045468625,0.03561455249038887,0.00758467695246243
0.0448290564232809,0.008540494931699885,0.0045214012474835055,0.01957999994116931,0.008412098466147324,0.04369252020960628,0.039311406837151584,0.01774937131696584
0.04619562655099476,0.009056654600613164,0.003912254986318461,0.014896502050252733,0.004031718380070381,0.038962477672800394,0.027603431808614146,0.008288151567823242
0.04538773115668386,0.009664593608658584,0.0031077920599112633,0.015590478549052178,0.00822624065637511,0.04384571056821377,0.037340967290748914,0.016491702623977703
0.044405397233395975,0.0039709248135035135,0.0032538333478493793,0.021203500222805163,0.00456206101520408,0.0430374862891456,0.03667061096614468,0.006736588388810325
0.039609976844269326,0.01635336335329885,0.007528092164290839,0.028836419689085475,0.005862003334914764,0.0489334863817457,0.047253691983186866,0.029313264090247634
0.03916957953285029,0.017870470922723317,0.01060030280230019,0.02839082464263835,0.008080662186871326,0.04706170504459343,0.0367820547186204,0.02031572051526024
0.039298794526581256,0.011581992276111067,0.005789856674979155,0.022347370252996226,0.0023869763952301362,0.04605385726658991,0.038453308819272745,0.021160960675835862
0.04156227155395683,0.01184367840523176,0.005132520728956105,0.02741491992747247,0.00601184876383572,0.04681974398133085,0.04173840153069292,0.017040496028634992
0.042857079925719695,0.010292388819037228,0.00805214686800993,0.02586385853092465,0.009965700747381758,0.05474551125717856,0.049128035256598444,0.016270688983889534
0.03967783480739081,0.005912835418660503,0.004737549241464524,0.029280389131950645,0.014183223351158394,0.054957494106001696,0.047548985534382616,0.020109809507426264
0.040914374256781065,0.008535506719956055,0.009003388321421441,0.024805204776885317,0.011410049505153466,0.05407070900761954,0.04716921404668806,0.019817298866348775
0.040833320506384094,-2.2691296187136873E-4,0.004581186872035938,0.024660079684876962,0.011685974160593917,0.053302989752408304,0.05112337720963982,0.01317092251307091
0.04065410330396051,0.010335631946681656,0.004745615872308834,0.026187019909624413,0.012346181191746894,0.0623288243878883,0.055789150837334364,0.018063204174023403
0.04387112601391071,0.01376102991008706,0.005531371623603462,0.026052183825980645,0.01696648418373796,0.05826154513378382,0.056380524116779095,0.017293901708339093
0.04210655419234596,0.0041956867833434636,0.0024348575082050973,0.023331655693734812,0.013857147598403532,0.05882808000909788,0.05078082782852011,0.035002139211719734
0.038938352510327866,0.006924346342207286,0.006613667136755219,0.02474370549939089,0.013881441163578442,0.056559278338060376,0.05199088660769824,0.018696359567948382
0.04150185448905782,0.005017733555206842,0.007980556139056873,0.03146518316052053,0.017999965009441225,0.06313943962236242,0.05947181204901182,0.019601082408032076
0.040536808392460426,0.006485434784778137,0.008394823162545077,0.02584882932623779,0.02433641330365761,0.05945389235136571,0.05463107927546549,0.03386486225373329
0.04491856270276051,0.011363357481072905,0.004466378684815933,0.022214243761414555,0.014619457975690996,0.05811809977088722,0.048105268071916396,0.026434280547215267
0.04230802408737456,0.009622024591609313,0.00373134853816504,0.022288863087277646,0.00882852300304701,0.05535851511117709,0.04936947393789311,0.034576479958494555
0.03899340123282893,0.007869027941955391,0.0047818694875546575,0.027317355696452224,0.012276990230741544,0.05293417288395086,0.04373456976459783,0.01778970351910207
0.04148167622476411,0.010928997566552452,0.00784048319749905,0.029857188142149434,0.018470538735491177,0.06189391556440336,0.05262544297752978,0.03115725797231491
0.04298658225938158,0.015099850793765423,0.004374713420115739,0.025730887057881,0.011946924739273284,0.05612999849012981,0.041983739308566956,0.04220517342341402
0.043871561414679315,0.014864737390760583,0.008070927449711659,0.020987626484302784,0.018143360870457603,0.05223797225869127,0.03656336438367198,0.025303897615591625
0.044707173170566286,0.013888098556153727,0.007590445171086512,0.02773190347244661,0.013424472620624123,0.04922451361361593,0.036894235496746176,0.021604495678141367
0.04362068480428677,0.009470452741536638,0.011026823348628458,0.03404237186936054,0.015909730307475063,0.04906065966093181,0.04568417917592829,0.02731605668930515
0.04050467837709169,0.017358389345044366,0.013415652999875778,0.03518718445556933,0.01742347132484713,0.058221874664035354,0.045739987106819806,0.03585963582797937
0.04313283923687288,0.0155889782097955,0.009904473484147686,0.0330066898112207,0.016595263416598862,0.04798197024787558,0.041857799251153634,0.02522356677214739
0.04513589917040282,0.014821714177179385,0.01298762179497644,0.03379963304042961,0.018213264316704076,0.0464819475230041,0.04328696155233619,0.02058133532959685
0.0413959085591545,0.012157469226771894,0.012198493542452513,0.04019768405222793,0.016212817260015878,0.04849551275215612,0.03939622683429644,0.015169221012721421
0.04246082320886958,0.010875075186708225,0.01442062571051992,0.04074875136363614,0.016573707328349778,0.0544969196366853,0.04502491018509548,0.029344525582025275
0.043546263611450996,0.016467168156009137,0.01492607130464361,0.037718941193597574,0.013722787730109326,0.05057638698859725,0.033821620489644155,0.030132883328444788
0.040822041647765685,0.019043529369785095,0.012465210511229655,0.034610265296471834,0.01478051343722492,0.04690993445341299,0.03902039757356746,0.030957481451837344
0.046182947222384495,0.014157455939296668,0.015427404104982376,0.04206835747393868,0.01771405975999954,0.04917824207090411,0.03547667075602114,0.0246182075072733
0.04682614990450064,0.00976545551958787,0.015134230545084854,0.042082499895899975,0.01467947631917221,0.04974218706907726,0.04532269094255584,0.022587420801338805
0.047148809977207114,0.021597464144815566,0.014938858468495594,0.04084402754899243,0.022039695226130536,0.05113128375792345,0.04432514484314165,0.034486203413087564
0.049066278551085966,0.021166515796769206,0.014488325784925902,0.04015711875331092,0.01996151534212679,0.044489139253019366,0.032772644502610214,0.03248805312956925
0.04747356705846032,0.020286790597730295,0.01733972111655342,0.043379058103361144,0.01251963737592869,0.04663241836115213,0.03016556188319834,0.028129727313854425
0.04417329049701803,0.015744337216014426,0.020355261349278286,0.04969273635621911,0.014737683913901175,0.05107848724699062,0.03895597797742321,0.02267924618596502
0.04735339197450702,0.021487778552882256,0.014660082110830804,0.04652952116424098,0.022157092873994554,0.05101212440944306,0.04217822776738215,0.03689689623362938
0.03820171427738947,0.02675099052035048,0.017501187418802036,0.045795229612296304,0.020345759239085316,0.04680744644659092,0.0399100336511449,0.03290476214680757
0.047467577897953354,0.02599770505498403,0.01661309557450482,0.04379755755254499,0.019138909188403327,0.05047342534320083,0.03491801999131842,0.04006404127422567
0.04890850715000687,0.022472174994080493,0.018051312959768907,0.04842694550560615,0.02118878892375954,0.04584544577070835,0.03414478015623492,0.024381480661406506
0.04677684980548915,0.019076625828816647,0.020987193461543444,0.05105734345711908,0.024144806901613046,0.05729944596240893,0.04113396532277126,0.03209470600933128
0.04862359325694304,0.023868010520011668,0.025035371140601562,0.050331490770597724,0.025534624070285193,0.057491609000584164,0.04058054305513992,0.03962328309847752
0.04493404421441272,0.02806053557338898,0.024718341497557347,0.04913332505807558,0.02570897858396004,0.05005390581380214,0.03932211597034186,0.03909345891038109
0.046351739106369846,0.026700362583958775,0.022420007508522702,0.05032601558131681,0.020531929965976557,0.05472322597669818,0.04471454728899533,0.03328207343120221
0.047810712890133,0.021485621216181326,0.021491549036623262,0.05385333432113105,0.023621805025705447,0.05598233287460671,0.044531731557272115,0.038346547784118064
0.04554909027524125,0.02740424370361429,0.021281225670240666,0.049629813902755206,0.029555769477460907,0.05788333209152344,0.045168492233225804,0.04538673382204935
0.04553111261344156,0.024692617253238715,0.020459090726706868,0.04943703928406335,0.02614448676397995,0.04897759377982301,0.04274401324644436,0.04145057356322367
0.044297081861142874,0.023643000511585747,0.021419914617595986,0.058799653187380056,0.02622677125409266,0.05391306677409844,0.04556957605751521,0.04971429225274628
0.05038741286762214,0.024235598530620368,0.019613366863064047,0.06130021419583591,0.02723668336046345,0.05641721474038939,0.047545675098742295,0.03525699860517081
0.04738136430634764,0.02915248355672816,0.024581301164098217,0.05708552895335825,0.028945052737791684,0.06329110027534358,0.04822446218737136,0.05914486054637178
0.04522106399690153,0.03400946157747885,0.02405029782389927,0.059304755973700815,0.027361838376425387,0.05550107192282514,0.04133096141447572,0.059004245827838066
0.04933619746786751,0.026750372102306852,0.02139660805096911,0.05318374917801115,0.026346652452464526,0.04775329873038999,0.03989963579760504,0.04690387976323195
0.04771714109053949,0.029496504829453575,0.025935743651393183,0.058258633132454656,0.0285723989640446,0.061284172805675864,0.045135573251035094,0.05346431379704957
0.04658360011918201,0.024763248197629338,0.024031047993566545,0.05499529626445262,0.028558682472081785,0.06557986840294745,0.05203713444329271,0.05802074639316592
0.05093805085861652,0.022819512019845847,0.019249590394001505,0.04939880879525541,0.024107289265360824,0.053383134023030104,0.04537299634543188,0.05467089844292975
0.04510050434166678,0.024444045301916233,0.01568176343848849,0.0480748129464568,0.02619959473116672,0.06380455075583452,0.04839766799872987,0.08596216560550139
0.04908993295849641,0.02683183550129768,0.02043927397510384,0.04561541469646565,0.027079528220301605,0.05634280139253235,0.04064066663987144,0.0633802005928861
0.04751460216784499,0.02397722141869314,0.01988936819439956,0.04855810287374801,0.02293480813845554,0.05866748140920239,0.04112906031554015,0.0577830971742402
0.04468616032395028,0.032942695752640826,0.020898361212041076,0.045676396623021226,0.025509210943539695,0.05156912382782642,0.034807886819334465,0.05445007431085896
0.04761083770342016,0.02490436886248898,0.01530900895294634,0.045959120349757666,0.022200391619731665,0.047468698374967463,0.03112401669524612,0.058143620412653516
0.04222169756288697,0.026416824649071878,0.014740222764139764,0.04162386582428003,0.022296606057595904,0.047755395176576544,0.03550401513644882,0.04450447411376573
0.04279122787669561,0.027261530783250398,0.015270875587456751,0.041410141421625045,0.030279384200038836,0.053825933443559994,0.04054041334847133,0.051049170951389916
0.04678791226686774,0.02461256912383354,0.013617908847067763,0.03992611735119706,0.022847101925950995,0.04308784757475443,0.029110612909744992,0.06138810951285333
0.0435127545928905,0.028114334376573406,0.01577134055506877,0.040428361293970344,0.02665766951255535,0.04762500716634987,0.03258652847831201,0.06105046592423931
0.04275380343349581,0.026586345938175007,0.015712817610581097,0.03991295569724473,0.023355837015872172,0.04376748348645782,0.03176908698105792,0.04681685573598085
0.042548055463142276,0.026458665435666308,0.015301257242942089,0.04003666770930433,0.024348230726022616,0.047450041451120695,0.03537778326537397,0.05986189380421076
0.045310577006322565,0.03236586609267018,0.012251186507987665,0.03301675055125631,0.021240426869390136,0.0417892073505832,0.02781881285326452,0.06932292040970296
0.046071588602954454,0.032597945530760265,0.011685843712246605,0.03176375307558822,0.022153212640574148,0.04215738826753617,0.029189018506977978,0.060643781716229105
0.047659985237357524,0.025456628201235735,0.01096767715681538,0.03433311305974855,0.025377549289554,0.04036073623042608,0.01907689294615793,0.06420947383843295
0.04688864469283828,0.02997657125341975,0.013867788170631435,0.03559826869694575,0.025088756453754666,0.04556202589521471,0.035998721031840174,0.06511748000125517
0.04579586157958736,0.03073966816994366,0.012126155749579082,0.04129827358491345,0.027960552603441612,0.04592875322337242,0.02642823216985959,0.06780941849967441
0.04541931533805753,0.03127746131496714,0.012196221636167128,0.03419898940852602,0.024507976400399468,0.039704455689070633,0.023984179794669613,0.06206861262055343
0.047347314552458226,0.033095666562536,0.010176114657909865,0.03299490628749593,0.023092356707335015,0.04071972131811932,0.024220655795328234,0.05656865294522654
0.043699568344437785,0.0299456028252315,0.010543789530770363,0.03134737487005903,0.021641782222425677,0.04455750781789129,0.0268517744754308,0.050277115473573226
0.046247836168832074,0.03271555822127189,0.009639842915428038,0.035234216782452914,0.026755853550391374,0.04395980108529294,0.027700771604214594,0.06660303132117708
0.043197218301263975,0.039797478380616674,0.009581825907313895,0.03205042179014214,0.021235820463058587,0.039582619056584896,0.023929876843063063,0.05647511910375864
0.04217979252472273,0.026433952957305686,0.011772371432750728,0.033648300005761744,0.02362923283865644,0.04249526900822383,0.02533441794254762,0.07008734821602843
0.04074772113967633,0.02975295325774795,0.008484945234284363,0.03317429272228587,0.025804353042548554,0.04066532567024664,0.0240627582954092,0.055654886985912706
0.04019814441819054,0.03231898078051805,0.00961214114238651,0.029744806922296082,0.025828389627742712,0.04256274762528946,0.022703961744967395,0.06513716055155501
0.04237880456257884,0.03194073560014489,0.007138014354317095,0.017729854489214346,0.026813703221914047,0.04153585736569902,0.01513447000552908,0.051710186251993445
0.0418393631879383,0.03419368544342444,0.006188149227681961,0.02378469259475923,0.02110275968594144,0.034401213212798605,0.013237340183808082,0.05811945721939819
0.042544618358306044,0.027265693635167114,0.007718624237234965,0.01997915008341817,0.020361028448660317,0.034946697151706195,0.020565192592230813,0.04600596745606914
0.042283285097723666,0.029694201329082282,0.008312153981714105,0.028217327968718363,0.020414744301057372,0.03715731850498502,0.02430746341420486,0.058364253155897196
0.04360804718321879,0.02868794915649863,0.005918305683023853,0.025040799665350708,0.019966785975028215,0.03062965198128634,0.01543867764247045,0.05409352945986384
0.040569133379017026,0.024911984032597378,0.0019623767716178847,0.019363327735321994,0.01549401600269328,0.029891821019040043,0.012870523121569465,0.05629735144993637
0.04251511731877794,0.02333162501792919,0.006455152846237596,0.021628874840769762,0.018330195235383633,0.031829038254969994,0.013852072085468166,0.035724669356518204
0.033656210472713444,0.025054121771458618,0.004703931943241332,0.02185204328366337,0.01734205154093133,0.03617670946187077,0.023969193387296667,0.04597137720560182
0.03754662958163311,0.030297458139350055,0.004820070573943237,0.022345468074350373,0.01844399283180456,0.042241909191447234,0.018724927750463933,0.05528672022895163
0.03705154006874514,0.025066676023287535,4.1371418364996956E-4,0.015416547553688278,0.021911659844578192,0.030793889614974524,0.013779564941550864,0.05024520785359178
0.03142128806406921,0.026065369716235725,-2.3099470263036417E-4,0.02018361439246766,0.018052877398244106,0.03350033733352761,0.015570999278064514,0.055603428042653745
0.041583691739334204,0.01938743376644885,0.002569511585960702,0.0226639769433463,0.021644425053282068,0.039834038966501575,0.028071030427772398,0.045633210108025624
0.03675651603626541,0.029479669454022864,0.003442579482818811,0.020670498083602294,0.02668531420188451,0.04500403896047743,0.03124511623123228,0.06525301103650306
0.03870644888190846,0.02982772552637069,7.697306676416724E-4,0.01997603158512644,0.027546666236248536,0.048159539405920555,0.03139995425636544,0.06145857982310216
0.03682659257946829,0.022803719209178196,5.306900093979996E-4,0.02046164003852546,0.02560091244803003,0.05214127600630991,0.03549841986277674,0.05460520845381213
0.032947018653919594,0.021244403790727555,-7.97684193625873E-4,0.012663563598455234,0.02740371221282534,0.052894319002876965,0.04039701081396978,0.048632796247764516
0.03407399402855907,0.02507722717375585,0.0010032146486161845,0.012488790232951972,0.03247587513620812,0.05775639662150057,0.04973949649061751,0.06050022124652482
0.03731812968464484,0.020800139107167465,-0.0032591086767343696,0.019523262664931106,0.02541289017586239,0.06470529459465203,0.054197075517482735,0.05857879699418369
0.03140260396485863,0.021424825346386518,-0.003886344025172749,0.01417236612559877,0.02900546444888091,0.06607738585124748,0.05544259687391526,0.05113422707341376
0.039662223000746274,0.020745337383355576,-0.0024040726928532923,0.014954785459712575,0.03046662595803218,0.07103536148754513,0.05847337175565579,0.04878954654854831
0.03627869937212258,0.021435139157333014,-5.772263421650935E-4,0.019692989733353136,0.040244103340867865,0.07813329150334633,0.06632802213565166,0.05829488947949006
0.04029654165789317,0.02122819354068164,-8.305608456861887E-4,0.021999289597097484,0.03257079375614379,0.07453462658710806,0.07230707072912633,0.05760408409601097
0.035874989506820935,0.024503874461058103,6.464818898871846E-4,0.02098658540290105,0.03563942409471232,0.07434581560093186,0.07383936241468285,0.05758791160642166
0.03675871865949857,0.020490628359270326,-0.0011502134914740724,0.025108189103613867,0.034204686679170954,0.07638078290762719,0.07671119330925595,0.05229447133014731
0.038744064784471566,0.022890362373879387,9.397047481774709E-4,0.020943695461980966,0.03820607504906841,0.07917055786347416,0.08130718858268181,0.06809137170924333
0.03326545159408653,0.024293590318945606,0.0018902280043730931,0.022903035235432405,0.036159479987661815,0.08054074470742406,0.07477782230884487,0.07008135932384542
0.03489397618501209,0.018717858342791254,-0.0016180943956470054,0.02554516165729517,0.034076151694300734,0.07529958224203445,0.07309122448408979,0.06093779099910382
0.03703293922471179,0.023697112184682935,-0.001375052425743489,0.02165264161580709,0.035495379883896026,0.07811475140194421,0.0722707398970148,0.06453910506136808
0.03669585238786067,0.022000865643796615,5.069892661693612E-4,0.018662899219923933,0.031541281262554635,0.08074223954680267,0.07749656082657345,0.06430980472427394
0.038257108082219334,0.025953598942605394,-3.608305965742742E-4,0.013202023315395146,0.03554554771354547,0.07697662685737651,0.075731516564967,0.06219655014067004
0.034744973058142004,0.023289098349139385,2.9931617185161274E-4,0.01390747766803284,0.03268795522485359,0.07133911739811001,0.07136896416165286,0.06405418087313391
0.03409216601559878,0.025271077158165182,8.68169182763133E-4,0.01331704065867064,0.032436015457528736,0.0762191242225406,0.07201558678965246,0.05619472551619977
0.03695099685382075,0.025874585555077417,0.0018443920393134779,0.020035591978337305,0.034644732268977116,0.0791250200642283,0.07765120254097327,0.06391832408882314
0.035420990326523065,0.029147338868991825,-8.14233652551737E-4,0.014641140401915246,0.03773705113952024,0.07907608102058394,0.07493313856885372,0.05565528197574625
0.03548461319606842,0.02729851232807099,8.366828977795321E-4,0.01811578275191661,0.0392395283074844,0.07555957749971245,0.07484160290536632,0.06116753209630138
0.035282106579129925,0.022684300286491352,0.0018828846534951792,0.02143251174570351,0.032140515718798855,0.07741120577952688,0.07435678396106234,0.060613105051765453
0.037882500387508525,0.019055482163865836,0.001344579754141221,0.015817893105637273,0.03899207420025165,0.08102983385897959,0.07949754319533887,0.06300475930491004
0.030952669946682932,0.02322085519428579,0.0015980552397557087,0.010989748978740294,0.038019000701659776,0.07781791340512405,0.07579403321995076,0.06677546862134257
0.03340949503680302,0.022466842363245733,0.0012655933266020616,0.018162381286276463,0.03451590856407861,0.08061512270665505,0.07703868934522984,0.06867210248751981
0.03741771752191895,0.023566720775583798,-0.001662958447792089,0.019254012725965858,0.032120064347713,0.07748819116448438,0.07421959239248314,0.05909345591030151
0.03607723755108927,0.02932980987026603,0.003356567563050098,0.017782662885420745,0.039920113143913506,0.08341600638279922,0.0885128524517265,0.07253129385193124
0.03430031860068245,0.03158570421058489,-0.0015942171697275508,0.012024700919812817,0.03526090864799554,0.08022673817235076,0.08287640228565235,0.07149867167272807
0.03774918303876151,0.024368537647072048,-0.0016724986777544918,0.00931421422915694,0.0352966683036025,0.07514262191916171,0.07474954441596593,0.05727121733881981
0.03594461772791466,0.025160815935022614,-0.002899246523406171,0.013413189555127205,0.03651661857117101,0.07517854694810357,0.08119681001631707,0.06012735400591896
0.03293321322694612,0.024208167690098984,-0.00489004636499199,0.013606530773556714,0.036098442562252336,0.08340845486861803,0.07984593924276134,0.07481770686088265
0.03825000223832943,0.02566899142213648,-0.005376246003855621,0.010896714337000292,0.03594613885809823,0.08073914700023731,0.07846017101965984,0.06958414690739712
0.03399745946131713,0.02541075175333951,-0.005509009945933495,0.014085130352268976,0.04067583630095229,0.07750577161574694,0.07866998668699195,0.06902380565491398
0.03834992782688431,0.025877821293756233,-0.006378373404526472,0.01726778202234837,0.036291967358822196,0.08112794812273959,0.07296065423440122,0.06495589727565758
0.03577219516660383,0.02317160528115617,-0.005108501995567386,0.00945962539400533,0.04125989226785716,0.08632919854782121,0.08482993192431193,0.07068866607682683
0.03873327450070955,0.022436253698330726,-0.002150504001218526,0.008004668861633124,0.03609257281718913,0.08578397279950337,0.0809907034877315,0.0674760493798829
0.03908560345790295,0.027554348520877348,-0.006032267823980805,0.008330313614351405,0.03403076012031722,0.08164068884720382,0.07891696735156388,0.07141893608155715
0.035130103705740594,0.022365738919028523,-0.0031117123365173205,0.013926075356244481,0.036649350794147904,0.07811386869647592,0.07726325707422206,0.0551588783764159
0.03710797803210128,0.02807591181613015,-0.0012550114340931277,0.017927411511221965,0.04644693665837175,0.08698123216104242,0.0861203010757295,0.06828258657213068
0.03258751064478759,0.02557118756318799,-0.005535595620916977,0.012350198780809818,0.038652914428045686,0.08610251866815423,0.07625997265872733,0.0724729377238526
0.03535634444912489,0.03020532992925551,-0.0017034452001436107,0.012498250120089812,0.04227692248441683,0.08120081518264573,0.07677004792877275,0.07095236843425591
0.034231806562506926,0.024492559828381562,-0.0043643582662515465,0.01626221689031841,0.04388189138825393,0.07755877960120224,0.07391595833024067,0.05850430439040205
0.03477584585216919,0.02780678720571698,-0.005111974404618707,0.01572162909459173,0.046330620186651975,0.0852943211519361,0.07817993272657897,0.07354489725852874
0.03601982251284431,0.029967828736641933,-0.006371015481682629,0.009417218432222308,0.03698875760168644,0.07936940015974651,0.07180560504053835,0.07719903409419644
0.040313229671293686,0.02947605460897332,-0.0038852341072259412,0.013106226186272626,0.03817339307596478,0.07980023237438248,0.0727739803399381,0.07175709655368517
0.03837033757051752,0.023864255485385358,-0.005080678687210883,0.02065378264765501,0.039252680065017455,0.07844839286128016,0.07867357935545445,0.06591393981388466
0.035437540378873214,0.029410261464567065,-0.005023892554276583,0.011839307801503322,0.03992969705850883,0.07885730673469464,0.07250525636126257,0.07338988032826173
0.03789427761389084,0.0324040616024348,-0.0024593592835402763,0.012821787433104135,0.037319366736838853,0.06780975130475887,0.06329740798977297,0.07568529703453299
0.03532085896112474,0.02853251863558807,-0.0046585995278228464,0.008836375578944592,0.03264094606728093,0.06646460944430636,0.056551701890614,0.06571198088342135
0.03641258671716666,0.02500559621424442,-0.0047085510363203895,0.010028985456283208,0.03654197174780321,0.06107751700833613,0.05690701417359739,0.060005618347688305
0.03952852377751907,0.03186895208406843,-0.0013960439155077829,0.016351203716011828,0.03390086109314848,0.06333391868868743,0.05731397456827843,0.06797659729551243
0.035751240251539515,0.03223709739962971,-0.0037705743317737158,0.011183495104186715,0.029672074250983064,0.06123525168593068,0.04489259536921979,0.06705247704859017
0.03141773908796959,0.02814238875884872,-0.004933819244652636,0.0037605106541498826,0.02975571377694653,0.055084019498335,0.043177998276763815,0.06083619998350951
0.03776950156601842,0.029358235573063822,-0.004690971098241842,0.008819076968361535,0.02495580882805022,0.054329779502450326,0.04277457209942021,0.0511501432648148
0.037159537233629455,0.03419047727387022,-0.005298664748307303,0.013252735309032733,0.026630965211382297,0.0593245090455332,0.04585424528435699,0.05508069343523596
0.03144499996094168,0.03314260690586688,-9.650880319266562E-4,0.015529365333219886,0.029557148081500825,0.05059472538726604,0.041149755551966476,0.06461484165194047
0.02964906799954015,0.03330418071013461,-0.0050578779654270635,0.011895069916768204,0.02491035099850189,0.04751292333053178,0.038426778227646466,0.04418846675128754
0.0346054434374015,0.028520282078750923,-0.0028027155700142323,0.016479385402408186,0.028714288127491373,0.05095610865325981,0.038749584451772096,0.047449528315177854
0.03356430294653342,0.03439581134598877,-0.0016947152381173616,0.01844266111932008,0.027833916655066293,0.05629257969759789,0.045264481811336243,0.058859374302120404
0.03645370162593755,0.03552627814705893,4.663451231050288E-4,0.017065886893077156,0.029431051216716974,0.04858161613737605,0.04418037803454419,0.0519303362767412
0.03376911077278213,0.03672713672848315,-6.428804708490412E-4,0.020366736665091905,0.02622599208488368,0.057989528154771576,0.05214821544692899,0.06372209118657426
0.03167616895148451,0.02904997410407019,9.515278320985436E-4,0.024189961454940994,0.03286150147687131,0.0646920306561427,0.05322152715276888,0.06530820922262319
0.03411758106777105,0.03549338096707703,0.0022424907816346413,0.028180392628797495,0.030172187697024237,0.06299387438112151,0.05792834478458844,0.07387273680806947
0.03153202334528809,0.03642827506687693,-5.835394044294703E-4,0.022061137119713817,0.03607443171657242,0.060177178948171386,0.057397954022076494,0.04904036058567338
0.02959894003001693,0.035049209245867505,0.004789199532377426,0.02278398751948059,0.034324289561761576,0.06252277498253976,0.05631012461784809,0.059095732726554565
0.032303518878184806,0.0349247974196208,0.004989570203368818,0.02622125607403735,0.0292530811105643,0.06926598696609641,0.06348194439507787,0.04667434596014686
0.03432002603146966,0.03901049153656633,0.004895282425829135,0.023461310457308968,0.03765309278573866,0.06699708515645918,0.06198366798230684,0.06315866229880289
0.031690897650677674,0.037328154165324,0.0023524276656951754,0.029225524090298695,0.031766184519442256,0.06760480308615077,0.06366122373688553,0.06408475182721066
0.034821030822580215,0.03152095387860009,0.00566566349244026,0.0308786046319282,0.032259334412962186,0.0703549481289534,0.06592155824110185,0.06391980298086948
0.03406399436238521,0.03207499456279557,0.0072346072083589305,0.03853909159949921,0.03538671268495813,0.07518268549013074,0.07330022864636664,0.061601670623401605
0.03309549899331813,0.03130137487005415,0.003455261035185427,0.028526191208924884,0.033970196445394354,0.07082685327951554,0.07254751962855799,0.055932509843800944
0.03281551377070176,0.03093151517538769,0.005829742687506035,0.03288769427412228,0.036453204755553345,0.0734276983589064,0.07070364596460617,0.05745656089907727
0.03320194267856703,0.03326864019881459,0.0044712712675847475,0.0320071181215816,0.03854520367676182,0.07784428945702042,0.07293644380780623,0.058752951180273676
0.03686002786814506,0.0353849618000176,0.00562881004898832,0.024504771615644797,0.04028918967048924,0.08341288831410369,0.0738170756762587,0.06860184832746778
0.03346213790525146,0.033295587644523825,0.004228935484141216,0.023593522490928765,0.03894764256401669,0.07592809734549859,0.06981281633029567,0.07283658698825528
0.032114752449207,0.028530667889116217,-0.0016325622045933617,0.024426979232131406,0.04068145545871689,0.07349247737235493,0.07296407773366761,0.06667029116312356
0.030620642366825063,0.030481069909205752,0.00229521215358373,0.019916296642877144,0.033562094277411594,0.07071285795095529,0.0714598661784748,0.06503811256656764
0.03521679011017893,0.030222561577022806,8.754303660462993E-4,0.024560008311972133,0.03795061099394224,0.08189061321503696,0.07558305825617848,0.055357367843745495
0.030836867984930943,0.033987473021270934,0.002731468966446101,0.02459511753375643,0.035371819145741425,0.07632788324485935,0.0768376999558409,0.07182272115909931
0.0326181573605493,0.02868455744426584,0.0010069341625025474,0.021821391591779454,0.038501690718432235,0.0758262184596674,0.0785965229825827,0.06104971627838552
0.032784267569033576,0.02975857909772117,0.0029961846698190065,0.019002502965491986,0.03824286733131623,0.07788620111877008,0.07763780456514792,0.056626613447655155
0.028992498431748313,0.029689192184362282,0.0020450381452721666,0.029632194945716183,0.03950385706904023,0.08425567355539769,0.08581054453978297,0.07166482888194149
0.03631451939482281,0.03227254381718082,-3.2737690615805185E-4,0.027547038243270018,0.03984628193045148,0.0775560340908156,0.08015365795927762,0.06686013500863197
0.029794688199382968,0.0325529243790452,0.001702379292805631,0.0231893170544896,0.04189022132208597,0.07997501120874073,0.07962254644971932,0.06537327190401525
0.035163365496859125,0.03044350461871021,0.0035219494450755887,0.028434178394398737,0.04069994654082827,0.08789738623209077,0.08372271756219196,0.059461844704841685
0.03340621237473139,0.03783653142737359,0.004600931980117511,0.02611383476330779,0.04151536096698029,0.09127456079211849,0.09256832879426335,0.06752174837892846
0.03448079643870316,0.03885126679718032,6.365932238665826E-4,0.02785760048270539,0.04192404879320243,0.08796263857664174,0.08372686073692175,0.06879954438231149
0.03182732236133111,0.033311647780853236,0.0023373757850535856,0.021780559513104956,0.046133960157721976,0.08751965122485697,0.08773746529955452,0.06798520148528892
0.03002059866961486,0.0350066391059625,0.0036961110043418574,0.031151144176926996,0.04104788470635489,0.08647346401034076,0.08996077983251938,0.06826906997608931
0.03522217975681179,0.03266459679821366,0.00416004398734267,0.023236070383187493,0.04241553462377723,0.09397805076622892,0.09124424261147504,0.06431831961121376
0.033139476218211665,0.03323869157582545,0.0016842084378131791,0.030605101317646873,0.042335514742184666,0.08442833164860596,0.08652597512482409,0.06996234052194931
0.03350822631405926,0.03132883136188283,1.795639184898576E-4,0.028505310063428033,0.042526510237355694,0.09278173073140937,0.0915856153288464,0.07346555494713963
0.035014384861413436,0.03166015816283518,0.006193750082646295,0.030983327961715035,0.041429850319304004,0.08753821149964913,0.09898598891621571,0.06555779167573332
0.03216469850902532,0.031134301365681665,0.00689157095457307,0.032001823677307896,0.04275495939027592,0.09490870284649906,0.0990577655395592,0.07354231375041043
0.03569306746070572,0.03457227234887877,0.0032022585061913626,0.030849179779889508,0.041893601639201444,0.09279258938066592,0.09372378332499313,0.0646250503893209
0.03558454166843894,0.036271350382481325,0.003975213904673403,0.03385150278680022,0.04061777946426243,0.08818729661839686,0.09421378462503145,0.06594273436127963
0.03062188786207439,0.03814008857035909,0.007196256552433678,0.03654740389259757,0.03874798151862929,0.09122701402237637,0.09392235317502039,0.06084262206324094
0.03737700753385429,0.039393269453063505,0.007602873956637072,0.03860650529277485,0.044221223329483486,0.0942071151755905,0.09140830669961023,0.07370254511842367
0.03891947972521802,0.04126656341854054,0.008399427155595092,0.0434469355374303,0.03763566878801221,0.08915957057248881,0.09573930315302696,0.0639351255257913
0.03380624240764517,0.035315280122365025,0.010547147323310498,0.0379342298497082,0.03344759863468962,0.09002271865438258,0.08932216398783135,0.06369338411027417
0.03495741935320867,0.03834070844884583,0.010500167064332055,0.04508605947164703,0.03976205780429701,0.08722438099652176,0.09313534378444008,0.045142091473491026
0.03586376826692874,0.040624471546413035,0.007828283753490952,0.04075208679883332,0.038118591758673846,0.08870733356689127,0.09053252860505841,0.06624369250042556
0.033687678720653855,0.03665145780431604,0.010492886466196446,0.03658918210556692,0.035270816566279825,0.08090964044184477,0.08327973200566137,0.06177359326002135
0.03403114025517059,0.03260383741663705,0.008382970798962757,0.04358186751169433,0.03297100153831146,0.08075721606046637,0.08038953270601903,0.05410693982231492
0.03458918447296603,0.037002091272851916,0.011144243901338611,0.03832772051334765,0.03848281502501038,0.0811424493232685,0.08066961404165038,0.04892670751348036
0.02985261264238426,0.03411963128357483,0.007385016256348856,0.042273385811626714,0.03474866972694825,0.07631313889551562,0.07870886029509144,0.058694312012640956
0.030906244496090186,0.038358231206381405,0.005332579890207494,0.03581284649111391,0.02681082242443593,0.0744102063984068,0.07340482128466955,0.06273024847322964
0.03268573616102012,0.039313593299190285,0.008004503118780995,0.03594972743300563,0.028627298770320636,0.07184088762629791,0.061557297725479444,0.05120812361107522
0.03121436930928047,0.031601539397899156,0.005325269298555571,0.034053192103621927,0.02790306152534592,0.07012476350403961,0.07235334999290426,0.04211822892625788
0.0334017609812623,0.03647528830982815,0.00490421440809884,0.03608725383585162,0.031867542503571836,0.060621584130744754,0.06363003473076095,0.05457575407877174
0.03269178848270983,0.03218246608814889,0.00445257710984134,0.0374843961324868,0.02707009084009641,0.06217504033195846,0.052157150024351236,0.05149545659460351
0.031408652341550915,0.031096857857610485,6.374166129786913E-4,0.035721151724498634,0.026606910196619104,0.05436521267849302,0.05237076667962233,0.04342933146165527
0.03215756520849929,0.037550242341058145,0.0032375049634172644,0.03524054717809459,0.02682588885114309,0.06013966643202167,0.05607891813226646,0.04966528275877182
0.026735334317263888,0.02990819835194718,7.769255394011578E-4,0.0319629197617939,0.022639854903021926,0.06054444904208328,0.05523287414798893,0.04415418066161785
0.030271023286029406,0.029576961139916005,-0.0010802435009262974,0.03334636795773611,0.025360286672380203,0.05562749569313746,0.051324923483761296,0.038113809769433835
0.027785604086824213,0.029821012935039363,6.364530085862906E-4,0.032456173265603225,0.026298181662379624,0.050252463755518326,0.04895729511861177,0.03195374364917658
0.03047822274096894,0.03124363886422662,0.003087513765427605,0.0326378470210117,0.023152080122888535,0.05802701266809827,0.0529422766928158,0.04481857827345621
0.028544211111388613,0.0360787627366109,-7.618483090772416E-4,0.031563076687000154,0.02968663204807285,0.056572174723501366,0.05175907593953298,0.04276987102105233
0.024913617534254244,0.02805428254694562,9.58962160618053E-4,0.03285997020498809,0.024494754010999386,0.05243556713790207,0.05028297297142826,0.03670830168976205
0.03146621713908427,0.030573619368076475,0.001725672954335237,0.03727871356038324,0.02311361367696673,0.052860545381742625,0.05770913191753425,0.03848296002540847
0.02858576201333186,0.03072296626068641,0.0012901835546833766,0.024640054133236316,0.024472836329058507,0.056579598781135,0.05405732947422715,0.04114201948694189
0.028665464054950407,0.03127021069838502,0.002382643617048068,0.023144135298816277,0.02298449081354802,0.056247525481101714,0.050352092636115245,0.03899604316343209
0.03328351340559534,0.035649763767473364,0.002348481078564772,0.03679441642890117,0.02144436243619476,0.05452314278344414,0.050455247708612636,0.03578739937155171
0.028842965520287416,0.03123301294880001,0.008687452375840876,0.03687748643060968,0.023112712170407994,0.059962851880866336,0.057922900399770876,0.04879001935315506
0.028469010748679333,0.03560309185296238,0.004398815104078553,0.03629498988546943,0.018296142132625856,0.06077391142050665,0.05002257938551685,0.05814975441927783
0.0345061469508928,0.03687371793707616,0.005158242529024728,0.03640065536962926,0.02318158028091762,0.05467722255297748,0.049611585581197486,0.05043624546540731
0.028776746128608616,0.0362755021665727,0.0070240221624464525,0.035166769275137656,0.01827924035684327,0.05564008854168346,0.05446638828046674,0.044131592991448594
0.03317079960481953,0.03558069054801989,0.00937906595778417,0.04302743338731293,0.024871124155947777,0.06282640517908576,0.057961275411288045,0.05769696789291463
0.03222635755635923,0.03272558476234073,0.008406687381592885,0.04859212729533922,0.020274287662696767,0.06036003068248053,0.05020874488580495,0.04916367511561462
0.02927672219945856,0.03726513292715537,0.005422427642410488,0.040916068488305195,0.023038521986829482,0.053534415126786,0.05312147124645669,0.04784005210509102
0.02869795987691825,0.032092932522442164,0.009930515387845984,0.04363294752818665,0.02047105582728186,0.05823483814534707,0.05391873966519565,0.049797794693932064
0.03415501635024143,0.029465884136971286,0.007646527692387089,0.04349328372915321,0.027640695572935314,0.062331059282541096,0.06333648843976604,0.04498708340991343
0.0317066399366347,0.03594828163982681,0.009059448922605014,0.04273877477664701,0.02399763113618588,0.06253801556799711,0.05411263693703534,0.0600123705551787
0.031776017761440775,0.03769214144542267,0.009435192760637253,0.03961521240843966,0.023432391892725998,0.06435643883658917,0.06286603391480779,0.035238114071730046
0.030436199689399222,0.03643413528600598,0.00967934876450457,0.048336541640331465,0.029533709941568124,0.0698185213636952,0.06406607509349967,0.048293352335142106
0.028197651986240975,0.035057282164267685,0.006282196485905814,0.05108373078435509,0.030301784333238085,0.07262421497787502,0.06412112718431792,0.043028686251568485
0.03047850108396198,0.03321771516714647,0.006112259919196467,0.04355847848438497,0.024097143558895567,0.06267151291704037,0.061940513864528056,0.041992552271359396
0.03015647052169789,0.03232855099197079,0.0030235924376718457,0.03926109813574057,0.028324034239322397,0.06545112218490247,0.06744208476431476,0.040836469204336374
0.02977066155904674,0.02900937237330534,0.004721661936610191,0.04492786793795445,0.03278610327874282,0.07055807484638923,0.06833717001805692,0.048702479598235614
0.029478870415742393,0.03241764535271033,0.006320344470179212,0.040214407045413084,0.02891723585319827,0.06556241843800796,0.06178904028234149,0.04186646635898681
0.029986016299047052,0.027494082610863942,0.00988740750587747,0.04829845084019213,0.021065417269076726,0.06460579400417886,0.055547977517869974,0.03321620249154209
0.029610389143870795,0.03361292887699975,0.010468219121606734,0.05296508564310455,0.018804262611826283,0.05695666151353138,0.05154813429264328,0.026712992012683692
0.025811895001294285,0.035324380272747334,0.010397344320187107,0.041757405208495864,0.02301159252245924,0.0618296197199304,0.05765713512966418,0.04084190527118516
0.029986709216348526,0.034688704473841515,0.008390475287313308,0.04015946193044802,0.023355143996444876,0.05226279317191008,0.048630959139237886,0.032376870328353055
0.02630454459838073,0.039093366282500486,0.005999132959454367,0.040121239909621687,0.02240826616647523,0.04819291552733793,0.04445495920769589,0.02290783417254893
0.03035756151607669,0.031147672619457622,0.006386232058629756,0.03521072463037875,0.0179467623139189,0.05225945508242505,0.04192994886245439,0.012432799076007922
0.030950278384858365,0.031278238026209236,0.0021646240248759836,0.03600207291930718,0.021051400678060432,0.05018933463319332,0.04458044068976926,0.018377172571800268
0.022438339119908113,0.03402419472169338,-6.407924644512357E-4,0.03353170844335834,0.018873785261921804,0.04675810622950973,0.043403187802396846,0.024033592484584868
0.027050186683274288,0.03182105714802172,-0.001896130426970491,0.0316373337935172,0.017978790369834814,0.03960255471919085,0.042287448010432875,0.015523629656084333
0.026571957214853906,0.027881388676602174,-0.002635579425432106,0.03854888478699792,0.016066651204906107,0.04210001468247246,0.039133703690717586,0.010768051545288067
0.025333106541626942,0.026477463139370147,0.0011670895198656087,0.030599918211307045,0.01435741132590301,0.0495942999256564,0.036231314489108345,0.022751732896284665
0.02412796466623684,0.03056251931222444,-0.001614497426217593,0.026332642117212847,0.012523791482761771,0.0410523890054464,0.03327587373511301,0.02270631743220931
0.027136131746008683,0.034645674225215535,1.5592746018287516E-4,0.030152480333237405,0.008128139559437803,0.038851825191382146,0.032401858149370986,0.02547673312455757
0.025511064513120164,0.02969623736134718,4.260749329819964E-4,0.03342103498701723,0.01442762524660576,0.04563321243274778,0.043444334373357825,0.019318586235681282
0.020191470855294987,0.03080231955524789,-0.004776980611572456,0.027910937633347625,0.018403560224899102,0.04193942195799218,0.03714906686376486,0.017437747172517334
0.021376196166861542,0.03094708834800302,-0.009046121726121742,0.027101871883496737,0.011624601498508526,0.03833981674612677,0.033430425182575954,0.01620778615594486
0.02536199172842121,0.028139504074368105,-0.006638436051655887,0.02207049803394346,0.01624078138347622,0.039278449488994636,0.03115596937379759,0.017071502975160704
0.02411942367688797,0.024067818600791664,-0.007436916109553962,0.021005183000681188,0.017241907310187408,0.0423866191808005,0.038392631791441444,0.008657136598320044
0.02237116035328922,0.026987472889439448,-0.0069093742215646054,0.025444667804365963,0.012633551274613037,0.043163577987479954,0.03227783952288306,0.02001647284517897
0.02378432063556682,0.022670566261076785,-0.011565906824550418,0.022436750554074073,0.016029938951547803,0.0415245011060914,0.027123738031196797,0.017601549719058054
0.022898165024891202,0.026149086818539294,-0.006251332477843469,0.02212123566484968,0.009205892460510732,0.04014963589234092,0.028431572794518942,0.008530817961111117
0.02374660616452044,0.0314808790801884,-0.0038488237907148754,0.02737690646512312,0.02128637601789208,0.04630591626427486,0.040552792052569495,0.006236154360333938
0.02423915433322076,0.0352849362831276,-0.002492212311177799,0.03414033195916411,0.015307666311585498,0.04510156805657571,0.04334467579754458,0.009670440540844526
0.018377938523950123,0.031236449757895846,-0.0037748909358676958,0.026016986982959033,0.01336433712197051,0.04629147779542225,0.04074526509184942,0.007377597457494429
0.018945062966320595,0.03210157115055743,-0.005502938545563084,0.03313497981642976,0.012664268079406175,0.04207466255433052,0.03813851981935828,0.005142801696973404
0.019302126195813618,0.02838665026735577,-0.0058482316539515584,0.02727087127120867,0.016908397612521768,0.04977378679814907,0.049926529396234376,0.0037508807160370173
0.019592764551216738,0.029099909945204974,-0.004777946625577734,0.02854736767227158,0.015986619328195048,0.049215485895681185,0.04609714432670906,0.012254996772038127
0.0206426100823738,0.03348397637929108,-0.0013894057341733417,0.03287340350209432,0.014058168296550983,0.043545720166315006,0.040475562276364604,0.028367964308409217
0.02051009538475317,0.01541833306937804,-0.003495633859015236,0.03447027380481995,0.01599529892844178,0.04526471362033396,0.0440616370921376,0.035878936731713086
0.02199717343823692,0.01887436675533843,-0.0011590421364605988,0.036908629415062316,0.014925896718446954,0.05316871294526621,0.048765146441843314,0.034006374629134146
0.019033927561070207,0.014366452251605643,-0.005820722234221056,0.03297329389738094,0.01746880221271546,0.04895036510131032,0.04396973889837642,0.05586446759313058
0.020622304771893002,0.00723175616882699,-0.007628328354062065,0.027944359942806602,0.017912788922631363,0.048670924669877776,0.03900797771919608,0.057406446181115726
0.02058907215762915,8.923686219422337E-4,-0.013127496879006804,0.029197203782252035,0.018632055232815782,0.047516434505191746,0.0412160960734155,0.0590087067339745
0.018120482562651932,0.003259714410985689,-0.013111895264632335,0.02777897301860882,0.017336594296922813,0.056158612726111015,0.048182092594422056,0.062335600047329624
0.01758872458709716,0.006287788107407465,-0.014722852637144238,0.02059904736958221,0.018303050958011092,0.051858619062091355,0.038837544635668624,0.05182726199399138
0.02038849310609821,0.005588553049093631,-0.011743320918395455,0.026390227446460277,0.017870350673523938,0.049460062627707524,0.04321358497631349,0.05704820031510176
0.017821479309018905,0.013504961158783647,-0.01359682627677954,0.03564351599365294,0.019802078783086957,0.0529388270644256,0.04672370384495207,0.04506127567640417
0.02126558578197316,0.018706024479571374,-0.006814245610268659,0.034362443573562974,0.022861895299839403,0.060111655531905304,0.05217804829741426,0.052620098547272336
0.019697416604477366,0.020930824662925583,-0.00939191879047547,0.031898568338956074,0.01780171491399793,0.05721696636567534,0.046786899565598304,0.04261719838748897
0.016808202078550265,0.01164470075469961,-0.009468644704315021,0.025164963990462648,0.023737360416419467,0.05545419161195957,0.043413258714669244,0.03227501386161942
0.01982859387651643,0.019333302318937512,-0.010511214531039093,0.033854330321618616,0.01887273882808977,0.05698186153450096,0.05097896884146345,0.04863094000688487
0.018643152935999448,0.020149212374047366,-0.01249905431794534,0.028104595304438006,0.02483423508181041,0.05588276832877073,0.0475832305348706,0.0435858312968176
0.018867346806225756,0.01639711791516222,-0.01623151799076824,0.02600622223254722,0.018237389985197344,0.0527340568510158,0.04705084831583666,0.04041122009300464
0.017948597083453713,0.012805145421409505,-0.014793394427196436,0.025773435679460943,0.024282849267127163,0.048975783238558016,0.046295570421634805,0.039163563222270104
0.017580331476345853,0.02333507981408496,-0.013888153645856665,0.023331164467655284,0.021156929162721713,0.05088888466396327,0.043177892839171464,0.04626294936514335
0.015796532713537304,0.013872430593083853,-0.018228721135408743,0.01830043313991575,0.016512531180467478,0.04779732165529181,0.039473532880894155,0.04883946599493742
0.016509248353664,0.02075259311321432,-0.01601709549010388,0.026262117579719555,0.014826522155677748,0.044478386118795205,0.03289963099678378,0.03435678824818078
0.01640015668133343,0.00980562291680332,-0.014756917457883278,0.023594258590836213,0.016216810221847268,0.041900920559295195,0.03705879988539475,0.037943173597617036
0.018265047149235228,0.01523300542092677,-0.017657662210512765,0.017794103916905304,0.018041619264848943,0.03694152773837234,0.031144331074352636,0.03995681922690363
0.014882046387243398,0.020406049495055378,-0.020027193969433386,0.015633079695893972,0.009805203248745793,0.03415643840651238,0.02466824050618488,0.03342600076874841
0.017047660061000103,0.021513418436413707,-0.016494590251782622,0.013324343999955848,0.011582821547026103,0.030396603282351723,0.020484709770597048,0.02199887233742119
0.014647485291528732,0.023406129293040114,-0.01555960177928495,0.015295520690918597,0.016064174658324788,0.0367919265712154,0.030777549428574212,0.026533078565615386
0.015137291713655117,0.027903595985355606,-0.018181599986596398,0.014106394257225572,0.01571378369805001,0.03440086003944604,0.029385151407853333,0.03137338505957031
0.021732074700858226,0.019568266467574286,-0.022306628926827995,0.013798809016908994,0.010046445809367357,0.031360764797881836,0.021090572776959193,0.0318607608431384
0.0198567010421394,0.022626248412343782,-0.017776612428934586,0.019970732515296432,0.013318589701453479,0.03644440853005305,0.024260165272657775,0.02010614205970258
0.0189300240919987,0.021286942794367207,-0.017161577937200682,0.01507061495763961,0.018623724052462255,0.04115266036226086,0.026270269712338114,0.03804814636132543
0.019408093750765187,0.023768393198664355,-0.01791001998633392,0.010238306029104619,0.01576210728232933,0.034634506365405306,0.02992739027281115,0.041058870068339734
0.020190680406567945,0.022168961691525515,-0.016042618762145022,0.013939728867285386,0.017191010323834004,0.03658415702364739,0.02352748936881745,0.02605363509211627
0.021679098462460862,0.017851277067808882,-0.013017286925111034,0.014225714433407064,0.013334179643284608,0.04330636242819917,0.032841384475385656,0.02975845824133208
0.018770596502247737,0.026268828592362996,-0.011120883572640626,0.016878084047200204,0.018311440454061974,0.0405634742641525,0.03721998936005118,0.03806900749859987
0.018927727083134182,0.024516617171873412,-0.010884234095370421,0.01989812960082269,0.018802265682578284,0.04182938849469925,0.029870627886834124,0.040920394091874264
0.01865520679674236,0.02322827267158735,-0.011303248277248972,0.018807835904036153,0.013508770968407878,0.04095708987449963,0.03374600410888691,0.039574005747080594
0.024798136414480438,0.02742346696482451,-0.00799716368437957,0.028044447361866218,0.02081646866079917,0.04903640393117744,0.042476302147732334,0.045411242064069525
0.021747792580403325,0.028891979518044824,-0.0069110350960693255,0.028848020052895138,0.01955112974798564,0.05472878184137036,0.04703549601541273,0.04566651674893064
0.020884843083356065,0.02304919393363684,-0.006589804248522494,0.0317634795327544,0.016927930112889143,0.04981338017147378,0.05022768805962461,0.03655907605196815
0.024371380201941472,0.03075770507176912,-0.0014105787308333834,0.0432107485026019,0.020277336731914414,0.05827939127535936,0.053015112358091275,0.03883915489881067
