0.04099810783432834,0.05094588039403386,0.09124481255278773,0.1339848490982919,0.10571896458073937,0.10345211304108232,0.11622963738411954,0.2522233448645333
0.025411336194397366,0.06913386340920874,0.05323061464625385,0.10762203870523614,0.05913703137290796,0.06937532777600129,0.06172199329821417,0.21196145157049992
0.02652446528512681,0.05331481219976116,0.07229069169102359,0.11697376959271541,0.0725410513574882,0.08288221261172632,0.08703082581784975,0.1811864891125309
0.036123089189643826,0.03168626677662081,0.08721810605234345,0.13214860659031846,0.08979482922527919,0.1285023498439032,0.12834243450717767,0.20739512333880256
0.03536065246958634,0.0353717777869942,0.07741513973350843,0.11921567325008459,0.09101517911279426,0.09931316834108506,0.09931454161291041,0.24236726691546726
0.02411292743610799,0.033668950565075316,0.05689237966945306,0.08522005189748304,0.05807698753843236,0.05474724986767026,0.0562615621727233,0.17933105549719958
0.014838014780069032,0.05719071847176986,0.05253842134813042,0.07320723660022825,0.0665172780716045,0.06235092426597697,0.05018160238052129,0.24334421331208378
0.03154180764012674,0.03597388407041811,0.07011403548069624,0.12056940948924819,0.10156356226118812,0.11244375406867343,0.11292259868335362,0.23103995843901123
0.022588991511087186,0.03597934854772083,0.059468091857811906,0.11043149312156565,0.08326958114912111,0.09838571837963027,0.09523106342248358,0.229572674720668
0.009672831223830428,0.03764269582357798,0.044649160864795694,0.07746074443621911,0.06674750240669712,0.049249258432921696,0.03752582087555734,0.2406903744288781
-2.3254307649548428E-4,0.03508546966289349,0.01437914656487673,0.04881420892128452,0.026390182470847807,0.00900813837850358,0.0013311249489342705,0.233559179960797
0.01965721202813522,0.03154594921269102,0.05244550604800619,0.08620259531357197,0.06838651281548883,0.07985575822427539,0.0631190103430838,0.24776814416249435
0.021706768622716078,0.046526946179368575,0.043254585603947286,0.09181795345892699,0.06660096635022246,0.06069494009796816,0.06375825369752597,0.2418952109880525
0.01028146629948569,0.027929661167012253,0.026521994045244867,0.06643812428559784,0.049255218619153295,0.03496215199274467,0.031345719752695594,0.23547884266733238
-0.00891515609474282,0.032673379956543944,0.01677653834705955,0.02748186695315463,0.018887626072997106,0.003922543821412443,-0.023536747449938982,0.23065780574253728
0.0016777764945746258,0.04698715922738728,0.039545477334345845,0.06571826520887787,0.07201215118613491,0.06203534935939703,0.05229404972482401,0.27320892179736994
0.016282441557647354,0.05463945467433807,0.03373389016651777,0.06745301928603928,0.06506406614267046,0.05714985572194205,0.03947945924428563,0.2760133147164809
5.946993265884606E-4,0.011577754504530215,0.011078727481452952,0.037185981269606205,0.041628554484093534,0.03516191028678292,0.00786083414421076,0.2452842023438249
-0.022211271999660456,0.021479878401128385,-0.018778468846300727,0.00786397285409883,0.004325626573704966,-0.02807634163895312,-0.03691480656670947,0.21292339567668403
0.002266916126093779,0.02639354438569816,0.01778089203721567,0.047952011738051616,0.06627079248617042,0.04974168530818759,0.03670942139176362,0.24865939750523788
0.010747368087910233,0.03139211075247233,0.019247919636733432,0.03564902818280561,0.06767904411812116,0.056937818167342454,0.034485189134277006,0.2351172191195264
0.00513665225035555,0.05303331075148157,0.011851418991027108,0.03249917532254942,0.060536374931257575,0.028656129815047397,0.007181177141676152,0.26715475468398747
-0.0126547622036366,0.024959114249759492,-0.009916765518106224,-0.01581140277951883,0.009464663988308095,-0.010022423473901174,-0.03994371479987806,0.23362852455503128
6.220224500951468E-4,0.03590890883236572,0.01421279637770543,0.04426657320577936,0.05258699704186676,0.04082267697470776,0.02152206026708429,0.20310026961376662
0.009941493551692753,0.030317057766358287,0.023278362942144807,0.047272648126845514,0.06539892736144794,0.046569894690350076,0.04494272826612034,0.2501859877697227
0.00753399560127086,0.026596708592646977,-0.010420135907011132,0.025125263249190875,0.04413514130658,0.02756708881128585,5.8539526649877994E-5,0.24666513992913267
-0.009693295335814336,0.05714251229933773,-0.017600165168265423,-0.005785473906552876,0.021388114640634115,-0.008683858865659748,-0.028752306760747453,0.2324539246534839
0.00305287222453863,0.02742603447320009,0.019426490910029025,0.04786745005568085,0.07333117188089026,0.06125049115106676,0.05469092214202531,0.26027727213243085
-0.00437976405781027,0.015294523988218624,0.012560865266685862,0.03557576897428632,0.059632763991664,0.05798256567645006,0.02843009958202976,0.23738873529891308
-0.003719564487377197,0.02690245109863878,0.004467816024299223,0.0450161010603076,0.03760291913903082,0.03456737757094474,0.021225281490395296,0.2299753778780608
-0.015041557540677226,0.04282475290455836,-0.006120420433288286,0.01049191923090182,0.027158706789938647,0.00915098869017609,-0.01764392764867933,0.22114890213327226
0.008329011121594473,0.04004033111923399,0.026839230929804597,0.05112597185377983,0.07599739128059223,0.06962505852107044,0.06547554221545339,0.21834527293482608
0.003353955955164963,0.05065884970748751,0.016537104746431976,0.041521054889129556,0.0706005772779179,0.05621533758995694,0.0443847671656206,0.19029385203449545
-0.016289872922239625,0.03231079265190564,0.0034810210218253427,0.013959392467556134,0.02962775492013689,0.016317585271857133,0.020245469908382094,0.15936134418929726
-0.01580863056467631,0.02544418555177559,-0.010486581322981072,0.017941392871292396,0.02823758560239827,0.016785145597861567,-0.0033504663990233394,0.12520164730405506
0.008623917016611696,0.035256443677846035,0.017662932072151773,0.04485601602698513,0.08465124226129525,0.07949101533525942,0.0679653248427543,0.21978268021468841
-0.003422837949629549,0.04621240926552926,0.009532018007250946,0.045518664900348615,0.08351993296921938,0.06299120048168205,0.06610526441792962,0.1966418691779853
-0.012869423110041366,0.029858562762557606,-0.0016341808253247372,0.019507067207654123,0.025036883968067396,0.02976849738556544,0.014618341420825418,0.1913257903678377
-0.018426867487779903,0.04486457035159737,-0.006576507984191649,0.006573077801095576,0.02074121270605455,0.02783185889193806,0.00243284590432944,0.2151619685369043
0.0011597532285112437,0.03585255581169062,0.018587653909756145,0.031389093978769024,0.07936680284054887,0.08508737741639952,0.06735836060252075,0.1608244502612209
-0.003838097379887739,0.04922455899764283,0.01769045544596322,0.008590267343024208,0.06945673473197227,0.06023115364007465,0.055927752313078956,0.2324538813990772
-0.004521932642791036,0.046600192563004766,-0.0029728908165475836,-0.01706021371756939,0.028052226726628125,0.03612002585745898,0.015120556192419279,0.233396106599592
-0.01933364059043996,0.03645449378079023,-0.009284930919837462,-0.03054110728496358,0.010188370776136458,-0.00929189637015907,-0.013786153048470081,0.2247591260757324
-0.006895576226682782,0.01182199196581131,0.019933758086422962,0.005042913883642657,0.06528889152765015,0.06684698685539389,0.052688329946605654,0.19255876779184314
3.8494653219940813E-4,0.0327557481067947,0.013517597931300624,0.006417395083392897,0.046909131862496775,0.04842323639158493,0.026529245197633358,0.23276869965878305
-0.019828971223277706,0.013557316308409381,0.004889086519035685,-0.019562870834771304,0.032493561836970886,0.01643072334542392,-0.006498703636043972,0.22214066011529413
-0.03101899982710565,0.03582286925246432,-0.01469580249876063,-0.04011202443681835,0.008963825317952012,-0.00658679655995942,-0.03195300699600391,0.23572754558922585
-0.011934279334825658,0.012743533723915268,0.01607832047445493,0.01688207779352717,0.05842512798783177,0.03646330856640921,0.01828022215616889,0.21240825082485437
-0.022264535162251842,0.014442220879504539,-0.0012952293860345441,0.015826973708661145,0.040683485930860595,0.021021195901775466,0.003831051628621099,0.23812950112848924
-0.029333820240668645,0.039487742466511905,-0.017610972616306272,0.002578431510404179,0.011677469955494563,-0.017722590567209665,-0.03401881191517421,0.1801778813996729
-0.03718221191021052,0.03281296996813654,-0.02873762796700796,-0.015332231586268789,0.011123234203929988,-0.03735988456298022,-0.05265026949490412,0.19835831414749328
-0.01885210613079406,0.03457185286847041,0.010867252625122174,0.036183617315007105,0.06288732323268148,0.030107986288081902,0.02103050283190115,0.21377909790396785
-0.005655820519528043,0.02221182415933946,0.0018103058604642798,0.016009485403507058,0.035238712118899986,0.010846854180207022,0.004023858584614194,0.17599402920435192
-0.027028992789348397,-8.914977969898255E-4,7.218468398900381E-4,0.003893330873732899,0.019194604051822026,-0.007098360297716236,-0.031743555372246886,0.14051894693405287
-0.034539576052944165,0.020317729266321957,-0.003638673219568204,-0.012810425195572916,-0.0022312335121157088,-0.02692136158905991,-0.053592465339821954,0.17053244830170766
-0.013268584252436972,0.033849582900127566,0.02863296074216068,0.022958319267534708,0.046962548624222555,0.03281053056778537,0.020104561603400444,0.18870850534693415
-0.020873275116165248,0.031962331409308084,0.014128380577209726,0.02027961970963267,0.05658045980719054,0.012398526748865765,0.011581434073339333,0.20673596686670542
-0.025846093906005046,0.047094241081755805,4.782742217363578E-4,-0.012870705847517509,0.027555400146037277,-0.00629234586968347,-0.019761482033848133,0.24881914667875876
-0.021097427917775448,0.027308759928888055,-0.0034737564691632423,-0.005241772441936265,0.008632361563044689,-0.01598600253388107,-0.04099689057840766,0.2172523066850218
-0.005845559465604873,0.05034176052187533,0.03055260898952555,0.028027919838654394,0.07026983997237511,0.03480782040171106,0.01714835457641956,0.22195635147135612
-0.007599398205305701,0.03214205764168754,0.019658973370719295,-0.004095436241280606,0.06049405925445912,0.018854950405995965,0.011197330191655756,0.24948989170978175
-0.02145767332040502,0.023579871102330056,0.006487798971353593,-0.030388836798936444,0.017803318073380325,-0.012849857867897847,-0.05130095901938625,0.23769646058934354
-0.015528382284340158,0.03389724440589819,0.009228679130117688,0.0021256635599829605,0.025896990590869546,-0.002796715395183814,-0.022153147763840406,0.20379156411814345
-9.4996023256435E-4,0.01959578558483651,0.0206826375554888,0.038990620764134676,0.050898595118435516,0.025250665295070394,0.019492107935918806,0.18622321944565237
-0.0105062358877773,0.03125343314249026,0.02110062631943215,0.025119210705346524,0.042082928017802335,0.008572100608053254,-0.011873927292189945,0.18994836359372155
-0.02050803614275168,0.03772072292019581,0.0022937634202172775,0.008936654819120253,0.001602707007264291,-0.03179410003043955,-0.055769164749283284,0.2554114010132234
-0.013594072389231547,0.053684773504223855,0.01964074252718493,0.046357621207074706,0.055286852242752114,0.024786372876555465,-0.002311777543242816,0.2106398883467008
-0.00259966120536786,0.02008941464411078,0.037720563880455506,0.0660956066464759,0.06984063833973925,0.044165164582291354,0.02966646739402597,0.21649494219693408
-0.006548934476520763,0.01521262957350895,0.03223414447005194,0.04316090303650903,0.053303443653909086,0.03373624575574539,0.008937273245315262,0.18501851215277096
-0.009521568237344099,0.020489109447478403,0.010918136954042293,0.01925588875284761,0.013962434135654686,-0.011928099987572004,-0.022882946387442836,0.2103699814600346
0.004168857654238277,0.042719242799501254,0.0436735321124718,0.06897140343109577,0.0665681407885402,0.05622695803790882,0.047099901203654364,0.22744497831330826
0.006082006499487355,0.04375333081126235,0.05140747166935368,0.06735898367330634,0.0807990172233721,0.053664500060595706,0.04963870349542447,0.2168444742527351
0.0044149986455564024,0.02191081023180517,0.04716444308817856,0.04958553834620781,0.04172235400050535,0.033962921100086106,0.006686677144374759,0.21771285733067222
-0.01180519820645058,0.023834831084177534,0.01610680177468763,0.023451985546016112,0.011492355824104492,-0.0012985735529537623,-0.01313677566068086,0.2121119921880002
0.0160901908591002,0.04485668614453376,0.05220159695193404,0.07520875575475822,0.08056253716492282,0.058291496537756574,0.03903584299112615,0.22529392414086905
0.008833087498055031,0.018601599946967768,0.058981729754507585,0.04915749633480811,0.07505859595054602,0.04601200197597921,0.03819102224669238,0.22955495297890233
0.0031459444780718607,0.04948550082471007,0.044814272792532674,0.04857673933160757,0.03797217003673687,0.0245699269723484,0.014110654024571389,0.2573246657499108
-0.010503796958097862,0.012783499811038395,0.021205034366252755,0.03449572031235953,0.03778994362911288,-0.005452938337442518,-0.014954310307881613,0.19950980084152226
0.004230079167722475,0.01757296189918229,0.05034030253321326,0.08666363830253478,0.061743540351863996,0.056492127343379904,0.03953102386526307,0.1981389737339218
0.0075952610461393595,0.03134580771480882,0.04279656614645705,0.07645232169666297,0.05816203216306844,0.0358021892984765,0.029355453624848468,0.20937110281044802
-0.0066329620649912555,0.03429367209705102,0.0316953836260896,0.054545976338547526,0.03180167326212392,0.008947747430886638,-0.027368472826387356,0.20986249930835743
-8.169004693229742E-5,0.02474939831708551,0.03464435688541445,0.04867576043369994,0.03340160375670998,0.005339079027731212,-0.004593730458803244,0.2406074250113698
0.011417591466461667,0.02816999484236664,0.047691676079829486,0.07034660584980061,0.06501859119980594,0.03782781490649973,0.029588790140986695,0.21759195383080682
0.010764613271110035,0.023333677288421915,0.045949071602034666,0.043962722287352395,0.06265231091442944,0.028012241735583386,0.009567748657334342,0.15974492995500086
-0.014429469857013029,0.024155704873228972,0.03261243160845635,0.04762605977428875,0.0278627435112192,-0.017684776502421784,-0.03316995155289514,0.2069922794512077
0.010398717903057193,0.041514738415120586,0.0417074113069499,0.05616625911456671,0.05487457565827331,0.014438391722202081,-0.018152658734830705,0.25765336251905097
0.02346646359811714,0.017032697949437393,0.060058635149402434,0.08280176641030029,0.06521950442132388,0.03885846710088428,0.016757640070335388,0.22800136790547348
0.012975585175963412,0.003788078559814235,0.04499623296017534,0.07002422855511348,0.050053967088365334,0.026926515782192986,-0.008048732482643216,0.18800623271067726
-0.0037421001438673386,0.015984176759663352,0.03302899274237197,0.04520789709020392,0.021955418714433697,-0.01409021308833538,-0.0459834051351787,0.19027663993040259
0.019108364418586644,0.02301377741090223,0.047508160893991236,0.0744196915634206,0.056248603731051665,0.020510054362338794,0.0042442712024472265,0.18256228348792317
0.023645206328775023,0.04887236776025131,0.05636861096972096,0.08227375879548499,0.06456186744915739,0.025857698992818867,0.027182677482989033,0.19541144798243593
0.010537908657668835,0.03940709556714169,0.05341415440563516,0.06350736660899131,0.045623673626227816,0.013967204424468018,-9.814448667599955E-4,0.14992952740612037
-0.005873280593888058,0.03271662120969572,0.021319550337425892,0.04564108288932277,0.010523793673348525,-0.009818355792365943,-0.03277298838691208,0.17497007833096212
0.019254371587908412,0.03144058418794479,0.07252379417762067,0.09403301939841306,0.05668030891395532,0.044554870614992054,0.031138806886163623,0.18290328794479432
0.021541589419153285,0.03808762165672556,0.06908873953965215,0.08816744011762957,0.06857795516654054,0.046297196548034,0.018199318354607318,0.19190532792770545
0.009931725499427207,0.031439181997983755,0.05341095395532149,0.07135080127181154,0.05328785230843147,0.018567020470343157,2.6254155819286818E-5,0.16112767106895787
0.004656886805587877,0.024828260448888702,0.038391392967059755,0.05512021879528864,0.01835908403654668,-0.0025267128713654897,-0.022926429376287222,0.22264557824446712
0.019070516510134368,0.036493554803387535,0.07294008852824498,0.09845297456448177,0.07083810264736796,0.049806169894349224,0.04562816277513495,0.2487523567702706
0.024713735224354515,0.024341374777801378,0.06956032558703105,0.10135191645053018,0.07258369326416701,0.046546411113738036,0.044621927048004315,0.25753200695656064
0.028670657969259303,-0.0031002070614036376,0.060569413626156796,0.07786564433475489,0.05967660150920548,0.024462192627441672,0.004892846136099995,0.2965025793557507
0.007739541049875597,0.018787674882785436,0.05174125276400862,0.06485562272209083,0.04625688912167481,0.01170755640216458,-0.03147579860826358,0.28472552734024115
0.021563639679176922,0.010786047054674048,0.07093771648293322,0.08511785295209008,0.07153151437028246,0.04943453965554741,0.04142117359791484,0.25036134179734804
0.01639799910118874,0.00805235798760475,0.06539320629961941,0.09168919984981529,0.07011170539863294,0.04592640853797443,0.021216443438889336,0.29518822847924797
0.016818766122723754,0.013290856030432523,0.05021986902714748,0.058066557447131587,0.05134907538551387,0.015515358470964519,-0.008182800745911451,0.3166609321653654
0.018353357285705987,0.019387895404306972,0.04530714498049542,0.05412770615442442,0.043130140464962656,-0.0028275394891051253,-0.029987269888031808,0.3632284045447183
0.03420692835573891,0.03865931828473943,0.07111691351080475,0.0847109401145449,0.07240253243735738,0.03533411103600743,0.015904015686737057,0.3375879328954365
0.02985701375480222,0.013828529693555568,0.05310334025088813,0.09353945485788358,0.05330425977607306,0.008619551058664179,-0.014382269053017392,0.3290639409968612
0.011803112327973986,0.023818037724073832,0.03586791794244641,0.05578541372860763,0.027792258942988205,-0.0025042276462616695,-0.036917793294987886,0.2936506832425047
0.021000692068276008,0.026628221076738023,0.03825636623466173,0.05878990681421129,0.04168216049422577,-0.012478236671582106,-0.024702906939323505,0.303057891838708
0.03147060933506363,0.04461894165980298,0.06369129003000014,0.07430428506803768,0.062382226905251935,0.006671221291382726,-0.017234810319068986,0.24476419465760402
0.015351520040735723,0.05014482052866374,0.037621911187888664,0.06274253210791172,0.04516392795632362,-0.002973413800289081,-0.03315556381429925,0.28076479533731724
0.012670046259105847,0.021213849352310958,0.02063957166607151,0.034913707070329966,-0.0014651071080631927,-0.04845556696702154,-0.08261913504494273,0.2609945896158689
0.01860396850490558,0.0022217184861312773,0.032560081746439394,0.05570789961031038,0.041726438962024846,-0.01101199857597324,-0.060183733499619786,0.2921697540239245
0.019400553711106616,0.013287504421829842,0.04616062753386733,0.04335621398463308,0.05227934985304583,-0.01016228831526815,-0.030863851721723255,0.28530124749237673
0.019355348503724217,0.015090122223851112,0.03340007998594083,0.0342804213693206,0.040717904953155505,-0.023051438815852986,-0.05726552456064173,0.311151982727829
-0.005148360551097409,-0.0035913348743737976,0.019534144119706633,-0.010324586884020052,-0.007002091711138013,-0.06959366067092367,-0.08985860323482588,0.25059068472485035
0.012125511796828591,0.031242669645428007,0.020122615613423555,0.030346060562463185,0.03349584002075148,-0.03631571385203728,-0.06488475134638315,0.34216129015692326
0.014592430940678046,0.03533880700800424,0.023564354266562063,0.035729845687217245,0.037768341125063186,-0.019029192613659766,-0.049400402663322046,0.32780029774770353
0.011751340214515883,0.029737810584982476,0.020325514233588176,0.019966507324855658,0.02766847074204632,-0.03769097564141741,-0.07340100000336815,0.29158578116985784
-0.013973261639353075,0.017078362617048898,0.009321693982204504,-0.020969490390769653,-4.265141140365707E-4,-0.08154638439580776,-0.12960952510916798,0.30307738882086316
-0.009219732984536872,0.022168232318462527,0.006878246148886498,-0.01905728697337592,0.027630373867445244,-0.05257185767539907,-0.0960478680946141,0.3012891216272013
0.01594423304834935,0.0278850876962547,0.012139455657306187,-0.01748715084479799,0.029000899751959932,-0.028372154860936416,-0.07690727755117818,0.26626776658292733
-0.0034468096638196077,0.03440199261441643,-2.6629019742823123E-4,-0.015160554443279862,0.022114722323956004,-0.05066914076554787,-0.09049710659744863,0.3187097827694653
-0.019582998841633985,0.021935066510201454,-0.009753419192291909,-0.04978125926715505,-0.015565836893401082,-0.09210501423961963,-0.1355484686672602,0.2654325456381621
-0.020802977547079323,0.006828229030342057,-0.015548445814769054,-0.02555738562290737,0.02011430295391948,-0.05744375278428226,-0.09029721748678833,0.289064891627083
-0.007919735909510851,0.029566430100728368,0.005351363039872088,-0.007301830074709116,0.034293207320187646,-0.027637215744093845,-0.06409166485471415,0.275829036496888
-0.014949791135866695,0.017587088622927568,-0.00969291021773625,-0.01432807719561827,0.029191506537889305,-0.05547516755913843,-0.09387897404433838,0.2533507695240445
-0.016757539268347426,0.0012685756634722514,-0.030910375455627786,-0.05191420870388698,-0.01510106573856903,-0.09694934632648525,-0.12563209329256372,0.2747380988230857
-0.027007779267765614,0.004875614685431432,-0.017143096373637094,-0.022949613262655384,0.030443802092532817,-0.04864597566292484,-0.08215565395474901,0.2887630421286438
-0.006560000722815531,0.008924374487574712,0.0021074071841736576,-0.004645296760663931,0.03825685971233463,-0.012745736519190778,-0.05664623125170279,0.2803447251084936
-0.008531654556619772,0.007176935011389039,0.007388364153148443,-0.007794661132608011,0.042486466522934516,-0.025937475258354565,-0.06943848065610489,0.27510396315555646
-0.01670236170236721,0.01775430793918707,-0.024942177329427533,-0.03738038974606675,0.011692021993659464,-0.06951611405498316,-0.11452933558636988,0.28729797586486067
-0.012098757431027703,0.029276165276606897,-0.008455485691811013,-0.012339964945598692,0.032530965977137984,-0.023933869615508065,-0.056291778836272385,0.3083955102962735
-0.004239341406130811,0.02351696846679372,0.0038172206450970115,-0.0010786485892724487,0.04910684301461361,1.3147293484567306E-4,-0.046155276139882365,0.2929010254011846
-0.006950932573051241,0.018517563625274604,-0.0033344114419667057,-0.021866214598599665,0.029388932916093534,-0.01697117872528868,-0.06536279584754508,0.3165230595644034
-0.02431455487579916,0.010435282901297294,-0.024905256373136096,-0.03728696866750413,-0.010952837054972943,-0.0684464378109151,-0.11754984514338233,0.2511955891560178
-0.017157988308280785,0.020270638228432787,0.012811317167652011,0.007095693784623739,0.036288233633217606,-0.027556764988938238,-0.0414490395065131,0.2634741543736172
-0.0031149552031797955,0.012873917352996023,0.012275699130735644,0.0021104587567044547,0.04418211973583703,-0.0047495457852135175,-0.05744433288215344,0.2788617909879229
-0.01215940465906726,0.010623615573809017,0.002985112265353392,-0.018759679605550767,0.021524671947614246,-0.034830767104056505,-0.07349239266108056,0.3097695057328529
-0.02837725480590018,-0.011161859548124436,-0.011212727038993961,-0.04653122251188739,-0.01010285873854674,-0.07138846356097406,-0.10761358814979119,0.2746588804393774
-0.01859604953926837,0.04100888180236116,0.02069072389593621,-0.013522090010962478,0.04008699124578189,-0.007019800575069546,-0.04123630694650277,0.2846929254392744
-0.00959101338683381,0.038469692960801036,0.010411555577696333,-0.027135198407538526,0.025791796230487267,-0.022165990072420195,-0.04931109380843605,0.32448798768085824
-0.01279992587205007,0.02528682063156638,0.004134081408870681,-0.008077332798967253,0.016984025726250615,-0.05101435563225406,-0.08479961703107064,0.3403237379693871
-0.030352696224939434,0.020967313199155912,-0.007954790619184653,-0.02979712115118595,-0.007961307845241385,-0.08229153479240384,-0.11441356321903406,0.29264107858784616
-0.009951448819272825,0.014069645398604568,0.007066791219665223,0.009289903386373857,0.042552949009913216,-0.01747230189018142,-0.0470596525305474,0.3554182550195359
-0.010817679875324403,0.011114874815360236,0.011964340580299106,-8.946670052781395E-4,0.04439519978344565,-0.020737150613304767,-0.05030087022022812,0.3182268027800371
-0.020559177778365367,0.01519354626081364,-0.0035499926869140773,-0.017765239143883692,0.02567660741870425,-0.03915505994511075,-0.0783381751703103,0.32015811392015414
-0.02416815606236501,0.020103690333898604,-0.0052031728358704924,-0.03573674288951739,0.007490473178844541,-0.04454182753643493,-0.08049037504417028,0.30149485877026133
-0.007515247057987657,-0.0025319758517360655,0.013786869022860566,0.01599542740840207,0.06622156995051973,0.009082729387655182,-0.02472346717414182,0.32426711251601453
-0.006988289513057781,-0.0022462106469208934,0.007993369370151536,-3.4802040575102684E-4,0.04504814953982339,-0.007852425010715062,-0.04174350135246809,0.3079446068222698
-0.016751760189656264,-0.0055525112085254655,-0.0029012214402449475,-0.028472758142515233,0.0055319329238234655,-0.045754319716558134,-0.07238048674812653,0.29272066185711454
-0.02292033082982888,6.728233313676012E-4,-0.008148746647011925,-0.02163060547800013,0.021031770758261473,-0.02170513233748894,-0.05026062398806578,0.29327462491191375
-0.0071153106042793285,-0.012285722110218247,0.02351785251944372,0.006820030565210618,0.04689345000428999,0.007251350944512128,-0.01793411772566027,0.2755766411094289
-0.01799554789183088,0.012475754852721775,-3.6915340929026487E-4,-0.03155301815045063,0.0459929757904439,-0.0020540133026750724,-0.01636036969677961,0.27613945880280555
-0.022072712308822427,-0.006629011307050402,-0.024830130934603692,-0.04407832854325869,0.01379791452538647,-0.04058109803598532,-0.07587153145523914,0.3229420671654599
-0.009423274026925287,0.016735769130698522,0.012889123773751829,-0.0045297320919611755,0.06615390862492149,0.016188651164613422,0.0036809115647302784,0.3275521610160909
-0.013594917393472208,0.0024462180821691755,0.0183392353832686,-0.011314994051781043,0.05463913638731416,0.00650140938581288,-0.010774662723250795,0.3179048639809292
-0.021534573990953654,-0.004909494387893483,0.0014326928589629107,-0.0358651372263425,0.04368056795863961,-0.009578992140731726,-0.03660830264468951,0.32516694762713555
-0.024509500541046753,-0.001140370427187319,-0.014677278110541281,-0.048131245371809295,0.021868295115032306,-0.02530296540643695,-0.05068918730474637,0.3123123779633777
-0.005557353977396263,-0.0010746989513975857,0.006118489341032035,0.011579722283128462,0.07405190506770773,0.026362158372058506,0.016226049084063967,0.3391147601307092
-0.008553166415496869,-0.0047359428679148875,0.014235191849663969,-0.0030901588654553883,0.05403288959131051,0.024326331654850625,0.008889666982085173,0.3236217841725615
-0.01768330599035774,0.0016508847742264462,9.332300633348779E-4,-0.04315278423156173,0.029606408789985456,0.004585845309217311,-0.028929713942418646,0.3147104115968805
-0.014149531318523563,0.002847221394771582,-0.0011227883164668453,-0.031066092595859685,0.05231020968992483,-0.002099909022388542,-0.026363864922298304,0.26944317926384376
-0.006533507196766507,-0.007092198175969841,0.02128857238270211,0.009697939759679334,0.07530337970054564,0.04882482557576869,0.030683227833645473,0.2954560959939126
-0.00550345406846559,-0.002418675542033707,0.009642665563426902,-0.005668055997418333,0.06807454319843906,0.030427804448693543,0.007390679002460954,0.3271166107168822
-0.012254234887853632,-0.019045201582657295,-0.0067085054802900005,-0.02847493364721357,0.028617461745813623,-0.013892910473947227,-0.027069430429309437,0.31042310320735034
-0.015974239073309623,0.013196639056896078,0.016552181873266698,-0.012842047942674378,0.054811999464641645,0.015372207137814363,5.002786666831968E-4,0.30493324842186814
0.004088372734124363,0.027226524249926314,0.026147856231312862,-0.0035923697489639054,0.07692400651523901,0.04093922029941282,0.032960639617079526,0.3468732771941312
-0.014980363242467204,-0.003900269790522332,0.010023173166083964,-0.004188387376047403,0.07007209227565604,0.03871366302734488,0.012838036534427472,0.2901178721116407
-0.021385138212074543,0.024126533147525806,-0.011334894495675946,-0.030184732690779346,0.04263629221740111,4.223563666989924E-4,-0.0318936397548923,0.2922853319464456
-0.009408904129023501,0.025277491813126815,0.013966024074394595,0.012605675360352465,0.07302721294598172,0.05613087909885544,0.04846578818888497,0.22681599982463116
2.5994997374017393E-4,0.02029775513678706,0.019908856180923903,0.012803361316100294,0.07482457804530683,0.06400496283590654,0.028665244172027197,0.19982625248586078
0.002584898265209338,0.04020344310376152,0.005163407734607046,-0.005627954358928981,0.041477726717678125,0.0254017439069466,0.020789877286560635,0.15882532716218725
-0.005148767486047465,0.055493994516558676,0.010781980006032806,-0.03214652025571164,0.046136811188747115,0.023192989668277698,0.0017839392975664502,0.1666895639506096
0.004355894343112186,0.05505220024232322,0.041189808125461046,0.03396357867700174,0.0928219113597097,0.0806218769085873,0.06477807028905136,0.1699830682607404
-0.0041449547909879056,0.08180029154528436,0.036161821963443405,0.01786324314023688,0.08276462815496975,0.07846492525276584,0.055901623959894745,0.17627855482920426
-7.454411445594596E-4,0.048827780344482805,0.00804653790332137,0.0025536523822306217,0.04656692669478588,0.039734590507637134,0.018347810462478964,0.1488023633667073
-0.001232966653900123,0.05187391104422976,0.011183074170605573,-0.006254076406512765,0.06463895482567189,0.05869437767349416,0.049466207793395944,0.18216994688009233
0.007534434031803747,0.06530105621417166,0.04261215814868928,0.03363367217152767,0.0970692539285498,0.09156245582403469,0.08350475664539236,0.20659968086066816
0.014669537121194407,0.06567882292153161,0.02196912953344923,0.004137783935748651,0.08147671874151977,0.07249735649171507,0.06670002760427296,0.19600560611028714
0.0017147479438512877,0.05317046931934833,0.002959225349399036,-0.02111401719797138,0.050147009596616075,0.03974003735869632,0.01592551133352261,0.19327364570906772
5.405252501028853E-4,0.06325280839474451,0.030044826718889514,0.02763285200196188,0.08714532041079945,0.08629438668021001,0.08172874825475587,0.21723812534495582
0.0041613914945052,0.07138192637364947,0.025384889679804606,0.012704984005594451,0.09473523248538199,0.09213889168719964,0.06621728308025575,0.22700677606088007
1.5819816212523443E-4,0.05578178081445618,0.013450051565851105,-0.009958946072824305,0.08117155750471716,0.0660924635761426,0.05300496428433778,0.23325912140331795
-0.007919439838273428,0.07639192631049449,-0.00602780017841481,-0.024836598219272286,0.05896008140402006,0.042714016641716084,0.019853691323945558,0.2116195009725796
0.008069257889320036,0.0673093107181827,0.030881014848314934,0.025864926749969767,0.09439255429090038,0.09904642262464504,0.09246027806606005,0.23157025506135603
0.001969196193968221,0.05488577497686597,0.02322386580620595,0.01970627294394736,0.08502496005896018,0.09188227586797029,0.08853262348916537,0.22090987316871208
-0.006922726391292227,0.05979878958410781,0.014967081122227277,-0.002455553365101707,0.06622576751275053,0.049916642553164345,0.03780177089190644,0.24998819317287455
-0.006942470723070422,0.05307516001010158,-0.0033274523328004975,-0.0305387304206937,0.04315752706840163,0.05031013869416443,0.040077272541754354,0.2293409116286706
0.0037117269945953725,0.04802162182241956,0.023135538922841224,0.019952253783105466,0.10142893833813904,0.10330488381264073,0.09139362204294399,0.24523227615172816
0.002349466497423007,0.03624919896791169,0.011391353428546984,0.020640049915545005,0.08859621436788735,0.08698558717831484,0.08289059068178332,0.25018298559930907
-0.005425000932520237,0.0788437638936817,0.010188810243374698,-0.011390185866233029,0.05654696885498566,0.05590008499978008,0.04004586870966598,0.2633875614865538
-0.010123493487491022,0.06477355152030238,0.006591015906295273,-0.002095272024579024,0.07105756421901635,0.06932369449321785,0.06337485077046699,0.25424264411655306
-0.0010543883512432177,0.05358606014258704,0.035512184609845954,0.013886999479835134,0.10920778946206622,0.10057119311530968,0.10102038412362632,0.3463290624318776
9.235469751013778E-4,0.03435263624299135,0.01770878759311055,0.011261161183426582,0.10013812839380462,0.07489428755837363,0.07241612129990878,0.31325113535191595
-0.01281744552905236,-0.0032352404530826325,0.0014482822102069059,-0.018933660336571213,0.04660317876150501,0.045076102209189485,0.04167164642931273,0.2070116039107206
-0.00986733690062723,0.013522702508136057,0.0036142363178063067,0.008184675511828955,0.06593563473262118,0.07412663428158665,0.05089200328284349,0.22744356494634355
-7.18162255195278E-4,0.013721820810899088,0.01660022071940225,0.03266616796608894,0.0941766959301209,0.09649451223040675,0.08867094018661772,0.230206910841162
-0.011106788089630183,0.02896281070649724,0.011676245260445207,0.020674954627272552,0.08111680957452776,0.07565601831889866,0.06525568647506133,0.25167850039545536
-0.026489545811718994,0.030808587758223892,-0.00719220899515857,-8.498795468168601E-4,0.04041156759982516,0.04834002536676133,0.01770736019192932,0.23461839645636473
-0.0215299396828304,0.030016038055257554,0.002634846477909256,-0.012477197523485445,0.07797756303410794,0.06094690945593462,0.04605285835270761,0.27802249254405587
-0.014509726150498739,0.012309683021983837,0.020145252844912528,0.0016199266093871701,0.08052869911869773,0.07564140817192261,0.06189756507086694,0.29838198129112986
-0.018768696532997186,0.022052280614202394,-0.00833171066101295,-0.011503583056474836,0.06081807044864353,0.048455037639632194,0.03016023840746264,0.3105406889983004
-0.043877310294509746,0.020043500477963338,-0.03159418773427322,-0.047942435567218895,0.018840079536079392,0.012666989554703854,-0.020076867996386687,0.338828758318766
-0.030379178371972494,0.021496343978437086,-0.0016790512829052088,-0.01356986460871255,0.06874014481580076,0.056767864125252844,0.030672756168345017,0.3025110644675706
-0.023083544918766494,0.013529283942226356,0.004287823244514684,-0.011361795728708607,0.061327825261339675,0.06770239903664149,0.03477959343049707,0.27189533685117756
-0.029918215939971782,-6.1168461041088E-4,-0.01844959354219615,-0.034761066654930985,0.04926290986595122,0.023267750750693827,-0.0035929073691570086,0.2853195020457709
-0.043356705333200365,0.008349469299982374,-0.030179978045723983,-0.04484509950872694,0.0069051036107600616,-0.004270445454888452,-0.03996496130105585,0.26450329361998504
-0.03468716221287455,0.025763271221860173,-0.013035721319600645,-0.019609125836030906,0.08311997927071768,0.06018136299488233,0.020463648935748438,0.3044767346507802
-0.02716947617737862,0.01534081156134569,-0.019584988562735214,-0.012307334869793128,0.06185813896347974,0.0475527306163116,0.03237746381929399,0.2669627447344249
-0.036076591080091695,0.0418429469089581,-0.02866709721086416,-0.02786777610469527,0.04149163512833944,0.010893979706768423,-0.0074702320233647965,0.2727458041674495
-0.0544191027340888,0.014952642146874237,-0.04414170476982637,-0.07033672123313843,0.021495784492165215,-0.017789178205595876,-0.0573686930346982,0.2786793999412431
-0.026878087572391417,0.024078858536739453,-0.023120911365630905,-0.026522231479619744,0.050782872741940654,0.043050838350030325,0.02054680133364746,0.2573050126791847
-0.04252348234607838,0.002362754934134256,-0.022011157174589437,-0.019582958507510403,0.06915065320026384,0.03228630603295972,0.005743371039679205,0.252896044926122
-0.036951262647667814,0.004265164609777476,-0.040252741554460174,-0.04519773302782632,0.02998527775956184,0.012573811151855272,-0.025438320532216858,0.2282909901889075
-0.04921081796833178,-0.00848250548853976,-0.05309599593514659,-0.061055422821243197,-0.008295092778474726,-0.033684703791316224,-0.06629538260623591,0.24150177153351896
-0.037599980602461225,-0.03455347665727238,-0.02113799183354229,-0.03911469610674004,0.05244237318040542,0.01755095453700767,0.002322660866528721,0.2975843482117835
-0.03326122167275985,-0.003546830231294646,-0.038004734466376956,-0.02754813418516346,0.016796799338527214,0.026778327150486354,-0.021752963025399696,0.2032393274738928
-0.03962405673428807,0.0010770130886906422,-0.04209508536581392,-0.04675417117059916,0.012772768849090406,-0.01815886633805517,-0.06627616424237959,0.28418403563366096
-0.0673709760393129,0.005300284697911125,-0.0607873242645207,-0.0763903399981576,-0.02076028538671529,-0.04803219161026873,-0.07861842067309133,0.31305623194562515
-0.043405501708276194,0.0023235719359945973,-0.03218740150885492,-0.04903527247397554,0.050050791167205795,0.005486412575893985,-0.0296084277097858,0.2730860293165919
-0.049653335469592594,-0.02785916090474403,-0.052533729876231915,-0.052178402567798855,0.012975625278958318,-0.011903357989289636,-0.04878666403573382,0.24067870972101219
-0.06374461417054632,-0.037635257197572665,-0.06128786506428957,-0.10261060870680032,0.0076064171170583846,-0.04921339301173046,-0.07350493987476123,0.20404669627141916
-0.06810479944210916,-0.019832630833336726,-0.06448756060877175,-0.10425217857474788,-0.007314982185555096,-0.07017711816096638,-0.0812946081677673,0.2760739112939369
-0.05837441844325781,-0.012093625202335928,-0.054329764269362445,-0.07184550331745018,0.04265190505156025,-0.015823399812215058,-0.049399393871626056,0.24844010435254255
-0.06343262936870876,-0.0156191340263345,-0.06170842212767004,-0.07081917921019007,0.013995186142375021,-0.0255020925152001,-0.06205645775024988,0.2536333420186053
-0.08015962113977677,-0.020654251269392274,-0.07221213028643503,-0.09628405980490122,0.0010958187588612312,-0.07244599450881146,-0.10404915030106761,0.22905832642880322
-0.07168611475245203,-0.012200339603111418,-0.06820890930405811,-0.0844333004089769,-0.014008102379219131,-0.049931393592652494,-0.10051118867502187,0.22256479353531475
-0.052246486886522454,-0.030760928655371254,-0.05102881667084307,-0.06330059798608278,0.030903712017707398,-0.01556823278434508,-0.0394300785064782,0.2543772407576801
-0.06459916841912448,-0.027359642252971002,-0.06333511491368868,-0.06683985212333898,0.0048837371897729985,-0.027772025288232555,-0.06622354525096867,0.24197489310109382
-0.07108282632358864,-0.022465894706437936,-0.086772991989055,-0.09331309432231677,-0.02490180686264381,-0.0676061859263744,-0.10179110213107037,0.22323678882709658
-0.07035173711068667,-0.033496002275504186,-0.07498715858039474,-0.09406456072140584,0.007612339662195179,-0.056308399994482485,-0.0679077815349382,0.26331829276419166
-0.05733856300772395,-0.0234262091360209,-0.061682121391813435,-0.05803214086827993,0.035177232939493756,-0.006120071358078806,-0.03826506873221469,0.2392133996281687
-0.0610578598596552,-0.05067269643482043,-0.06783870400256697,-0.0868765824811683,0.026739040372532417,-0.03268018852995443,-0.06268093399869609,0.27986126198147654
-0.06824064257253336,-0.012215162214132737,-0.0733963323931871,-0.11830522191674883,-0.008251053066549925,-0.05955246065479258,-0.08285151350300453,0.22968435774922713
-0.07097096080661369,-0.0711956842346492,-0.03395804827767041,-0.04862825884620423,0.03360926158422285,0.010497667485296942,-0.0246926005841559,0.14181276946850865
-0.06417599971105267,-0.04785955543785132,-0.020794748718743088,-0.015457539221929934,0.05559393686794946,0.033184364931290566,-0.0218503663424756,0.22873833625680523
-0.07240385854160325,-0.05782241059349337,-0.03849773961372202,-0.024063646403412048,0.03295038658768117,0.00426189555459721,-0.046151391871558055,0.19818397142192137
-0.10005896707966629,-0.043583809303250697,-0.060839556477118535,-0.07476639766035088,-0.00758130237327721,-0.04229376428102571,-0.08719926937027954,0.2050411989549096
-0.08162548484553192,-0.029823076809849393,-0.03729601936173654,-0.05384621982430467,0.04806507412660622,0.023458445476255946,-0.022727468578917307,0.1694605592880593
-0.06840629539189172,-0.02559786633652975,-0.045993433112572604,-0.039842363136626036,0.04860808614283026,0.025170922701658494,-0.022471640948529856,0.16720989024881325
-0.07372710230377277,-0.025115151603629777,-0.05182224507042592,-0.04654373109482763,0.030370055043862754,8.65831558983756E-5,-0.04670008557208689,0.19145737848459954
-0.08731728851145784,-0.041063139321447985,-0.07033161823441017,-0.08060334706596609,-0.007315359036079659,-0.04456073147153423,-0.09645233227697543,0.18153308936753754
-0.06660648501059374,-0.024384031504981103,-0.040041726732388955,-0.041091299487008265,0.052934696356150876,0.023814039883210042,-0.013949040956979051,0.15875701092720623
-0.06171708114197672,-0.026490148204068108,-0.044195332347314195,-0.036580130879495694,0.04699751440600628,0.03253248983678255,-0.0015176414756525878,0.18535526596782878
-0.05386538640840202,0.021668224678324487,-0.03972093061878165,-0.039921451642695435,0.03338454865652809,0.016265687224622172,-0.027535855185870813,0.20597655004851856
-0.08023677413099824,0.008415697459348392,-0.07116375206967678,-0.06881302767351445,-0.012542162424722279,-0.034165206733724515,-0.07787330812016648,0.21267483643472984
-0.06062536634164698,0.005363240926670103,-0.035097061532413744,-0.030929473858042837,0.05336032497161319,0.02368048284281071,-0.0025712023801114266,0.2580092878219491
-0.05211354555365273,0.030046561813402765,-0.04393094590172273,-0.0243919842406791,0.04291358485815842,0.02583186629110613,-0.011371485019547479,0.2000021270673688
-0.05665303600734857,0.006840239034481491,-0.05274698902413343,-0.06829451719001452,0.0379163466040063,0.016857506000865326,-0.024011628111917968,0.17125176541297832
-0.06706267473595472,-0.011083886803257642,-0.06111045698547294,-0.08392540338231451,0.0036829122295045083,-0.02905498129577444,-0.05927539219498608,0.17760490943777574
-0.05262475956314834,-0.01762977286948872,-0.0014923868944617237,0.012684588534117825,0.05772125859906911,0.05556100608331121,0.01811898669001028,0.12051277965000393
-0.057964821280516665,0.00966368937689104,-0.01002206458032222,-0.001737167000390657,0.05700000955062111,0.044352190506318036,0.010760719422720675,0.1626111661444843
-0.06513225388104762,0.007323730142543306,-0.03534752515468809,-0.050143254961335114,0.03456878877375004,0.017096595378563333,4.052462959305008E-5,0.16042466129531852
-0.07420921370416624,0.01190454867970612,-0.041714920962042594,-0.04302875129814103,0.005306411922013677,-0.009711192833549095,-0.05074729932079465,0.14597032075514058
-0.040438811456935654,-0.002765070229996938,-0.006599774865240204,-0.004425234604605393,0.0690079020764543,0.07045021956802325,0.04197402221536887,0.1370252098966367
-0.05076265168610111,-8.885692188990486E-4,-0.0017045505977011574,-0.00863177096219319,0.0772255903832644,0.05863082858198912,0.02996581474903194,0.19894245206231329
-0.04991349505931329,-4.98096988518122E-6,-0.025876233309897533,-0.02173316952284073,0.04615439241376091,0.04708231871639616,0.003506820920041764,0.1729153639000427
-0.054111148991763815,-0.0045226964198692215,-0.04071352402517799,-0.06835516294524584,0.02118555623018775,0.00782601964730556,-0.02577144983489262,0.12372876088657175
-0.03852583588284917,-0.005135252259794385,-0.00450538503900427,-0.003939811801739552,0.07508159246217926,0.0693030439078874,0.043830001993234544,0.11626789120203056
-0.04668951955476532,0.005238190384398444,-0.018235536032990093,-0.004106323798857912,0.054513592390020654,0.05760735791692191,0.018958593392938757,0.1252298911965602
-0.05733007906064243,0.01861786536402142,-0.04244732606901413,-0.05713202503881823,0.04461237960878175,0.016016381859055368,-5.172378504032073E-4,0.14574993286252058
-0.06996717276944547,0.041606186374189696,-0.05252370924945872,-0.07186571901406395,0.005347492736314595,-0.004703742190782166,-0.03806712743216163,0.09979492769144983
-0.04750931501470591,0.046914142043938574,-0.01967812694441531,-0.028337464061043604,0.055006084356617455,0.06587906243248647,0.027349705224317032,0.0634990648375832
-0.050471226493942284,0.05266900413915791,-0.0310953326013296,-0.03487063241713334,0.05037981089975536,0.03317347206134447,0.0033679756717992504,0.07400657731749181
-0.05418331797719411,0.05135090537590884,-0.04292796328422786,-0.05188510514097976,0.002987813880718477,0.008491726906849963,-0.021501786164769148,-0.00175556021913079
-0.05929066676725507,0.04474733576888741,-0.05132752492192541,-0.056125855564389676,0.017737375849992264,0.00560786272829919,-0.022496777513159278,-0.003381221976875042
-0.0461740080938655,0.03161185708052026,-0.03415915755360163,-0.028307335856346136,0.05954907759973134,0.058955040891935484,0.02815932745930128,-0.012902035664639001
-0.05232893549010319,0.03985305931202022,-0.04256443119331219,-0.047491920406772276,0.03909276723854566,0.04227383494267865,0.00120942337403798,0.009998752859521133
-0.0583988158718255,0.03534302483057754,-0.0676105063625944,-0.07927549858214018,-0.0024524602672426504,-0.006338561012698216,-0.03936314830587763,0.017854362636574025
-0.060634219822313415,0.050201750443667474,-0.042270811585249084,-0.05805612213485975,0.024566673351192735,0.018309115714209248,-0.019833439166904613,-0.03534850049607969
-0.041205398282308,0.04101027898824775,-0.047650485021806355,-0.02688509342992371,0.05607200178268243,0.05961547551993637,0.02869275355523901,0.0322770871980238
-0.05546595793391514,0.03734541535613521,-0.03727780368832278,-0.06543907800741298,0.038829504761605925,0.04572942685856928,0.00421261072654122,-0.014324295200271788
-0.07462487049480587,0.02560808081207431,-0.06462732280266607,-0.08955551424687305,0.006990338716492553,-0.00857233660276606,-0.04704335379002228,0.004553000900816643
-0.06587782865348904,0.05138291375633437,-0.0546710641995591,-0.09304924958649471,0.04188665958317086,0.03745750140860171,0.003286601363703905,0.034101980428032086
-0.049604230531851826,0.03364219037621734,-0.03998624990371459,-0.0786299250782488,0.061505349431472255,0.06454951200078995,0.04130156439715621,0.027465809684030493
-0.05129811885118361,0.03886915745518781,-0.06197644781914973,-0.08688974722365969,0.0521725887550473,0.036251705714425694,0.014657986339757697,0.06130670886224177
-0.06574037882118619,0.01989988139021522,-0.07824999252422919,-0.11736904289334389,0.004904821431872225,-6.334955822500329E-4,-0.0418603632566135,0.061293414745298355
-0.07185250591859714,0.02019648832691876,-0.08274937326927084,-0.10095465802293627,0.04406560469255124,0.037068680867368524,-0.008664071495917613,0.03731130955037638
-0.05580964455335248,0.045683855178499294,-0.04653539720532894,-0.0666771351143075,0.057583886912395334,0.061958339455482125,0.04043436924299077,0.016666091326418275
-0.05281503899529588,0.05284784497782198,-0.07415065489118189,-0.07375444065682896,0.041172615911733206,0.04839256977093275,0.016475540522168004,0.00342089091121608
-0.07710534144524017,0.03317886196062905,-0.08180752471349054,-0.10834959798951145,-0.004372377512986037,-0.006933704966408405,-0.04885434715078584,-0.038620520745245634
-0.05956174203261629,0.03731872002332467,-0.07520053485556624,-0.10209971466109247,0.024188017527876898,0.015207324649185158,-0.010821042832679633,-0.024681045707003812
-0.066273409481233,0.053699437460963284,-0.07047227366620756,-0.08277617869309245,0.04388704507872419,0.06023803183488952,0.0376781080237794,-0.039642051813501486
-0.06549266313509927,0.03521286212458712,-0.08591254962055085,-0.09067866426443007,0.030540298519305606,0.034089746208601036,0.0035990433877786045,-0.07219149810887546
-0.07669959495888659,0.04650400659036586,-0.09901114221963579,-0.12398680418703506,-0.013886138387245714,-0.018576278528923372,-0.05613618850460762,-0.06400937942482444
-0.07361974711405443,0.021172860032146818,-0.08814011477960979,-0.09800247254325399,0.04135158610830767,0.03402677738733661,-0.005620857163141016,-0.028005278266055506
-0.05998263307075879,0.025096181585962423,-0.08011936682917,-0.0832777182937515,0.05314936257457116,0.05442878915726218,0.039015163810062745,-0.010615878451457573
-0.06191905237296417,0.02964809631778681,-0.08817729614346101,-0.10120701352925751,0.030145189737221485,0.039787947583600825,0.012011464484927013,0.024667000430304155
-0.07536602272673394,0.04416856647125139,-0.10998855554557325,-0.14554332174890441,-0.01585135647874461,-0.015471710723869941,-0.04583481583795239,-0.03628664605250962
-0.08134823184316121,0.0351613730383687,-0.08464055136387794,-0.12137807574425032,0.02689917311779543,0.03401837659288416,-0.0012768604774586398,-0.01922452625330578
-0.05913511792134369,0.02754926086316846,-0.07673373597890674,-0.09052781813323361,0.06183703694801738,0.06586856140813475,0.05113415549812075,-0.008565006569473028
-0.06876022994749893,0.030279988216014336,-0.08613346759860582,-0.10268275728646592,0.045278628134862935,0.04556410797299757,0.021386952489222545,-6.739740313081438E-4
-0.08299805541852891,0.041000539477546144,-0.10879501063759593,-0.13633285687731836,4.384458437528293E-4,0.005364782604810664,-0.023311785609841904,0.008523957448545009
-0.07590636293873791,0.0461513365216605,-0.08896494230509147,-0.1175540501477382,0.023499593470183315,0.031994721336590766,-0.00951645856176847,-0.004703356486031242
-0.05841756291671897,0.03715928740227517,-0.07240778635358826,-0.08334821151134962,0.057042302586991396,0.06144176661093065,0.03494051476116754,0.03362931962714616
-0.06376147682802678,0.04115659922647344,-0.07997899349977619,-0.08965260331582173,0.03980942789576474,0.05184472132521882,0.014164591627967306,0.025600873797004948
-0.07091256225316643,0.03429000157906248,-0.0905735131385705,-0.1399332446007611,-0.00116029524568041,-0.006330197705767743,-0.02195381650475723,-0.0015846934268410305
-0.07427445006927545,0.035324146167162604,-0.09506509027995097,-0.14069003502922828,0.0029306788831410077,0.0043986385165263745,-0.03363429145965104,-0.010833353828464483
-0.06283428048586143,0.03920682203860259,-0.07561246106492389,-0.09409409651692394,0.051500030284467,0.054302421687914854,0.017229369508208008,-0.018627624000613466
-0.06572854218684746,0.0018098496187827794,-0.07559941879628093,-0.09097838313305472,0.021304802837336788,0.027389511392038903,-0.006646490379333897,-0.012245742383075586
-0.0797131036324313,0.028577285212088455,-0.1004119442665041,-0.12048339594844457,-0.010637066254098297,-0.026332962105693174,-0.0649968341820134,0.008938966020091898
-0.08185584390087343,0.039812709869160925,-0.09871249128472315,-0.12278852418059615,-0.013027597485180004,-0.03161797548820667,-0.06642053437908904,-0.019291188731794116
-0.06653455709306118,0.03372155193679339,-0.07024956402671784,-0.08748948184633011,0.041255007983129324,0.026483783449775464,-0.011113446083363895,0.009728604685610782
-0.07156277692027291,0.028047972116160478,-0.083876296470205,-0.10142801026278456,0.013660802376485634,0.0038942246814025047,-0.022634788956601336,0.03215491790211554
-0.08745193580276764,0.021248080844302807,-0.094050564786692,-0.12330163817842381,-0.007869661481573392,-0.03981253958257896,-0.0791475152260264,8.813837481875283E-4
-0.08978771328145474,0.02980705886785422,-0.11425189528459712,-0.1434867311559459,-0.026885595922156655,-0.06441482805387432,-0.10723188592186055,-0.03378810494944168
-0.07439711363893259,0.0062213447743733104,-0.09075319448831415,-0.10332222223211819,0.03584964772223729,0.009202948118053778,-0.022512878480984332,-0.016238080268052547
-0.0636751924712293,0.034322743125651055,-0.08812168682625629,-0.10157873728838036,0.02176320385557981,-0.01461597254509649,-0.05147964774249967,0.007520026240357936
-0.07761769702860769,0.03753954029444303,-0.10435576974645713,-0.14552983920652926,-0.013921597650513854,-0.05360036415459336,-0.0775943876395716,0.044809466677663896
-0.09404816989241331,0.02845556678869035,-0.11868711016467326,-0.16926597796579398,-0.023828363317893144,-0.07957877890047202,-0.12823795642913077,-0.006676486643903164
-0.07027827166434233,-0.0012048251109276968,-0.08188897418014693,-0.10908002444863711,0.03580849030984735,0.005015922756695871,-0.05292542684318381,0.010598767712844176
-0.07235806946477473,0.022203449722753787,-0.07730274101561761,-0.10557810806938729,0.02845894168993681,-0.016527927475532216,-0.06008722098130804,0.023892369641925915
-0.07591648588788534,0.026732236045679314,-0.09799159416741134,-0.1616779050981899,2.4424060956838517E-5,-0.03863971034524542,-0.08497830908379675,-0.01908491341683145
-0.07864203279058699,0.018337499194979442,-0.11151918252026069,-0.16436470156322527,-0.01662956235055223,-0.08341701303293309,-0.14503221748893086,-0.016646858585320765
-0.066125356629217,0.003998090054695317,-0.08743674346526485,-0.12710148936360566,0.03606626764047859,-0.017210451545398256,-0.07143625728632458,-0.03224848140669903
-0.06600698352876729,0.010829717096871203,-0.08979708691563215,-0.10808081405626263,0.02387759222701461,-0.024743214726123428,-0.08199515448576071,-0.014257414025686041
-0.06958787094192445,0.018455501835901323,-0.09831669891209112,-0.1419580270971513,-0.0010608850106400163,-0.04563568131131686,-0.0870289841201506,-0.008189129872799463
-0.09221797761009555,0.015262947893191846,-0.10776252696962058,-0.17835310935924145,-0.025760823125535095,-0.08429434560644944,-0.13210804738994764,-0.011567641305413092
-0.07030809106085861,0.04348167688962576,-0.09001768825596301,-0.12153431786056067,0.03294365358196083,-0.01693990584269825,-0.06974403424956746,-0.03226004851293258
-0.0623496733170588,0.04030211472040526,-0.09187361966720319,-0.11784049165985097,0.020913317327118403,-0.012806892563182926,-0.06036848978480112,-0.012399600952139983
-0.08214254206061113,0.03920613473389004,-0.09830408778539096,-0.13441481416028853,0.00328902434534094,-0.03137502870701765,-0.07853997901153173,0.013813948934891124
-0.08952070770860646,0.033782683527309995,-0.11995283686394957,-0.17380127269920967,-0.03316058789390699,-0.06506076924594995,-0.13025026749632762,0.018258155818964252
-0.06889796582002695,0.05281835568199178,-0.10031589563007383,-0.1406913522008363,0.02672709614143489,0.004652575600550404,-0.046922933605454124,0.009057765084642379
-0.07084988953895123,0.0050074164906437615,-0.08845677439825665,-0.13442782232348735,0.047951328313071626,0.017299391263324426,-0.024410251456555145,0.028151004755255508
-0.0751414841173059,0.01673857132148355,-0.1136363056135596,-0.14004770222055196,0.02683483658643526,-0.003011883283941631,-0.03672366431965794,0.02697033209977905
-0.08460138506279916,0.006389878341447503,-0.11402440692412232,-0.1730496472142762,-0.0068763691189137645,-0.04947876866480597,-0.09232163874100087,-0.007856092849206225
-0.07809774826128943,-0.0027569601332045075,-0.11270896243655501,-0.15134536319840092,0.04459983053350187,0.007721829551427517,-0.02610445726858685,-0.00972975598116971
-0.07412012178243794,0.02356074649554167,-0.08444097133267496,-0.12704101175671334,0.05577198509781806,0.041476222727077725,0.0021208328063817765,-0.012681870951010843
-0.06882947977954254,0.00938343675554824,-0.09721872776747086,-0.12919068080911314,0.0499134630488884,0.027892258094868783,0.007945345012125831,0.009761618054708278
-0.07821412244569105,0.0022295044013625124,-0.11109065159949251,-0.15719824864595228,0.012127954554183496,-0.01209814511778112,-0.04991682559638139,-0.03220975180383055
-0.09323077416124183,0.008797747526780362,-0.10596500119449533,-0.15852342388481125,0.03513774847623931,0.0034537823455148826,-0.02724543079502482,-0.03537667271621787
-0.05900123914673603,0.024485311802828497,-0.08452946562580102,-0.11737636852140805,0.0673950585476195,0.06690427470144078,0.0212653754462795,0.02186800803396535
-0.07061984474620699,0.014783040472026998,-0.09643642462278645,-0.12765417736393075,0.04190476202905702,0.05386179332260129,0.014714445628600734,0.017396308164919796
-0.08323880165585461,0.0011440967429571566,-0.11553650613524592,-0.14072040823598497,0.04387026467437391,0.022515224244838646,-0.04050177814806653,0.0470503782106005
-0.08401048436278215,0.012713346444446496,-0.11254193190050212,-0.14761694393459682,0.015925633185284966,0.011586563767120752,-0.03471475800973646,0.021176139357109908
-0.058118816462651726,0.020308786891320613,-0.08814786562641468,-0.12897334227580534,0.07651610486524434,0.05647192045899413,0.04625059361393511,-0.003126737715614907
-0.05965837634336049,0.013320439646441648,-0.09225601615854807,-0.126642151656781,0.04830772462493783,0.05893162913805136,0.020596378610549495,0.011830162830492872
-0.08124281579602273,0.012630075602235512,-0.09992476629056438,-0.15274328144509947,0.02834612452691451,0.018072085831623234,-0.020212831058636027,-3.91864950829076E-4
-0.08202600381627943,0.017800156141938632,-0.10986825258538777,-0.17071670096983213,0.038535213735447674,0.012049188362320109,-0.01829484899063028,0.0060542422124656966
-0.0660026412047844,0.016390634023559076,-0.08187971092492106,-0.1365863788128999,0.07739952848827958,0.08319569018641093,0.039808699585501546,0.04380391897277386
-0.06344352828717252,-0.0020910276491412244,-0.08618547229221833,-0.14561962053391822,0.07252425558367151,0.06335317148810617,0.025144085717985636,0.020112608308063825
-0.08581167665468568,0.004930679399356846,-0.11089996082496521,-0.15817770578133047,0.03498489776004373,0.02548823592421997,2.6341677438725217E-4,0.0077380056145654585
-0.07597082483630437,0.0018481770927532067,-0.10625082999484549,-0.14617896599355884,0.025151382145195487,0.006433141937569329,-0.03466879688340576,0.013910438099823418
-0.06712429441557283,0.00976781887431948,-0.0720754367467259,-0.08842163864738309,0.08255768851697774,0.0774338746025279,0.04699284403097897,-0.010177684262620607
-0.061442924294032246,-0.009172839188987966,-0.07078825964114702,-0.09232618767163193,0.06325042741260432,0.06462926191470292,0.024751034186055454,0.024929004097545854
-0.07428137729308212,-0.014115614975896591,-0.09020462990098231,-0.11754079869824113,0.03224749195061911,0.047987091985572154,0.004891101623021174,-0.041237072276300274
-0.08198693937737402,-0.011160157076696632,-0.10403024206272225,-0.14848152290453556,0.027077010547465703,0.0053576849884865805,-0.02270635109058125,0.012115139825884193
-0.06066437142771793,-0.03036927674666861,-0.06764386682644442,-0.08983493336809138,0.09304944143242513,0.07399174090338347,0.04179774618045946,0.02731803547796187
-0.06337896001385122,-0.016889812323126262,-0.07934448545531501,-0.09577464489713743,0.07309305438814596,0.07410499077707464,0.04486459161237541,0.023798809846317326
-0.06567759193096662,-0.02633274805741801,-0.08332880790553591,-0.11313857073834828,0.04115424143543633,0.05135107348404473,-0.009298307780775113,0.045464889959127286
-0.07799061392352516,-0.021014021070398087,-0.10695028840345623,-0.13655490492536304,0.03615742533604862,0.007695795397112152,-0.027331099928590615,0.05929893122575653
-0.0673906628721049,0.010488880940623866,-0.06482908518551284,-0.09079609667978018,0.09031283588958715,0.07378254146440345,0.03170713145986735,0.061161265989614265
-0.06576050305194632,-0.003306023906548597,-0.07045534251806462,-0.10717978570062306,0.08412760119225875,0.07306015616412094,0.043682617945408175,0.09031944252510912
-0.06797352127627306,-0.0189570753173452,-0.08146209580024873,-0.11711454299753651,0.06992898662055085,0.0459405094151381,0.011293672309478114,0.046489489092066294
-0.07024592741203504,-0.01554035994294968,-0.08969462239116584,-0.1366555167129973,0.026912964753457898,0.032747008026292344,-0.020064284583621087,0.05250471118907026
-0.061355305887559074,-0.031279102572469394,-0.06794380357180314,-0.09859306943147904,0.10125648110648884,0.09524612076690013,0.060074364351707724,0.03214442301387929
-0.05940150963551722,-0.008311923053973647,-0.06769740622373632,-0.09099660304624062,0.09208676240882485,0.08271519087342658,0.04819303358746809,0.031615364489550976
-0.06521288005352507,-0.013780554980915589,-0.08833718713989773,-0.11722509408950729,0.06475895991302355,0.043537774107374624,0.016074541591485015,0.00899894574341044
-0.07892723783060723,8.256273460933028E-4,-0.09256837596359728,-0.1460430912404183,0.04072408674568738,0.035416939919866185,-0.008944517484952548,-0.025696852892035146
-0.06178626230977763,-0.005999219668866644,-0.056666635241109625,-0.11608846539719529,0.09891212352865678,0.10593154797092047,0.07850865512912523,-4.052916299481678E-4
-0.0531709505217526,-0.0029008326997703,-0.058055805749274915,-0.10027500792276246,0.097215321413518,0.07362656922486235,0.061046484535468334,-0.02360903631606829
-0.0654897383333078,-0.010358161378748615,-0.07897978985638741,-0.12953854229440687,0.07281251896575681,0.07160916432695667,0.036328191515767994,-0.021381450817331546
-0.05813528348218142,-0.00929041989991479,-0.07802048807710583,-0.15342195218232382,0.05725144462212547,0.057279790503085785,0.0128309520206916,-0.02847999167227919
-0.04715563797099864,-0.020890780694446467,-0.06225924972531262,-0.0913979261321304,0.1238777684421244,0.12304823401715628,0.08304549829506062,0.01840145153301181
-0.05212312119175323,-0.018288197676599862,-0.0710289078259049,-0.09431159867238094,0.11439502019000806,0.10797636720239756,0.07773298208849647,0.06645394415730263
-0.057687378192685414,-0.00942035354191309,-0.06795215474020745,-0.11578199168521791,0.0899483438706897,0.09304161376859199,0.05392612856765486,0.03332721773690412
-0.0547308450108474,0.0010430736896080458,-0.07500213080435092,-0.1261513038964216,0.0857504498779274,0.07164118895935727,0.03596713332980868,0.047869625941700356
-0.047430361850332815,0.01634312785519918,-0.04427707083656158,-0.11303089710603018,0.12835691605402147,0.13110259059495963,0.0918988542903491,0.06551625466464384
-0.05260607203466466,-0.002938380153543941,-0.05021819373344585,-0.10923139929685831,0.10770989750813431,0.12310362232771445,0.08662471539397068,0.0012475314030168684
-0.054873050956979724,0.02503649949008821,-0.06214323460990647,-0.11341294283972259,0.09601742297864357,0.10079178139538456,0.05593886580080928,-0.00748432584861862
-0.04820233547642966,0.011443847181980079,-0.05965932282631939,-0.10392965142542802,0.09836979461703306,0.10048646086106565,0.0660379503336407,0.05539925646489346
-0.03908357139609488,0.034229772807214245,-0.03949532474089862,-0.08769096770360796,0.1378542240721205,0.14948523678284673,0.1075608389636799,-0.001519555503784191
-0.04704852728218771,0.02330703548099969,-0.04734608318692756,-0.08428798533206949,0.09716860345582837,0.1329245303742656,0.09685117648598743,0.012216889526941605
-0.04673623385642547,0.018659135954536197,-0.06287992132682092,-0.10492980109428582,0.07947347833135178,0.09456198304556288,0.05508402957318591,0.016045551700323762
-0.05025206631707765,0.013987446357718153,-0.05618888857402534,-0.0912091817734113,0.11596203729885968,0.12491408146798799,0.09284736040058537,-0.012686586367636294
-0.04293668989858459,0.010044651991352616,-0.05636745817874587,-0.07101454985625798,0.13411510746354846,0.15874618549019737,0.130662843202486,0.052578089234124374
-0.048226172516979554,0.010085718204513162,-0.043171237012465564,-0.0674906593289938,0.11338637489161825,0.14214629547405042,0.10561062455625804,-0.026836196776130954
-0.05234768891446492,0.013431873413144954,-0.06602419288306645,-0.07755144425079802,0.0900555216529063,0.09870016478752767,0.06661305598953828,-0.01890491250260517
-0.03920161166873582,-0.011256917654542887,-0.045618465828300814,-0.05068054857114919,0.11618215439500955,0.1308403040354015,0.10955347514793509,-0.012710039022875985
-0.030297890867486157,0.019039109103359323,-0.03559446603827774,-0.05914188672871152,0.13655176189832108,0.15984879729138177,0.14046293989967662,0.010891965740981575
-0.037870692327669014,0.02372032218156673,-0.03465171013962435,-0.06291189338237517,0.11896722023888097,0.14680396392620093,0.11519421396762967,0.018569918065169926
-0.050020490661394364,0.012656623235640988,-0.05464771947494461,-0.033165818920928215,0.08731226049470926,0.10417926141056931,0.08005241563547581,0.036830766849152374
-0.056817298980891336,0.018247907457289124,-0.052362050971080425,-0.0400326948591304,0.11376025365301547,0.13263678382967498,0.10264498019461979,0.005524645646033612
-0.022451859870046012,0.023405714784758114,-0.028321548801445225,-0.019510628335872297,0.14441852207705502,0.15190100956265234,0.13878345549826604,0.05187683210188178
-0.04516237654948603,0.008930134264034158,-0.044602950723030846,-0.06016348465055632,0.12786075556333962,0.13081810468476493,0.12257228935234846,-0.006141389042723821
-0.04245555042019313,-0.005241367330251948,-0.05038647491947846,-0.08863742751059606,0.08944504858086763,0.10108978806463417,0.07774439231539113,0.031820065963514235
-0.04531197394371631,0.007632193008649848,-0.05693688331205908,-0.08910690517383757,0.09754493052792775,0.10391528800183747,0.08133391811651741,0.004381104142605767
-0.025035968234746298,-0.013225188570289636,-0.03509990552023027,-0.05628171987866825,0.1285506164662677,0.13845880107090294,0.11162507743220278,0.019966925497437168
-0.030177734337313807,-0.004546656980995046,-0.03170312039420115,-0.05626170259945166,0.11327888918742283,0.12767194631617965,0.09814213065328027,0.00660143359525498
-0.05161751547092501,0.022242415714452828,-0.05250162134019586,-0.08730077437709777,0.08407393274190758,0.08162676919177231,0.05482910737897021,-0.005323494614170705
-0.038888414946730517,0.011097904523400417,-0.05039686516089093,-0.07502068629750944,0.1182125841441992,0.11454562338159946,0.09210037208626266,-0.01976562085871324
-0.03242981027869685,0.01016562623056108,-0.03306933742508871,-0.03767546032569852,0.12022207780032924,0.14171268344092686,0.11870402544021866,-0.027130657514128208
-0.04116180831708775,4.031566485328963E-4,-0.03325061197695575,-0.05105487509913048,0.10067154215897291,0.1214175063276782,0.10316259048665939,-0.013304069461589815
-0.05023031623049041,0.001921529342638845,-0.06488646957432026,-0.10102809764280818,0.07550037151033144,0.08470449423018321,0.05085108137440612,-0.037823545167552854
-0.044685536144402196,0.009290761073112936,-0.05558442442825908,-0.09353436508682217,0.11355198277516251,0.11130351520905708,0.08924510876500634,0.018050563420379112
-0.033013552568381746,-3.906161078433366E-4,-0.030061304898918867,-0.0781291786048206,0.123897607950319,0.14658475825984807,0.11109374503476081,0.0035446662537219676
-0.04645747611642068,0.020391596114640215,-0.04271351105783447,-0.06038333724276379,0.12283375172017462,0.12781785546323318,0.09754592250141782,-0.014547246242805666
-0.04079247855248832,0.006241441227283322,-0.05891973787411501,-0.0766977415102231,0.08739196323783516,0.07706959853411843,0.05943918151655913,0.009692998180922254
-0.038462943690488055,-7.977141641203593E-4,-0.04413620047634145,-0.050828495791501525,0.10081553959961721,0.10958007744082472,0.0728453110819698,0.019354434495361054
-0.025689378366596335,-0.003554134511562429,-0.017720436729327594,-0.04035709037351108,0.12935334977438637,0.142056787724935,0.1189839687245512,-0.004269718771415212
-0.029352095963696007,0.008186600009924307,-0.04350631175741459,-0.07349242318083533,0.1244051566680393,0.12193425704884496,0.08939700629780997,0.017552909593925116
-0.03955332907430867,-0.008893331900922312,-0.058940943330916845,-0.10868264960288702,0.08573947327473225,0.06866389657273247,0.04693038873604355,-0.02971166506142594
-0.046396629444555214,0.004370683064682478,-0.04142533202600437,-0.0912468785435502,0.09714518074610184,0.081328709808116,0.041803507654606754,-0.014407169343783778
-0.03509733426194599,0.01944226768102655,-0.038287611825950064,-0.03834456585135727,0.11839228027870842,0.13001903599849066,0.08225350781529603,-0.0684118758553282
-0.03269034527235543,0.0015840357076075202,-0.0395682289058168,-0.05178093376978419,0.10701998604246776,0.1056622927129758,0.07778697586721553,6.450058301857594E-5
-0.04516283211003756,-0.030712716911430307,-0.059323989246013356,-0.07292324889614969,0.06906327829323626,0.0713999103090568,0.041417366755143056,0.0368572971425035
-0.05235123554249439,-0.01388015074842003,-0.056074218556329845,-0.08603023095030579,0.055987689917228224,0.06167114483419796,0.026961276736247503,0.004557489013841264
-0.034699424622478346,-0.015843149034559904,-0.03175281929526675,-0.0351560746103504,0.1166244609968626,0.10869733576469066,0.08125250120751035,0.01972844725459244
-0.0393749150387234,0.013473013216620417,-0.027434799583713105,-0.05784974141904656,0.10564832685967156,0.09217859292273639,0.0618956597478262,0.03782370590492892
-0.053905448491705914,-0.036349105282127696,-0.05119334553599836,-0.0881503129285706,0.070291447840014,0.07000868495395493,0.01895515154268571,0.03782617513483848
-0.0603188150948771,-0.019310933781371508,-0.07804295005325904,-0.10503964275119818,0.06596647504357939,0.04331676953049511,0.006092805440438174,0.05102925274708143
-0.03350307170542958,-0.037293893479401895,-0.02918227608229408,-0.059276216357127647,0.11636204519282914,0.10787324391651072,0.07465960500224955,0.07577093358373373
-0.03533658991573918,-0.023977505019522404,-0.03214507230708593,-0.0491568231943398,0.12225238966508606,0.10103156134190346,0.060995256831839983,0.0866774287947249
-0.04137979375995433,-0.006498503500307427,-0.050436855220376685,-0.05840647945230247,0.0723545455051813,0.06581250874801756,0.03838513050126988,0.0651398480844269
-0.053700070363270666,-0.04121048266115717,-0.06096737762753527,-0.09824698024420496,0.05727326303474638,0.04318841817516424,0.0019543146603125464,0.04773016783499414
-0.037213806387359,-0.02126315494653805,-0.03805074661522527,-0.05358469880256096,0.11578347611854733,0.1216701370822824,0.07877066087660371,0.055940196966886443
-0.040818929038334714,-0.030694987510987575,-0.042195773043645635,-0.042836847495728345,0.11624903183498946,0.1112824700374478,0.08551945076607981,0.0797018466263039
-0.048706185875021166,-0.04005554467421848,-0.04812193557901489,-0.055200248790114974,0.09180185210079755,0.07866070520794935,0.03347228646463892,0.024456014877445434
-0.05768862067346838,-0.031008938286683038,-0.06863511594820154,-0.08610733423352193,0.052205218437053745,0.03714556681979819,-0.0038861454615450684,0.04901765012982737
-0.03379851370874392,-0.06152065566419158,-0.027280914840823317,-0.04211506819857005,0.12355506393223809,0.10436266076380518,0.06983348861879494,0.01578381780865943
-0.02442554123522623,-0.052196915641684466,-0.0353312157740481,-0.030381121383032582,0.10416193662213698,0.10232122683021078,0.07510625942085306,0.03812391340338209
-0.034217344415716285,-0.0453114969351263,-0.03813801337873557,-0.05149029800803002,0.10318102328776892,0.08561072114856834,0.05715030906544563,0.013730119820159226
-0.0490005573576943,-0.0407219000480216,-0.054569819507493685,-0.0906147913095309,0.055492016769292093,0.03223165002205331,-0.007228992389102519,-0.0046213086462071964
-0.0551216690905527,-0.042352959582887595,-0.051008253087144996,-0.07328515681416349,0.06802067152838047,0.05174394695303825,0.01495242238241426,0.059915673543730084
-0.026998049709475114,-0.011646640266735864,-0.0282027672416655,-0.06292532125150517,0.10483681018025,0.08421354505823538,0.05142055191221428,0.06484331023585464
-0.038153797816171585,-0.016658745796446564,-0.04301943046414228,-0.06983110608100089,0.0891719571547164,0.0778844237231528,0.04118568674058571,0.04174102914598634
-0.0531367510157333,-0.008762038310591908,-0.057327230662778624,-0.0850895732091227,0.052766548447607343,0.03491778774370785,-0.018541870404738054,0.05989300187215386
-0.06347466820795693,-0.044653723123316294,-0.06328840650871352,-0.0892583279478134,0.06333414887285396,0.024955762885792855,-0.016873979313826944,0.05390503748267848
-0.04252231666065498,-0.04212273133344513,-0.044112722064435755,-0.06332951448447799,0.10470304426612732,0.08586231558241324,0.05175830701250921,0.09475220738601853
-0.04811392537097188,-0.019047783222002155,-0.03977934929859161,-0.06736146933752206,0.08908355110711844,0.06834996422563805,0.03481696759106208,0.012326726351984221
-0.0515848352530733,-0.032098333901845424,-0.06491743988274146,-0.0892421736465922,0.07141129950435046,0.04287160925830233,-0.006528998298829438,0.04271985338162342
-0.06309409805345707,-0.033437994991869335,-0.07943997605663138,-0.12304509012924315,0.03249845180652553,-0.0032870329305394992,-0.04309035148992107,0.01792221076584691
-0.03955793953436329,-0.030304804997284843,-0.052407671976232,-0.06582031406315915,0.09838801355617526,0.09186530545651415,0.05081467488822926,0.032627057377283955
-0.0462116679791672,-0.0467837856634788,-0.033900908109519255,-0.06307049247755976,0.1114487008891768,0.08937565077193473,0.05903828837196416,0.04260483151304775
-0.04415532043375903,-0.03291455453523075,-0.04390662702700768,-0.07522104496588572,0.10242936552240173,0.07266351703475253,0.04456676692355737,-0.004429882800905844
-0.057262931732947164,-0.05043791505004663,-0.06331753722148409,-0.11038386452630651,0.05325947078401235,0.03793412494668422,0.004872303324411315,0.026011057368781093
-0.0574492903578762,-0.06406499617607352,-0.060784456538614993,-0.09332805770185697,0.09310228553751713,0.06338572212212559,0.032426819435967556,0.03258401745463285
-0.031247537872591054,-0.05772567541792117,-0.0300569802008429,-0.0590302722148796,0.1405926563522221,0.11763941463173658,0.10079789425830102,-0.025963390829104985
-0.039031406602614005,-0.05390084370994102,-0.04420940764191108,-0.054314265502675145,0.10734764385845721,0.11162192338118289,0.08785989275435073,0.06551557064488603
-0.044658672081309705,-0.05307772984902489,-0.05422602601180456,-0.0874296723273594,0.0749086622412811,0.0767889008240912,0.04548664247859077,0.03174216143036996
-0.056058118624188635,-0.035205620152897764,-0.07594333663961012,-0.11583193099434401,0.04727949295494988,0.03941718820148641,0.0035958757594431513,-0.005908647123450985
-0.027726972580677207,-0.048529607616532223,-0.05922287752418546,-0.0739965639305569,0.11467969679597673,0.10781508556237701,0.09298634389987902,0.015536999661472537
-0.03935693200119947,-0.05149249671328673,-0.040943800330473124,-0.0652223515099524,0.1139587030431064,0.12529441720220147,0.09350357580229433,0.063814327456448
-0.04303949631102135,-0.05344176389465675,-0.05243915918241761,-0.07907229533143006,0.09243199296369337,0.0992484334081672,0.06463437737038898,0.07478768263272985
-0.052072093232333014,-0.04959837246139298,-0.06308190115319798,-0.1365943948804569,0.055618880832784434,0.05372092905962319,0.034264900082875964,0.04737918761024516
-0.04438320522883363,-0.03090357496552837,-0.0552351441637884,-0.09551539056525508,0.1030609724416362,0.09292492684064696,0.07066255529575075,0.04641740640816369
-0.03610118764442366,-0.03442557705706121,-0.04976488845172603,-0.06451441382833115,0.12356416125628579,0.1267747046008847,0.10714809293554917,0.04548084391474077
-0.0359794745275666,-0.06617511516354416,-0.04852468008271788,-0.07249811522394989,0.10959508009723795,0.10587526835558955,0.07944366873530224,0.01964880460941263
-0.05356251545129977,-0.04957091844284539,-0.06596930451803876,-0.11184507123574002,0.06929399850360217,0.05422612589894675,0.04238725526973793,0.027996079249591046
-0.06165166284500891,-0.03218030035812093,-0.0790553380108479,-0.12584966474845302,0.06290539559711157,0.05511950726778075,0.018535145974211884,0.025786179411166794
-0.04690230615436577,-0.06002163052352988,-0.04216119349967352,-0.0675945249459484,0.11539921125293545,0.1281438793655599,0.10222205355212892,0.04232710288991199
-0.04281890363978586,-0.04648608701879747,-0.046078730650558626,-0.07152035288558233,0.1118824157862025,0.1264156362017395,0.10569031772641567,0.028375592071108933
-0.04019127801179001,-0.05787408320276731,-0.055041664670385286,-0.09035492148570914,0.10088483191628372,0.10464357692148998,0.08190261121414477,0.020575650237435274
-0.05144450081029111,-0.05110585170121626,-0.08521678950775882,-0.13376965566442647,0.059772185144316724,0.044692138060972254,0.019315779518220368,0.033798897668209885
-0.055134811908779044,-0.050029289466293814,-0.038300894768074134,-0.098032118465862,0.09974519335711514,0.10629541671334698,0.0826319120266908,0.039163878901610494
-0.018249874913539993,-0.062228832102327526,-0.04085137279810884,-0.07181203404072038,0.13211331652510155,0.14215245861893483,0.11612498376371985,0.05707502566550918
-0.03063704785839997,-0.0628141883627608,-0.03741897096091193,-0.07587069656738092,0.11646157176307294,0.12234215907186753,0.10581649328896758,0.012309363607642293
-0.04387507504655898,-0.05756320734404161,-0.057158420147177806,-0.10894548378984605,0.06968533812623373,0.0866880482742301,0.06074379470167677,0.05152629453721162
-0.04762043926380669,-0.04650507283579131,-0.08097634122403352,-0.11808686896318857,0.0498676818414484,0.050024273912085436,0.030702086508391898,0.019082462574951956
-0.037287157120186966,-0.05859985127219288,-0.0469063341986281,-0.07831072929741548,0.12366181676062682,0.135873020828762,0.12147327762194039,0.05360600954002134
-0.029200366446483505,-0.07178548331360374,-0.04772242591801777,-0.07967420271938515,0.11911230185294033,0.134159690938707,0.10962579184048597,0.03566315831241678
-0.03498466457355051,-0.065170935254791,-0.0474497911396649,-0.0902193520125702,0.10026675015734489,0.10607973846184902,0.06831450532525447,0.035185234067132164
-0.045846676705645996,-0.05502200247039365,-0.06494583145432531,-0.12809689875517405,0.05006907933057093,0.055214810985656525,0.02389717148516317,-0.018240375341196408
-0.025471849115614176,-0.054212110462459336,-0.0336007923146485,-0.07268382073289659,0.10826410269414206,0.13805850747011458,0.11381662002112485,0.032368323037217366
-0.020518114889494867,-0.054945790353571264,-0.03446280909168926,-0.06840833796298355,0.11382134252945252,0.1420710351203393,0.10078636164681659,0.029005282802750956
-0.02499403997361496,-0.03687860598398405,-0.03600898703422496,-0.10460337446234062,0.10169466540910724,0.11278876984557669,0.08572548883154449,-0.025382884698927514
-0.043033032961663865,-0.044528951883032755,-0.04328434790098943,-0.12666708098113927,0.04724748345975557,0.06344914740869977,0.035925166807166745,0.009502416351387755
-0.03162264896771725,-0.05252148014393998,-0.039471757856715334,-0.09083909726435564,0.0883704613985886,0.10858426647442068,0.09120050675785366,-0.050561887978642445
-0.006470646031619002,-0.05645455044682745,-0.015227038614816923,-0.08583451320702909,0.12139578541642482,0.14741271608658132,0.13800126410898184,-0.0390271352626211
-0.00729480930503779,-0.029020547138289093,-0.01688836138559058,-0.06170580000710484,0.11399370542886869,0.1516079977054438,0.12357622604297937,0.017435031472835576
-0.020381913976808528,-0.027852908401371584,-0.02019797731376502,-0.06943700944789465,0.07296956574742088,0.10117520400457022,0.08037669499424503,-0.04229945640988505
-0.017322855306226657,-0.02913248031728473,-0.021589110601205812,-0.06446412988924197,0.08992703495262609,0.11437789198840641,0.08841756581692391,-0.01413161855348099
-0.00970189054841828,-0.01746457370711771,0.00502469059049278,-0.03345236632853927,0.1471932901592337,0.1758083428910461,0.15328432091244276,0.011013261375168386
-0.0071043908660492275,-0.022955398599631246,0.00143122262598474,-0.03826165212318982,0.1315255933540965,0.16406215100597465,0.14194913460359737,-0.13620202806180384
-0.015610040531437169,-0.04685198160530022,-0.012058807387473941,-0.041641014524607126,0.09177218458630658,0.13282449931429588,0.11654409549319114,-0.06406856001959611
-0.014683670154268259,-0.03955973495505635,-0.018471688178131038,-0.047035624693539585,0.11196592772951432,0.14444389666375218,0.11163329967373196,-0.021680319643242185
0.007241057429324529,-0.0636948427281877,0.0012579740018224487,0.0028678771723432495,0.15117486075519077,0.19003221180269236,0.17385898073127082,0.02447915250101357
5.673113716728474E-4,-0.036463818450094686,0.0011108461834047046,-0.036583420580968765,0.13428494972495864,0.17695039917776448,0.16081820421598012,-0.019259059138715253
0.005078749429148465,-0.034851077716112726,-0.016265014745066163,-0.06042799699743184,0.10645595748657871,0.14050516643983976,0.11184022838217172,0.008176378824609629
0.0021597941540521396,-0.04728113045307102,-0.006433553318844077,-0.04727210215942329,0.11762630189032437,0.15931908171407727,0.13738986066661749,0.012661232386214888
0.01649807273492485,-0.008972083944114318,0.017744413101517805,-0.008703920637798457,0.17266061068904048,0.21655437139790443,0.19373625727747584,-0.012236285472980685
0.02206493056749892,-0.03559360070631579,0.014421123797092972,-0.02126093501632175,0.14696419961175589,0.18631464964112818,0.160862013680368,-0.023187316602191074
0.012892031417965234,-0.03787882191733477,-3.8456184673827087E-4,-0.030249315785437745,0.11213548929914359,0.1537586554729467,0.1222136594316318,0.0043916278818454686
0.018495419817339043,-0.03987421324047242,-0.004816733787871255,-0.0389464127401091,0.1337013306584833,0.1695548963144462,0.14125073721479497,-0.02490280212685627
0.034610322300953816,-0.03897390154458257,0.030436188217713718,0.025039741296396457,0.18087152963201164,0.22892076412478918,0.20609068433192115,-0.03162857930447933
0.027352660543736782,-0.03662985609696848,0.03131261085060516,0.02403882350826228,0.16586380854018237,0.2064714256903699,0.19160790047351794,-0.005087831387246218
0.015080027223727546,-0.02065411108768162,0.025293432739506093,-0.009510516459278605,0.12992611941303503,0.1732836355540509,0.16609404884510154,-0.05965202058963729
0.016175376762547086,-0.03912710932691186,0.007480112712414335,-0.02090725189821655,0.13592342138342536,0.16396484708331116,0.13401681576478772,-0.051720227551846146
0.04677022397713425,-0.03130621000052183,0.0439590088199659,0.0030932516360232675,0.1764994553720764,0.22682278042841258,0.22620385517105393,-0.014142112472682818
0.04399513844381154,-0.02828442069557668,0.04307794681383589,-8.746553422971523E-4,0.16726667439105192,0.2239885271810983,0.20477778887606143,-0.0036413716505102472
0.02596886480147495,-0.04978006457362534,0.028004852942611187,-0.01907200332424926,0.14712974534916937,0.18344327685204637,0.16956508120963792,-0.014515542917849926
0.026214677078588596,-0.059537394004369124,0.004307599650516651,-0.03396253834137232,0.122985036157044,0.14230710853724093,0.12588369606938504,0.0105076796747204
0.04056058691600343,-0.05519422395895496,0.029269006993405296,-0.004034230645927902,0.16795617112495922,0.2123715193908317,0.19712360220444755,-0.0017176514288501322
0.04689748120654,-0.0649079115752475,0.041126885184618336,-0.013235045873289494,0.18453970441288378,0.22286539762126845,0.21445506633082026,0.030041999922604742
0.03286281987246961,-0.0338223175822714,0.019358032894912138,-0.016972908830605496,0.15999022262416668,0.1942041425003562,0.1897260367936945,-0.04558676224186387
0.03056420433517312,-0.057713621547159935,0.01216950710566405,-0.03786228794669897,0.12698197540057954,0.17130688540293057,0.14892974978680318,-0.04142535774743611
0.047752035876826596,-0.05128315587943634,0.02793938301326327,0.007907278747227676,0.16828390629602905,0.2131319019051055,0.21416230543876827,-0.011035237420040384
0.04236604622388406,-0.04156817320529021,0.037208438148489426,0.03403551775174827,0.17336538426037973,0.21649579151337392,0.2165185804764652,0.026233767859183712
0.05038877236676695,-0.057611232039753234,0.03433995813101819,0.01279733377278666,0.16388867959371098,0.20517274056632154,0.1918014245512879,-0.023214819484204178
0.02571604264551047,-0.0506706901883309,0.009646585479354609,-5.777953372841869E-4,0.12527389392348603,0.15466273318661436,0.14229118183116202,-0.012223868584042978
0.030926614962634765,-0.05214896468331556,0.01686462160334841,-0.0036869063701623706,0.1562205551121741,0.18139331989847074,0.15833289620891133,-0.02316327113434675
0.03866005800512597,-0.0395727068944103,0.03405308726628062,0.015479405720198656,0.18206453013539153,0.22530295664060737,0.2045139500926602,0.007550258942496615
0.045370948945326645,-0.039219805110185156,0.040254008575013114,0.012100064468776883,0.17444975700050538,0.20846783663727816,0.18788163781180942,-0.0382441628567994
0.028463493986502487,-0.040107481138676696,0.011050105874657134,-0.008122935951767057,0.14316458981509245,0.16730919992678966,0.1472333661936841,0.02083791133423383
0.03936527065584825,-0.04397849379524393,0.006314175685218749,-0.019424231568411485,0.1369377697779344,0.1481785346731439,0.12122959551156631,0.004287016159392454
0.04984504734277681,-0.05715451444724186,0.036168654402367516,0.015444519772666516,0.18792318609469205,0.19795031107131042,0.1855924286721649,-0.018577378411003716
0.052084961647285564,-0.0438409276243351,0.04378906500516285,0.024644048291690954,0.15710528359411616,0.19091506084447615,0.17382705793479522,2.8323199850829737E-4
0.04220657925105079,-0.05624594443081056,0.02775975988548602,-0.014470844552258668,0.14878433771895072,0.16370302626673258,0.13717373159990018,-0.05647394152759997
0.012967413482547414,-0.051292225194755466,-0.004733409822162625,-0.051129583443507994,0.09426347775394114,0.10789620772525221,0.06905609948637298,-0.0448282218115826
0.030286685508600558,-0.07345138316711072,0.022352668627446663,-0.018538119370784235,0.14256775677963737,0.15169947036043682,0.12907273021655896,-0.048311500365935324
0.027141598321436693,-0.08842623482193901,0.020526789644388935,-0.00856793571606012,0.14867264808893732,0.15796247125487756,0.13345373088120865,-0.060943085180786706
0.026967145115473087,-0.06099858881088914,0.006713339129659803,-0.022718412939621846,0.1314981169028769,0.12665950008271018,0.10603201550848075,-0.03589259655028937
0.012760886010996144,-0.06761392245952032,-0.008830418373526319,-0.0282349394965974,0.08442209200889501,0.07850273088002759,0.04309922864890153,-0.0334504776115206
0.016051974610096272,-0.07333245650721093,0.0023740727994841044,-0.013819226687003909,0.11946523851951132,0.12031123780797284,0.08763188490713958,-0.021271785993526554
0.019832948103974804,-0.059500730395438364,0.011258128002901074,-0.020493771633337477,0.14371790201536444,0.11013127299055837,0.08613190582209362,-0.0068736166019138034
0.018120718585055255,-0.0651193521849037,0.0063977610188352815,-0.0269223437001769,0.1149940751235424,0.10196797096794025,0.05583751664373013,0.021096408430407436
-0.011500091044693676,-0.07400747869267504,-0.023395841613890623,-0.056893583569272654,0.07593762155104757,0.044095170512792194,0.004801534744650397,-0.01653605941242068
0.005610201242750996,-0.07821439936085203,-0.01647842471692925,-0.05490324138333338,0.09142734344192671,0.0733519364791749,0.03970096430542817,-0.0017930195840859193
0.0010048256124383262,-0.07044552177953138,-1.1119548304313771E-4,-0.03554043770396791,0.13876610122537988,0.10951340358338127,0.062417724438996756,0.03542208997942121
0.014679213537627784,-0.07688537692438162,-0.011396166280456267,-0.04385387568614451,0.11320719099132866,0.09838301653838603,0.05246144741367887,0.022613407554570156
-0.00233146836305147,-0.07501050206056732,-0.017711531907346655,-0.06967607669499361,0.090599042407803,0.058550869682597144,0.0027089887711113495,0.010949258209674524
-0.006379823662431929,-0.07766697936193191,-0.020346286650096922,-0.04800875348482439,0.08283380259950349,0.06522939550703848,0.013628913052461259,-0.034851446263459006
0.022547430966591946,-0.08108765217425205,-0.0014461966562945904,-0.03226954646493996,0.13511891475014834,0.11387112174669348,0.0768087909281631,-0.013450302722095103
0.011007155471817473,-0.05316190501984483,0.005273414542419454,-0.052406905296878706,0.11780398106598781,0.10263266846529825,0.05666992994160877,0.00399703115612738
-4.646335267494042E-4,-0.08701765024410861,-0.018757884420510424,-0.05334210097798678,0.09059681009620438,0.06076020047633942,0.01637123230553808,-0.03307341850223337
-0.015027611709416737,-0.08862539314610549,-0.02949432040320446,-0.049497459281274,0.09550729636660145,0.045348024788872635,0.00911614067113119,-0.029316745493165843
0.0019048952094797087,-0.08222990451505816,0.008210798968224537,6.905195920530204E-4,0.127764911012095,0.11377491956290084,0.07803576810702943,0.011973167559822672
0.01068494050418023,-0.08491984394442809,-0.006346255400796902,-0.011920433783085455,0.11495666231474466,0.10655577508211214,0.05357758060647466,-0.008371886686664448
0.0014594710517397064,-0.09882817334766177,-0.01898010707809907,-0.02610528502990646,0.08937467706345555,0.0572450405185646,0.0216578904090779,0.007617303953057241
-0.007661305652989303,-0.09817477057222895,-0.031270203460465815,-0.041576334330690676,0.0949368591577584,0.055285610159989104,0.01755533653343176,-0.0376521546603707
0.009108148976050048,-0.09580825200647479,-0.003171699946765244,-0.01157317054635601,0.12331084488003682,0.09835766759034754,0.06683777227040268,0.04487609582829341
0.00407244512834567,-0.08971141942920184,-0.014130197579120195,-0.04093331355939001,0.10068130249957588,0.08918653997702905,0.04206794148271441,-0.002922265790215297
-0.004020965802523365,-0.0775969637052177,-0.0278100026845127,-0.04357990072492577,0.09091866021347283,0.05385110373076088,0.019671803620685713,-0.03724511399137006
-0.01183101333426798,-0.06988607917473207,-0.0185724166922077,-0.02892117807254722,0.09049635159896732,0.05899142803111441,0.015214710409224267,-0.007819404551813774
0.017965548803716837,-0.06859097961667386,-0.006269092140013603,0.014602941583465983,0.12236251540528055,0.10984950435972833,0.07150837547571795,-0.012160286981835031
0.0021449779048497986,-0.07690856894557903,-0.007807591574424403,-0.007299118622865222,0.11435766847848476,0.08653853858844555,0.039121830913196314,-0.023219727237947012
-0.001106065604626893,-0.09791367994012622,-0.01293203882048994,-0.04398746589959232,0.08424814109257729,0.047586512225581294,0.010160323599573038,-0.01154539218832289
-0.0060351352464557105,-0.11487571266848874,-0.02759382900545486,-0.03192781347733925,0.09547970416962061,0.07043303106218446,0.024824377656327182,-0.03702129638488246
0.013705755555195693,-0.09752081221970628,0.008995602112690758,0.011330431876807323,0.14614445192670383,0.10894849556021388,0.0627203535111544,-0.004247240110113871
0.00795994598663174,-0.08361483978023966,-0.007875445342577083,0.0026039914336960686,0.12532034721019658,0.10710500180794931,0.05416918040263681,0.042281925865754674
-7.666696799422405E-4,-0.10782646853566662,-0.012206818326864762,-0.02276142466878322,0.09086542341534448,0.06801905426701851,0.0038924850830409983,0.0021976188871935675
0.010378778589701581,-0.07973231379676016,-1.32686040533137E-4,-0.019409718751403682,0.1195116262447931,0.0801393887375745,0.03680989436871009,-0.023804922406144652
0.016512199266406236,-0.07841812466819525,0.01733761230203796,0.005276970931213677,0.1468666055306942,0.11640672294738937,0.07065610314877328,0.006921090031423725
0.020648213517129605,-0.0821461049118671,0.011361796587731132,-0.02289524896675216,0.12355896887193801,0.11328958265356454,0.06442932548472283,6.607354752678963E-4
-1.8633739043450912E-4,-0.10014173304644175,-0.0011574373153248464,-0.04422615067949857,0.11260114891447624,0.06554179759820876,0.031323793952415885,4.540712247068889E-4
0.010909000544651598,-0.0792066905168183,0.009460524696331006,-0.0017673784285229407,0.12410167206345946,0.08808328614052528,0.04454791232330209,0.019192866204174822
0.021120906779055593,-0.07122297156547142,0.013605266078864394,0.014398377431613629,0.16209079100545903,0.1265571061362342,0.08702972411376905,0.04722258301526943
0.011900045707561159,-0.09268678408320483,0.018481378504763932,0.00653751127692964,0.1505636775955575,0.11207532254186238,0.06771366019803168,0.008472808050717465
0.01733184283829577,-0.08391476184068779,7.230954381551935E-4,-0.026786925008120573,0.1138274426990386,0.08210522046902861,0.03528984237855752,0.058079903925827674
0.016699180389898767,-0.08849076152853841,0.006671692257457235,-0.00982474341948496,0.12357658301401976,0.10146051850220739,0.06261796715448449,0.049449112384539175
0.032512044966473315,-0.07669652648074259,0.031662279178508015,0.009005260387462289,0.157953714615199,0.12519600290938912,0.09271440784553629,0.04119786014709115
0.0240677651112487,-0.10236413424104208,0.01776022696181922,-0.016907851697428648,0.12789266779758288,0.11059381260405726,0.0701998899715542,0.006013035094326151
0.01873529936571356,-0.0847758205812528,0.007343751153215161,-0.04666216450016184,0.10586039639557093,0.08088333477920143,0.040665857428552284,0.04256254780258967
0.022205340781578473,-0.0960179024668576,0.01918822516776362,-0.011411826645047122,0.13914310257505705,0.11780985820623766,0.08544671652789033,0.023376834354640063
0.03185345613733546,-0.09934884032315475,0.025513826085921735,0.005977545945717182,0.1591778561767981,0.1367899928110602,0.10535716167239687,-0.0021611596571139767
0.021943544849364238,-0.0997140983433744,0.011287725053145199,-0.019609699927110303,0.14691688928169638,0.12206306270389959,0.08083515468670921,0.017493897944180523
0.012016723711994344,-0.0846878988568158,6.337876296417072E-4,-0.06260728565404777,0.10787722118908938,0.07854192583592437,0.02250682670692809,-0.009356485590434236
0.02628247483716134,-0.09404516520298759,0.01783174743884309,-0.002934005273167595,0.15007394872541743,0.1336178452811079,0.10012692214802048,0.005689554283979573
0.03082477035580866,-0.09523675596677224,0.0192362128164141,0.009025499649761915,0.17430773448537878,0.16898440052503583,0.12593375863589693,-0.0034003602640519646
0.03281583305582552,-0.07794646598396124,0.022313714268094528,0.024565224367302945,0.15356895157294145,0.14339862230909164,0.11343748759150848,0.018398742095184592
0.021786616506178674,-0.08642029651175952,0.013077937074360356,-0.0067393525689931275,0.11786459742417014,0.11236306093922296,0.0652197956991334,0.010221990106931703
0.021398524047279387,-0.097302411266602,0.010292356218289528,-0.007626431463537102,0.1599013683727117,0.15209415795733439,0.11285602987929541,-1.8603873705137286E-5
0.04221634343120855,-0.09301735792726877,0.026604412324626427,0.013995220604185718,0.18070780930853061,0.17307719499290217,0.15785519773239146,-7.66241222532471E-4
0.043943422838431515,-0.08532552432238756,0.02501953621809458,0.0273389340764995,0.17250323602000042,0.17491841352520748,0.14079378638195034,0.014719213946711286
0.019355900714814352,-0.09765845319443517,0.006737528411537111,-0.0019442003367354695,0.1359278834156949,0.13178622225326378,0.09657578624545485,0.02903955271147914
0.027172325036853823,-0.10946596487185839,0.02872104695581309,-0.01868686768271763,0.15339098987404007,0.14267835009559285,0.11470783259840614,0.0120040977555721
0.045323560105188745,-0.1011697977105563,0.02535681487779671,-3.104006975559245E-4,0.1648176294522409,0.17727116822922692,0.15154910705933347,-0.011561830348534943
0.03945420611945765,-0.0951553205461621,0.036412360024722756,0.005388580247668781,0.16381601455861222,0.16422646571206267,0.12658653583357724,0.049885017908796875
0.02350999276897055,-0.10088969790373303,0.012718546315532563,-0.028288325045969502,0.11993555460418373,0.12220477202370279,0.08436441007535757,-8.352684121353914E-4
0.03065487427272601,-0.11086788858012643,0.019253815060621363,-0.017645128762574135,0.15064649985112297,0.14657123821994136,0.11344438177412047,-0.004597643082254407
0.03744810803267188,-0.10209423915112359,0.021136147392291187,-3.3294320766355095E-4,0.15179937385960643,0.16267336827177192,0.12628860645051962,0.02994953223119781
0.026778452583450633,-0.12076683998456521,0.022507899995710724,-0.020166493459587504,0.14447238331761417,0.14465228608577924,0.09987839399405812,-0.029572280370163566
0.015700781391258762,-0.10469211388876638,0.002179884297783275,-0.04736134373081716,0.1075482524104359,0.10423590862768575,0.04728278428784066,-0.05187879378760661
0.026279444566625038,-0.10723277574824805,0.019954642477583502,-0.02508143296652975,0.15215918556590569,0.15086735674594043,0.09081945702207035,-0.05411092419042757
0.03660846156100255,-0.09341906518777154,0.027950135107422766,-0.010466269878786209,0.1333875981562527,0.13734244783596353,0.08979998542806879,0.05027859311602079
0.03536354756757833,-0.09721125147041494,0.006148920950260712,-0.012028370800568696,0.11672920308667965,0.11741589701762815,0.06614415009494021,-0.00803065448478192
0.014558568247098148,-0.11570187306869022,-0.007308925727316193,-0.03924072173572885,0.12106422824477198,0.07965529412949163,0.031423879610837424,0.05782927199742265
0.02553617487993294,-0.10392625925677201,0.01754375414673718,0.0035995220335916104,0.14598519878534985,0.15381420835058704,0.10072824970141898,0.00934732724866964
0.03595934766279844,-0.10739824667243109,0.026254472882817383,-0.009625881896841198,0.153403373900731,0.1385160710046246,0.08501153812705117,-0.0029202228973203353
0.02635163542499007,-0.09098634316376555,0.0072706292793502806,-0.04169676507689586,0.14128079958461437,0.10138548419046588,0.0617897139773194,0.0023995907356672854
0.013168274551829855,-0.10120780407143401,-0.013587116362536143,-0.06319127213679811,0.1215143680770821,0.08870709193004102,0.03663781918420449,0.01137185475402142
0.02908253382650115,-0.08568119338407718,0.022411472155794008,-0.017916870309810477,0.16405680237840858,0.14649849287617087,0.09835558517225508,0.07561768726600451
0.026397710624555922,-0.09485179488312143,0.0078612786581185,-0.033172161865922846,0.15426050142527928,0.12990644939370047,0.08291028221980391,0.04554242571000554
0.017821508643533164,-0.10917228445147739,-0.005820345640012783,-0.056559486611516566,0.11228523544947382,0.09214443209351901,0.04166251078857879,1.6871811581197169E-4
0.013939149094595827,-0.11582732511718392,-0.008196108992135213,-0.03127493792503858,0.12560189912928565,0.08882273701544456,0.04723093360193728,-0.003443071459629035
0.03328791056891175,-0.09616494627276302,0.016650496046405394,-0.005330846514500601,0.16449062729812539,0.14363113403965816,0.09840093638059007,0.0072403597156290725
0.03351256075058301,-0.07906042185534887,0.02867022779965274,-0.015246322422131085,0.13820508831227146,0.12561519741883553,0.07403108568538486,0.018019064665111263
0.022000554690812937,-0.09324674737107756,-0.0043383961969458455,-0.025787816898761244,0.13219445198216495,0.10193035969772565,0.03880471601420517,-0.02481595176964182
0.01608044017733308,-0.09636298723458242,0.0019816013806199856,-0.029305209491492103,0.13035576571903437,0.08818950931531816,0.05234746590874507,0.05129409666965493
0.037641895090331653,-0.10410418483215982,0.01574548978785046,-0.011274777444178612,0.1577618315932966,0.132357030350246,0.08959279513025353,0.005866596393428702
0.03738049601869111,-0.09252912359121855,0.008616005545109905,-0.02041723033845082,0.14330256699586452,0.11564821788719791,0.05981627118552793,0.02977145301401895
0.02172507690067431,-0.09208342996086498,-0.006911906654404978,-0.03231718370845851,0.1179305690715085,0.07447946340376825,0.025885937951144022,0.02683887550821962
0.01902055054088468,-0.1001823610886785,-0.004676171243308972,-0.04666507067476419,0.11062724747575955,0.07470797648206635,0.02139316454944295,-0.020641695063329905
0.028093143987480633,-0.09861676351736634,0.01940466379429632,-0.018599760503704522,0.14076718665630686,0.1263427875999751,0.061847742265875964,0.013464322320068677
0.034986420620308524,-0.09996579808974133,0.0035452644104272866,-0.025871294746717736,0.12910103306206483,0.09571919764751002,0.04631131207270384,0.02275568757542188
0.018802553299952954,-0.10143832928804841,-0.006959724236396451,-0.05501351631215703,0.09914493120783474,0.05606925907901893,0.0012645352369660518,0.0051051161813146975
0.023137709620189174,-0.12551338608950238,-0.014405037604448041,-0.047017846664343485,0.12327393755661549,0.06672825669624838,0.006382509152310864,0.0025377645792528224
0.022548072365391515,-0.13549211421559454,0.009325373527476451,-0.03838292739238374,0.1400804143820481,0.09753108430513538,0.04458695814312063,0.016486769040303897
0.01671412199954734,-0.118740636697055,-0.0037944947928155847,-0.031185434749164867,0.11767034140562323,0.07805365165699743,0.019625412606310517,0.0019340113556613975
0.009335304950048544,-0.13048796750352168,-0.0313421431701635,-0.06924718656141954,0.08703397643290678,0.04161453682522331,-0.022696743548228655,-0.03990843601214468
0.011194521187874385,-0.1159934110218188,-0.01641460233878002,-0.04420565029726785,0.13153398259791965,0.06661234946833969,0.02355996202187315,0.033311490130315445
0.025570919323085948,-0.09110323282196942,0.010608800908461086,-0.03334780262568561,0.1374033189579577,0.10829621367397796,0.05247724708363806,0.004478681165114086
0.012608532228264836,-0.10067693353451909,-0.003478311403149674,-0.04040735633248671,0.12108842788362269,0.07189948297151612,0.012586956959919538,-0.027063014761365675
0.003055175924864427,-0.11543140409217414,-0.03729779308430174,-0.06679203314897916,0.09012832010245987,0.03350679983278736,-0.04338092839450521,-0.032454732799781415
0.018545211995342946,-0.10282655275996735,-0.015042598807103529,-0.04556250727015558,0.12656564435155884,0.07389161458294993,0.011621706946069637,-0.00895209566280457
0.01428740986244156,-0.11085066642347946,-0.0031649308939975494,-0.04439628779599884,0.1432706836582968,0.0926147726874681,0.03141307265424405,0.03754944618975363
0.009706517035949784,-0.11454631216953753,-0.010960503501535747,-0.05804901703673214,0.12588338347751227,0.08005696163465142,3.024849227571091E-4,0.012778000861634721
0.004386734477109723,-0.1395666435046732,-0.038373419950773854,-0.08449318508155226,0.08171941436839077,0.02722075713523955,-0.03807250898068159,-0.002090539990402424
0.009945941820409593,-0.12162370120300549,-0.0073360435511827795,-0.06857454628786097,0.12967417293172925,0.08355061023732441,0.03334825687311853,-0.008111684890305788
0.012486911021555174,-0.13273609033067887,-0.010784569866949357,-0.07034302352221355,0.13888467079952865,0.09998682718282506,0.03269448806340108,0.014311853038514934
0.007021756904326311,-0.11253993437477497,-0.028581093901548872,-0.06431185539910654,0.12397760027677006,0.06508659361121137,0.00966960594415428,-0.005293200196670879
-0.004339058929954062,-0.13505097556532142,-0.04015785665462505,-0.09668396653607787,0.08104592500141022,0.03943476851170612,-0.03323061338660562,0.06228104218260113
0.007672981131606308,-0.13018953392664043,0.0014812408118066458,-0.056638870254927066,0.14677474989374983,0.10212373770753497,0.04234550090368701,0.0012677986406552195
0.01488386653316998,-0.12005056186975484,-0.018405293865030863,-0.0638107640750558,0.13911108157504473,0.10104037096512664,0.04032342651408959,-0.01233294515377865
0.013352545521355445,-0.10854317425181764,-0.023393254963830504,-0.07908963229019873,0.12928066259423296,0.07736518704623256,0.0183886617354945,0.014466242221426413
8.034722810011816E-4,-0.13372513657752944,-0.04008281460813236,-0.07619447894461603,0.10395824709493325,0.05569802726175397,0.006754361091132654,0.03529694806952422
0.014781145912569084,-0.10608191273947894,-0.0038818861924100477,-0.059954390177266545,0.15799175200681584,0.12324381400325084,0.06870310797810372,0.017424228470259283
0.016434540129247516,-0.1207258781123834,-0.006329300683651994,-0.05193228364827601,0.16107098475573983,0.11109711879883641,0.05693255457293344,-0.027629458428733124
0.00672685788598916,-0.14201406747571885,-0.024950800711772324,-0.06793764869797712,0.13067859879567484,0.07734185604237012,0.04277434605331091,-0.004289768301492946
0.0065526175183673535,-0.10346164814701816,-0.019458249661881408,-0.06991987990067372,0.13689612074363902,0.0911880005960875,0.03456285953844635,0.0383809583589217
0.027620483910798247,-0.12750839913491666,-0.009742252616445226,-0.049448227494323274,0.15921391008539726,0.1541063858290068,0.09414453401231081,0.006383964810202635
0.026414189656341736,-0.1181038681227778,-0.010120734968437477,-0.05429658829035514,0.1453028643210191,0.12338575134118662,0.08759181855917283,0.010205362648187409
0.003945071070397846,-0.11615288733147666,-0.0233768514331382,-0.07600583319838733,0.11829721132240084,0.10088756644095526,0.046363517998644646,0.011751489214645314
0.00568251446734252,-0.1419177249001655,-0.020874541529679366,-0.053331714326790465,0.14692453282474804,0.12714124848558797,0.08196284235564343,0.023822411851412068
0.029282687613135797,-0.10652748933070598,0.004865079866584919,-0.041318010301309736,0.16864954726091266,0.15094135816050971,0.11143567318243024,0.03191416045174829
0.024370299681158784,-0.10185997674197377,0.0057019708420865305,-0.0573328357299691,0.1503095032035589,0.13870770799670698,0.08490376638753211,0.039769230267032225
0.0015476706637289374,-0.1135803271982866,-0.021798692593180746,-0.07451094254990805,0.11870365271069834,0.09696493869271816,0.050294454375315566,0.05050492396302975
0.011636999046201538,-0.11074567707476039,-0.007713775160782783,-0.05015511124390093,0.17336703013664026,0.141531124524678,0.09554105394657504,0.038788396251494224
0.01593112121578718,-0.12374334169841117,0.01143996002989973,-0.05249146096572422,0.15949501442957742,0.15135443156406767,0.10172692718293237,0.026377968359763675
0.03081810850304342,-0.09630128366996425,-0.008367553436840942,-0.06849012969154902,0.14783849095252202,0.1392958540377203,0.08476150442047439,0.048274049681108974
0.008711334928473676,-0.11788975096348064,-0.02305407314126658,-0.08166097777655464,0.13383070292479798,0.11108359180536738,0.0392138452382154,0.03225044986234831
0.025184883785147927,-0.10163086260009585,0.0036237110432322875,-0.032791987832618295,0.17787843671664327,0.1674321857408572,0.11753620799418261,0.08056666123034835
0.023172239313531448,-0.12191613709242376,-0.005545860799598359,-0.023700275296328024,0.1662130120132596,0.1569821368306167,0.10566824676522243,0.055853414634016905
0.016307729314589337,-0.12392201160796293,-0.009772311267933887,-0.06173472069442004,0.15864187408960254,0.13113347038462794,0.07217354742503433,0.044801535751419486
0.026193400855768947,-0.10669920534817653,-0.017096772394967815,-0.05908738222132687,0.1420220116826205,0.11908126773006766,0.06132066832198699,-0.010193422488145393
0.03999853882714473,-0.116679760128088,0.021299549098799525,-0.018587874721290386,0.19075054169642372,0.1579623415465489,0.12643352418577397,-0.014026431087311766
0.026771979832809264,-0.11424764445178642,0.019399985474098352,-0.020830456001619604,0.17063295358408326,0.15758458461486202,0.09930894642064003,0.005910396205152411
0.02511096716391044,-0.11350610930930931,0.0035585342338049593,-0.0544188167639654,0.15927071052611058,0.11685804666112509,0.05924553808385938,0.0034924125087312805
0.031913179889282266,-0.105158130499735,0.002408370761897067,-0.05615929948661571,0.162222211656294,0.13104081431033146,0.0715944641073254,-0.022709768162910076
0.04892188906225204,-0.08791358604373904,0.013114681816541941,-0.06039232954048152,0.19342909082326137,0.16333965207515216,0.11637168259699744,0.02129435121789276
0.037450638014452954,-0.0966420509929176,0.019630849984436628,-0.04960328198836206,0.16902926732569715,0.16160992757522574,0.08639492722482325,0.0108478293731834
0.029188674809338417,-0.10268187849023304,-0.001818738541987346,-0.06293945663253171,0.14544080414179963,0.114906575597475,0.050204850986887754,-0.012398522833557347
0.03510690648350715,-0.06862798716767506,0.01389929971895183,-0.032464960953425756,0.1675147892666899,0.157765036441146,0.09230906900497847,0.05909006866338774
0.05254521614276992,-0.08592456750117188,0.024671373164629563,-0.02863452168834765,0.18901114383212334,0.1566991114906783,0.10819572821372489,-0.017849692040384692
0.046563197916869165,-0.10395059044863074,0.011367506454608288,-0.037224036357987364,0.16001457581842105,0.12446672829801003,0.06845144041817322,0.07098418280171703
0.03652163873341116,-0.10237401773656461,5.962089254125441E-4,-0.05497319695957988,0.14377520457250217,0.10015862430709307,0.04549010025125079,0.015789145898245788
0.050924627007326306,-0.0865564768345357,0.03321045681368346,-0.03333865379067899,0.1735554000770633,0.154919888486183,0.1073684710692759,0.07957309619129746
0.04262400739673022,-0.07821304471706732,0.023283426232492976,-0.03375682407099353,0.17965101178457177,0.14828824275873803,0.10225257770449486,0.06290780150251483
0.04574704002223644,-0.09150866724850076,0.010588232573078862,-0.039244117508811974,0.15231687898476867,0.12546369433243654,0.039155223609955,0.02228212164119574
0.04071520428935021,-0.07342927426905806,0.012354966503751643,-0.06715693034607523,0.14929285311960716,0.11855483256405654,0.05658924350518591,0.0290986977660941
0.06218877118244816,-0.07155433280821115,0.03871243525817471,-0.014576036988260871,0.1824750855070984,0.16718186019700632,0.12823114139208708,0.07531507852425436
0.05170690369845301,-0.05485567932168642,0.024758656481363512,-0.036685707188030665,0.1918720339026281,0.16227628841911945,0.11532608464811994,0.07244780302504585
0.057478635911570965,-0.08083432649777121,0.0176030871023219,-0.0611640296667572,0.16050010532006156,0.14070865873191513,0.07816617806339647,0.08063530141253833
0.06157861329986135,-0.07729511299302301,0.018273668901298386,-0.016217796110504536,0.17222178723605844,0.1554036521886281,0.10779944460808324,0.03163837083022204
0.06771192898741223,-0.0796004371726428,0.03458958481748218,-0.0029218724951893572,0.18518458698786197,0.19281475872684087,0.1398452390009894,0.0875340995405851
0.0581409465014191,-0.10116790250520993,0.037677940921617574,-0.017884377123668194,0.17941388738690478,0.17762794382101568,0.12000160934970537,0.11538797618834347
0.029185964069337392,-0.09845912028698993,-0.010680814300802874,-0.04679142744140193,0.1646051158371876,0.13705156904205124,0.091373437309738,0.126414123833339
0.04275012239984627,-0.08916244675022131,0.017420154684481427,-0.021607352050548548,0.18877571898040274,0.17217166147935195,0.1299329292240902,0.13828746030577935
0.062126840824264076,-0.0945214274085157,0.04235325572809492,-0.019777693892319446,0.1933890683157893,0.18952947539965445,0.13130853797185563,0.10760065522414683
0.04875492771977873,-0.08935019777609784,0.03024154554391183,-0.011308730536135904,0.17110857591047202,0.17678016078107675,0.11467284112610306,0.10742877085379782
0.044367009521931386,-0.07018906616971711,0.02019471183879116,-0.06427797396186041,0.1464540175833839,0.131788860181683,0.0766499167514619,0.08729608656628132
0.04918179096503837,-0.07170219312983966,0.028593519799497792,-0.012970264022284255,0.1982496170694443,0.17496536377462618,0.14354935607559963,0.08803559531261289
0.06507407389015347,-0.07790744787190888,0.0306425632330992,0.003353274356352497,0.2010548024318487,0.19335651841963844,0.13850565787664879,0.08586546679719306
0.05194351472082548,-0.11070095951559816,0.03363760297451659,-0.012470912155260642,0.18932454759680603,0.1773371532353937,0.11674464131991248,0.018098492069911477
0.04208961892525788,-0.10354054569759542,0.005796521927646959,-0.045092802883292676,0.14011967347376406,0.12900055044259187,0.060808430086458705,0.047283902919454376
0.052944898376507524,-0.09724343638604342,0.03308126571323922,-0.007281634432382624,0.19422536682816863,0.19596943415322757,0.13719643179000962,0.1117440113008551
0.059974597431888266,-0.10376175991918359,0.038504710230738606,-0.011483416915859239,0.1944742657435347,0.18447660706230637,0.1431576163737943,0.10094639235468053
0.0383479891290244,-0.11774078697068538,0.015084235194211726,-0.025331529317427437,0.17093076572541804,0.16661242471721036,0.1031311903411757,0.06993837028123637
0.03142480204437039,-0.10191524651876548,0.0021895304199836393,-0.05000816483142622,0.13124574758327592,0.12293935412296327,0.065738355527212,0.09739700248662272
0.0355936420444698,-0.1062980647330189,0.022621468863435454,-0.019122962347359367,0.18778193358819326,0.19294044487142253,0.1469183775897141,0.08734532637870733
0.03772806806932459,-0.0930244782323063,0.02744161906774796,-0.02274678922655086,0.1781758044394903,0.17346011382846083,0.12599301272081775,0.07401559338964826
0.04187921344813642,-0.08682389222707174,0.011737215196738916,-0.02862438518269585,0.15877671524172574,0.1491823186698607,0.09902620111680992,0.09033883716485218
0.0257780596430395,-0.12436803181531512,0.0026696251538960145,-0.04976551328549609,0.11352109430786832,0.11827735942885273,0.05596407310345634,0.09243364453265242
0.034494281171417035,-0.14755211403991186,0.015576983996009272,-0.03416895783551158,0.17872757327398298,0.1834825424118689,0.10899974849038016,0.1385243746425078
0.0408355429713508,-0.1306683525826684,0.0029484932770220723,-0.0229355884165906,0.1786253093974219,0.15784389342591865,0.09654442776948584,0.12269533747887511
0.02752504344626519,-0.15484312960283475,-0.0060862196523699145,-0.06363566381886622,0.15457611878769983,0.13849531608400256,0.07756671688340694,0.11729071596527195
0.02209688118390724,-0.13338088571731296,-0.014817200031255475,-0.06212912544032228,0.1363346188558001,0.12633906627625147,0.05782450603744068,0.13169074488328564
0.036418106186774934,-0.13486486490420213,0.0025814109561544374,-0.04178021211893303,0.17897920276550006,0.1638339500256443,0.10768788483505902,0.10429519208572469
0.0363960440729123,-0.13200646263561464,0.00559822450291334,-0.05685070107674092,0.1531850511245522,0.15258031391555657,0.08626501641895643,-0.004674024637764656
0.027422379530411278,-0.06307457133554081,0.0025106217578022916,-0.06843480656315096,0.12192513677326791,0.11774185894633075,0.04912849575658912,-0.06198941925047926
0.019747874970615854,-0.06251121716147104,-5.239301808419251E-4,-0.06181088063747691,0.14623468172867726,0.11975710873299292,0.06403333053121121,-0.008830844462471179
0.03300156415949249,-0.03444623455967189,0.01950007527837095,-0.03068746364917531,0.148185474884397,0.15427858013785437,0.0821552879036481,-0.12558485502766023
0.025130188612774097,-0.002978565549017749,0.011267631664596711,-0.030475489373203463,0.12768945459435452,0.11521143796266443,0.06285214779441745,-0.1626711004492465
0.014779392592780941,-0.01010413821385595,-0.005372390095044563,-0.06475994662042471,0.08716345158012828,0.07724252155281533,0.006029686574322822,-0.2129656029694554
0.019200221321691247,-0.012347878348110023,-9.56908806097054E-4,-0.07286368805907113,0.12998933022240114,0.10855780300418691,0.049833604460152746,-0.16245906045385458
0.026423049388463335,-0.02532466658354167,-0.004932852737943103,-0.04395032767272283,0.132280572369114,0.11938098345870565,0.06601765184980837,-0.12630671362097864
0.013846463405291658,-0.016820905451469303,-0.010426559855217832,-0.06211097349947823,0.12490377401050311,0.10504502706746854,0.03949046235440986,-0.14812302458355867
0.011523846553308022,-0.07280656170560923,-0.018218368851409476,-0.09283883241356392,0.09066653868027165,0.06626744395872322,0.006898686209351753,-0.0967428174710563
0.016270000226829732,-0.06422672687260128,0.0011675931917513364,-0.05450963197416167,0.1381003824540144,0.13347875343236393,0.0657097756964316,-0.09432582301635571
0.017785332175656567,-0.1009892119661159,-0.002208403234351945,-0.038710250008907474,0.12313070311892653,0.10274778119516574,0.051714314294653674,-0.05906996498364805
0.00866718031382302,-0.07161326792843169,-0.015416771496641063,-0.05286430119491904,0.08297203215806925,0.08302407823562356,0.02706831312564971,-0.06026310501723279
-0.003785937033578145,-0.10507723863400342,-0.024928545828324416,-0.0832400743683768,0.10867893311950838,0.08587965881759359,0.017791422030118083,-0.09502293380712468
0.012699047934440278,-0.10039470429727076,-0.014974761777703877,-0.05898026160925891,0.1335002642857513,0.13384689234679348,0.07102791129611415,-0.05287870812770294
0.0046669796442134984,-0.08093719876873334,-0.01530763936020736,-0.07672273562898553,0.13076778422381208,0.11061622067272563,0.049035807388312376,-0.06469893867749202
-0.0013760098116140868,-0.09201451592994539,-0.03833355317091168,-0.09207229497946741,0.07868736840740245,0.08302954714307689,-0.0015690585088200446,-0.10005350979304481
0.008706146636795238,-0.12135302549281253,-0.022513272383483666,-0.06808315917543847,0.14209436770625714,0.13561088668558893,0.08946134898410828,-0.07573767371004035
0.019243130829734657,-0.08086046718674271,-0.005716460784500074,-0.050275448771783866,0.1431712255716454,0.13629546158641295,0.07944669640791611,-0.10857114323659636
0.013242910221380326,-0.1203586702399776,-0.025116811944877124,-0.08467549981168355,0.13132087730384936,0.11906433798688096,0.06214558066542716,-0.08224465744004801
-0.0037419245425626218,-0.08888207338328304,-0.04167181996765449,-0.10226174076732335,0.12024958251136864,0.10269069075429994,0.037437126252571715,-0.09041589128087299
0.015188666698872618,-0.09380994409997381,-0.015964697717320057,-0.05592573971686042,0.15730418041706573,0.16590826038661693,0.10917582021518706,-0.058803515066016436
0.009191893303076654,-0.13019659954185536,-0.018977499858168472,-0.0560901850969758,0.15348348889770136,0.14111129972839864,0.0810871945561383,-0.058496900449798994
-0.004108496463980214,-0.13934444771697002,-0.039969331483886227,-0.0763243745559977,0.1153720101401707,0.1130746348839818,0.04790613305801438,-0.06045398511996329
0.012725020346135471,-0.1474270467008916,-0.0324198205101013,-0.06485704217442326,0.13876144743391977,0.13400404643595243,0.07228042556774443,-0.008909102840107465
0.02056523720006741,-0.14589432252998766,-0.021005374296102854,-0.05048183484313315,0.1464193533626448,0.16338989655153724,0.08823438738953467,-0.03681226331126286
0.004599937775840812,-0.12704622705725868,-0.020213914879445658,-0.06922788371340895,0.144575273192546,0.13663221894838382,0.0753395401450226,-0.04994075078564486
-0.012680555346780392,-0.1463178867672369,-0.05096906389618197,-0.11063161169134514,0.08985402434122665,0.09153899032185141,0.015437012122920868,-0.03476818132941174
0.005840867935917132,-0.14179684926270336,-0.022599780668667583,-0.05859824309783609,0.15287350315510154,0.1473715952507788,0.09582600076582508,-0.05103204910787814
0.0063990869495867495,-0.13457748132811065,-0.01753306259046506,-0.0319930793132733,0.15048874492135314,0.15908079296554273,0.08102441100764685,-0.07300239752039094
-0.008395418298379238,-0.1351152028666205,-0.03480908768981866,-0.05547789240575916,0.12801689982315817,0.12656703562540736,0.0701144653284034,-0.02654192450743788
-0.01059424018777646,-0.12227246772387541,-0.04816191303574114,-0.07235086819974978,0.10412625696176576,0.0851942222914805,0.01079300987417743,-0.0443781223532347
0.011660983747238425,-0.14146291510112993,-0.03188017840085346,-0.0337878201341083,0.16358935903903157,0.1651066593406678,0.07640462324027478,-0.03529993268612549
0.014622003905513395,-0.13104888129921657,-0.03802021506007703,-0.06527786443367083,0.14265068750249021,0.13557383377444895,0.08084602963156295,-0.08317232600591148
-0.001131004468301174,-0.14088391629541042,-0.048870143624204575,-0.0640583209454636,0.12319418231168208,0.10324727893791197,0.035983803649955376,-0.08604574303586854
-0.014707638925881197,-0.15589262115344973,-0.047907639742569445,-0.09590884264509784,0.10872209356929491,0.08594310071836267,0.008791465013461886,-0.09776464414618916
0.002184645530320421,-0.1424007551813708,-0.030195148861330335,-0.07101960045871869,0.14880347624175214,0.1330685542453831,0.07171143408583111,-0.05578881046016461
4.8533609087414876E-4,-0.1311117384336158,-0.04524432449333964,-0.09583114546225889,0.14260049534108812,0.11878974741484273,0.03892310278905196,-0.036587495535449994
-0.0166667082139417,-0.15389860020787852,-0.06822641585668036,-0.1287042581691611,0.10344808739429447,0.08074766630851232,0.004105462547278357,-0.0468438172630321
-0.008925844717737106,-0.18026473537608345,-0.07695974147445458,-0.09299026202992682,0.11377695743629813,0.10608669744963957,0.0307906327206635,-0.05948566713841905
-0.004265406356032345,-0.13868782057835316,-0.06129212357089851,-0.08840620387390481,0.1432648426222809,0.13934969192081312,0.05586079171826604,-0.07614734059294583
4.77289333707036E-4,-0.1504423157159817,-0.06342328056628091,-0.08536250525345658,0.13896307477175723,0.10290676762140706,0.018837307747992117,-0.03986072111953921
-0.020836122466066354,-0.1743318103171613,-0.07641480318404538,-0.11725105334308082,0.0988450842160214,0.05300383218755506,-0.039033473023774676,-0.09397210953703249
-0.009218136232621629,-0.16366530674172283,-0.077637083927155,-0.13621750167083385,0.09307736283451543,0.0626067749459546,-0.024786863477044643,-0.062250271908828536
-0.004778468445096263,-0.15068030488016962,-0.0623050838870674,-0.1320662725322044,0.1346270228833937,0.10117383319332163,0.012573766547771278,-0.0672116551724772
0.005579803693791923,-0.17054742665182362,-0.0792381887948961,-0.11054580164922655,0.1268042030410366,0.07941440421018908,-0.014601521523401835,-0.07196137846742949
