0.03637214351743662,0.019695799404910105,0.035183013600080526,0.06197119303447532,0.09275983801798116,0.08747421139336076,0.09125968079528729,0.19986318375208728
0.020165767855920613,0.02988527129934075,0.002230014395257919,0.03134815344814988,0.050006715655400914,0.05272582174316192,0.039689501930176584,0.16033336955060992
0.025263756342070072,0.020944627020327032,0.01952875882937207,0.04551653130049639,0.06753341121723026,0.07337661512977108,0.07366414423760324,0.14481160103179683
0.030390383260258315,0.0031349484651874357,0.03205541269723052,0.055847103612562204,0.08396220335483878,0.11400379827836436,0.10923355781090974,0.16251588146014628
0.03056624308325264,0.009707789231025069,0.02406990999168638,0.044828422341623056,0.08450514712427462,0.08898073200729475,0.08487619200630914,0.19219140036136304
0.019525709625846217,0.0030340146764359227,0.005022802548338215,0.012468953021063156,0.049591236270849146,0.04512448529591064,0.04312711352001909,0.13697001822571608
0.010157353289035899,0.022699557920439657,-0.0015494311325829416,0.007226778506065373,0.057873836332940486,0.0569785841955088,0.045843616411159624,0.19192666932028704
0.02942921014998036,0.006222046993803607,0.019101894077261435,0.04858705723117272,0.09724429079380147,0.10584960285082115,0.10713890220708655,0.18895168833658352
0.02166142397099464,0.005893837965834255,0.011435426397328523,0.03767918270574852,0.07803174616864128,0.08896548032209554,0.08931879395972618,0.18470073030577916
0.009710172669831155,0.005760564951826565,-0.003079899201503887,0.012206735053299805,0.05929511114247376,0.04528176498991841,0.03707646840040524,0.1865242011259889
-0.0023519064137982413,0.004436413723671095,-0.028552422884123005,-0.011445973964772115,0.01818651058565212,0.012083900957387195,0.005304309301335415,0.17847331569953517
0.019062151566484747,0.003588281595065728,0.006126197244736599,0.025884329563877553,0.06633005504000329,0.08542367249135552,0.07439437402188484,0.20686088943888659
0.021400468683527598,0.014849321705803428,0.0014840156483331562,0.034959916993691054,0.06801209311999604,0.07484304873267816,0.07595185442092493,0.19593202022929745
0.010196134529396888,0.003198705970692977,-0.015019136121653436,0.012635126611047945,0.04821984550620606,0.048913627143297514,0.041714456688600875,0.18971740516693605
-0.005976178782188304,0.003499972668150223,-0.022199711947084935,-0.020997686367411155,0.020292531509919207,0.020157825718179753,8.517418596866999E-4,0.18365075128050956
0.004788684650721612,0.016787947379676604,0.00190500641075423,0.014802489589263598,0.07347426073359964,0.07996626796787627,0.075958773059789,0.22817678931574614
0.011621435013447581,0.02365504903730825,-0.0031536317178153667,0.01853732761969564,0.06707983801536099,0.07007440413418385,0.06096863960190393,0.22846323476368025
0.0018158826972880533,-0.00938481883033411,-0.02139583170938092,-0.007526060728680645,0.042890720598083326,0.049006895067620765,0.03568528840078654,0.19574763462122385
-0.020551569078513746,-0.007816684679570328,-0.05168275319019254,-0.03429489628200991,0.00428971893541277,-0.006396013731462393,-0.008910129819802649,0.16870753327885935
0.00552637925657096,0.0025184528824003377,-0.014599413667153508,0.006509249533557054,0.06700616629289076,0.07252246077682434,0.06742489460523818,0.20870757361588788
0.011660895009841351,0.00855758379929459,-0.012718387475475726,3.418735490361077E-4,0.06485448963445006,0.07433308033163645,0.06489019000262114,0.19475831296876048
0.009529684550810744,0.02330895921956532,-0.020288226753380788,-0.006215415909455381,0.05641480950998205,0.044950389063025696,0.03626725985941358,0.21793652029047378
-0.011514295259937128,-0.005109558365285854,-0.041551476633586354,-0.04966297010762749,0.006675676545377025,0.00704293644336065,-0.014699934188755363,0.1848831542152623
0.0036808601282295344,0.008115555389451579,-0.0188176675552617,0.0034630738861300345,0.05281331086671497,0.06368383898493311,0.05477153607675175,0.17344138394350478
0.010240661830925948,0.005037585100138676,-0.008871240404789007,0.003807807069475512,0.05938266223043934,0.06632078084897913,0.06703713287242224,0.20718792822143203
0.008595740159359194,-2.810528954978464E-4,-0.03807788922584361,-0.011567182635427779,0.03888936687392303,0.04705035335909118,0.027142144617168466,0.1972488190846136
-0.008195806288845012,0.02270283273003932,-0.04887796869086718,-0.044354661628550986,0.012330378329070352,0.010091153827975083,-0.0018017385748825034,0.17978162796235092
0.006501556489884185,0.0017062368209580896,-0.013541720846037216,0.007271994424610816,0.07018884135111074,0.08106643752796133,0.08287441271401351,0.21632614722463345
6.613579269431121E-4,-0.008935584520291999,-0.020192725433430706,-0.0032511706193401393,0.054330451871790364,0.07344810314219435,0.05463053649368564,0.1911241007355617
-0.0022584618042958927,-0.001232260045747481,-0.03123790571406533,-0.0050160808268114865,0.032839648436506205,0.04673973905249856,0.041309351909620276,0.17900313785489555
-0.01200413148185141,0.010923254017471642,-0.04064588636451766,-0.030490695120730583,0.022711938119824065,0.025849825322858185,0.012933198786281505,0.17378368500510036
0.011791172371868573,0.012030721701811842,-0.009864255850879421,0.006041366330948469,0.06996211732176122,0.0840353998433565,0.08891444833605394,0.181271289719428
0.007746714592456735,0.017355804640099302,-0.021563252672744095,-0.005183943823194967,0.06002434021465125,0.0629364679694022,0.0642613198876988,0.15077038670531603
-0.013091284209343091,0.00180982626574697,-0.034442591558085725,-0.03205192716506867,0.019370810639408854,0.02502617165843513,0.03083087425682373,0.11870914419900361
-0.013996564581402927,-0.0020938725414122554,-0.04563476784337466,-0.028574552196393186,0.01909109522711424,0.029157077660936788,0.013712216437652438,0.09208558211654708
0.012736038184803705,0.00579451139181603,-0.020859169715488225,-0.0026514397050034083,0.07454332726497198,0.09021966117265037,0.07878876367801463,0.17759116146856274
0.002016481828837365,0.014533387739491116,-0.026282776680680575,-0.0018968932794730803,0.07117052996181666,0.06860643262067088,0.07048910084254541,0.1533337678533015
-0.009629473961457875,-0.005727025871753777,-0.04056419697412332,-0.029915212505840925,0.016479248555665883,0.03416023489008356,0.01992482620709406,0.14204421292341263
-0.015265972189450474,0.008449536050222403,-0.04448154640218323,-0.03882012914118334,0.00921354568238757,0.026527175858381075,0.013121967716436317,0.16125464249116273
0.003815308014958627,0.0051892185901154485,-0.018794879072247857,-0.013222097266556744,0.06638735098613953,0.08570970068142625,0.07087443895977537,0.12406935517619486
6.276099298826512E-4,0.015082789642188385,-0.022719226991642597,-0.03560785918316128,0.0570019862959433,0.060697182813799,0.056849103872471246,0.17619419163311983
-0.005138179364195876,0.011189238935377988,-0.04136856241969228,-0.05743469066618056,0.01566319540484181,0.03319945500048756,0.015563540405624621,0.16911766177234885
-0.020236476644993086,-0.0014464954855136422,-0.04662230958455086,-0.07348863762125332,-0.002590873785206605,-0.0050091084524268815,-0.008617354218962002,0.162274705370476
-0.0034791047759673956,-0.012112787152040578,-0.018621157817030637,-0.03510580132070676,0.05467923572725303,0.06741770488624028,0.059620082307038046,0.14634705737976444
0.0015824090243632442,-4.0398576205034203E-4,-0.02514850103438397,-0.03993852268538277,0.03806833074134831,0.049447847666073075,0.03489828016349779,0.17397875559326575
-0.016392726044934205,-0.016027815456088685,-0.03316419058370174,-0.06272150107708793,0.020141311145216383,0.022485240705408027,0.001810757745008054,0.16200980278093752
-0.02468883132616926,-0.0016354110766609309,-0.0520535827384267,-0.08014872881093009,-0.0030882776304528327,0.002544942765752546,-0.015311865029512046,0.17613590389734318
-0.006870631548535792,-0.015431120933252848,-0.023680583255313695,-0.031556274651716704,0.04522358078479417,0.044833002647179446,0.03553271024229858,0.16297491880000578
-0.01944416118446741,-0.01683291839368982,-0.03903806594964698,-0.03694109859218204,0.03235414662623674,0.02894065667604638,0.01806621015696434,0.18219848634834254
-0.02859381331887441,0.001897020576425483,-0.05712533585729279,-0.045648786938100296,0.0017159583399970306,-0.006799261219127351,-0.016874673208584132,0.1253399478105171
-0.03247858851207133,-0.007267741230500328,-0.06706030813738706,-0.061224286194118946,-9.304513005804656E-4,-0.01677632351412089,-0.030746952816173134,0.14655587040275006
-0.014984950786330992,-3.1703665690051286E-4,-0.029388996994864167,-0.014131606251235003,0.05601706154953118,0.050923072109417544,0.04529442008846625,0.1709214107350916
-0.004676726721645242,-0.00932153539064864,-0.03847192831954451,-0.03177009401252731,0.03126051760887944,0.02934678601056526,0.034341128613471536,0.1398942749385148
-0.025380753522317646,-0.02784037603920232,-0.03933842077254326,-0.04677748612545071,0.01286002361398517,0.007929908497906618,-0.006175491446698048,0.10267949454261156
-0.029921585987236807,-0.014984601679682547,-0.04498255321914684,-0.05901773078785237,-0.0020267559364444223,-0.002430630876346585,-0.02081529042838299,0.12701439811904924
-0.010736009122668831,0.0011294317589077424,-0.015498187281777098,-0.023046293797657172,0.04643949784845327,0.05486965614740757,0.04919792412578589,0.15085326630368479
-0.012846552371712814,-0.0011653716878752898,-0.027528427762326883,-0.030812495901716787,0.04962494376756944,0.034587858342581546,0.03694033656792069,0.16361050207025463
-0.018911128410151006,0.006955750539039032,-0.04208588363457406,-0.06111106637229917,0.02100881342282908,0.01057228592357743,3.69207679613702E-4,0.187916808057278
-0.018460279944180456,-0.008380142958450913,-0.04277280411329517,-0.05628842060366579,0.005944987253126789,0.004987686808993575,-0.01319075120587718,0.16868864259805758
4.908960750462342E-5,0.015372002045013676,-0.013702541874644928,-0.022653170221233525,0.06278119695197511,0.05978451495836025,0.049356143640469016,0.17535835834725405
-0.0019811780159779144,-6.955705914048274E-4,-0.02182217881925504,-0.04879410621002533,0.05146732669873577,0.03665066121590953,0.03362984838212703,0.19509891954328057
-0.01546579459786386,-0.0065366748595560055,-0.037327015613967916,-0.07422476280327442,0.012424008257286547,0.007168427694561066,-0.019353423185477066,0.17659637265416464
-0.011743444229575158,-0.0012406882734611463,-0.030698905208148806,-0.04672097758021694,0.02524892479528959,0.022125980837967033,0.016717166517440055,0.16271426217029727
0.0064186378718105175,-0.00832539630054762,-0.02083455074571666,-0.01722474269889663,0.04872412357327232,0.04716345627228326,0.046889762603959315,0.14764324157289851
-0.0035772835530519112,-9.614187889199835E-4,-0.022079479778426225,-0.029587219689649,0.036333827291003644,0.030317500794412644,0.024222072434637566,0.1468432479135559
-0.012937226336349472,9.274361985049037E-4,-0.04038195193606078,-0.045061371267862374,-0.003971399247152266,-0.009721530054500455,-0.025290427914972456,0.1912263817041123
-0.005294612246743824,0.017350824408849275,-0.023549656238050852,-0.006991646819908423,0.054094836418921544,0.049268451041564736,0.03182611930108301,0.17215384556553728
0.004808733571067569,-0.006902142422618284,-0.009035490808131673,0.005513408861853267,0.06276858438397354,0.06530473570495604,0.05496309958020873,0.17216877347667026
0.0010719095696296536,-0.01325997966230523,-0.013413332876094919,-0.011524940843888595,0.048840450557761275,0.04658510907063414,0.031693217333822556,0.14566833876583493
-0.004131625447235262,-0.011961703525260377,-0.03402150048393736,-0.0371471756834485,0.009502426967268121,0.005755591858394277,1.8959425798526983E-4,0.1582513397383676
0.012679176362643648,0.009777255887407119,-0.002643474200623802,0.011002999729204162,0.06239729531070148,0.07347286464618087,0.06840594614514839,0.18388097254635627
0.015153368926494468,0.010740860548113587,0.004315353727568048,0.004764666567080647,0.0712769274215273,0.06624304685761855,0.06368826908868795,0.1741395299482043
0.01164603431997363,-0.008100710612251372,-9.713352617043147E-4,-0.010780549389620732,0.03931218664212011,0.04266020056589248,0.025901725041860682,0.16628730242266374
-0.004777367373976271,-0.009065602076359376,-0.02852999749624493,-0.03258434701334964,0.007748843692520886,0.01014299385445843,-0.0025240333005931235,0.1607001965235461
0.023916699291089256,0.014376740171651615,0.007273275282128115,0.011670200709208253,0.07126145975041336,0.07067236303459042,0.05387015887632437,0.17782002241321387
0.018364260394521385,-0.006559886250150734,0.009929503752945705,-0.008033160767474845,0.06135666677726407,0.05402421219298815,0.05231281866865626,0.17638560956667287
0.010828161524916339,0.011245781514452442,-0.0054637368991433816,-0.01702160985257442,0.032390059102365754,0.033491938735715446,0.025419076074963853,0.19496383909968656
-0.0036836801680222376,-0.019702697488285854,-0.026756710821004608,-0.024782978133959098,0.028187009088209865,0.007295389240814252,0.0020486670028472837,0.14755067528573265
0.012824334933970269,-0.012524390756237791,0.001000508684102057,0.019576518876623983,0.057467280327881134,0.06833477875039698,0.05687849101271168,0.15843054525234063
0.014844389534686489,1.353010371488994E-4,-0.005549605809148379,0.008984701175927715,0.050700878755085,0.04894286089896626,0.04282267554460425,0.16046022330206053
0.0012156928015114024,0.0012331585131105452,-0.017184405284122614,-0.014010102395528072,0.02279248415663132,0.02320679861883765,-0.004275424822328438,0.15594376392818732
0.00447734656015022,-0.007351198222302666,-0.014546633383438298,-0.015291011156149524,0.029253853940167135,0.020001590542748984,0.020218680435600343,0.18574330486978635
0.020359649079699626,-2.3451366072929636E-4,-0.002340003756675736,0.00942906415079884,0.058464228469392775,0.05771979983944237,0.053193315110537695,0.17515827035130732
0.020441243460020957,-0.006506198704127185,-0.005208525069056412,-0.015062163835640546,0.05807049158678031,0.04240939821436475,0.030885483831628487,0.12418772899812432
-0.0016915208458602709,-0.00801401113344959,-0.017553570706443956,-0.02034521283983292,0.02355855723604841,-4.585692595173198E-4,-0.011537500816178554,0.15314061568070944
0.0172745170234466,0.0064503922183526755,-0.009369367504040813,-0.007161432667509765,0.049732299550199935,0.0351547329317245,0.011670837800938978,0.20693382598856802
0.02895363921604029,-0.009722596962028686,0.009014289490229657,0.016810918519402043,0.06016260638304369,0.05647926388118693,0.04219868227616851,0.18044836999445632
0.021296260937887463,-0.020494993497745403,-0.002746977338993567,0.002403340508551788,0.045698603477923906,0.04261763821116733,0.01641731245099406,0.1440439808791985
0.004672459705629323,-0.014554741887070885,-0.016498378035830992,-0.021415896295655303,0.01813373609987877,0.0022787843867849485,-0.016824929272522163,0.1426071606288039
0.026685951610562145,-0.0056932065477866035,-0.0018556159001342845,0.008667788348161412,0.05485245333696423,0.04198836015846806,0.032893000734022904,0.14409554434771185
0.02858618624390287,0.01722445962747194,0.005796917418803664,0.013434005466250065,0.058796148115376444,0.04916440001085026,0.0498818524275005,0.15475203519586406
0.020365587633048285,0.00606530125769307,0.0026947964340400046,-5.189699488824667E-4,0.03963639580920247,0.03331136333885395,0.024116352014536407,0.11524282359671004
0.00651296357820166,-0.0024982324221362318,-0.024249376861852287,-0.01680559424776113,0.007838268756877665,0.00795584083634083,-0.004964680372309349,0.1277103007514096
0.027724845812900356,0.003095486960023222,0.020738336836261,0.024538043667528944,0.05621655465342816,0.06521996211213159,0.056068659077656735,0.14567995119697105
0.030472281810193617,0.007474153671141029,0.020012436076656377,0.022125702132874098,0.06043798418553378,0.059794853531862015,0.042792746441137966,0.14924653096044133
0.019385142656015056,1.493379946106918E-4,0.0045845165084429235,0.006351668146481221,0.045809523961798444,0.03261401326149238,0.02420662561852588,0.12076440539663971
0.0165572145677697,-0.0052756825573151735,-0.008219303687875185,-0.00875796243516705,0.015125550735598943,0.013597849922717072,0.0019856806009795162,0.1686159604524219
0.027959217345156002,0.007942002921068187,0.0211632752916973,0.02830847000141709,0.06755478722570361,0.06992842249579907,0.06689079268034984,0.19670914329448555
0.03731534822816647,-0.002029316048059497,0.01749120154960332,0.030864740944444552,0.06332984019994933,0.05937549487996706,0.06547641890602979,0.2013574956589239
0.034943191838414975,-0.026327607244218867,0.008373617386665942,0.008027116578060128,0.04918164806786944,0.03807948489123033,0.022637763633839108,0.23110649706261252
0.020738307488459003,-0.009544072810424062,-8.845605292372299E-4,-0.005155296502868112,0.0386154968786838,0.026862417540950707,-0.005106106358998743,0.21921318471322826
0.031647016398723686,-0.010152554627979692,0.020176213121383832,0.02064415048142597,0.07067369019878522,0.06936015531100091,0.06775924745496928,0.20087018656775973
0.028938539571349706,-0.015614422501777735,0.017489891171939706,0.022864637088974224,0.06240739835318713,0.06159695210934635,0.04662145754198766,0.23234146989970358
0.028241473314089917,-0.01548709097405983,-7.067272339849467E-4,-0.006516127282109152,0.04731562066658586,0.034723105384499346,0.018480104195999755,0.24806929901346422
0.024933009217412816,-0.011210639262712194,-0.006838823186451966,-0.010874285074577848,0.03600106322057697,0.025971518859182093,0.003848232309395242,0.2847866161197984
0.0395271770453952,0.007158593658585233,0.0162354026962256,0.01822852001921353,0.07071891502012144,0.06435208621376061,0.051947247654342,0.2753304513077459
0.03518559335194393,-0.014142536726685693,7.891729834798855E-4,0.02027382210300495,0.0510937788773505,0.035252621528138114,0.022593392192904446,0.2688769583354246
0.021968020528436553,-0.007924233153620664,-0.015126372811325388,-0.011501051930535487,0.031032355088624168,0.022148676944743987,0.0011657870790710845,0.2350054357536112
0.031167840760359042,-1.62633185285848E-4,-0.008964299697699636,-0.002858185598478065,0.04508516264151679,0.02669171493732144,0.02380684429674486,0.25314943552454383
0.041599344868529904,0.014233284023948335,0.015083995620060096,0.011680653783135528,0.06440740488888302,0.043678530599147475,0.03296435043437526,0.20606953271346481
0.02538062033051168,0.016074012127463372,-0.007959102961511491,8.383059781927604E-4,0.04732576632776621,0.035951636347399465,0.01971269295495924,0.23384995339000805
0.019588507048686178,-0.006809586497346368,-0.02595426483502322,-0.022081667855392215,0.004723721607888552,-0.0056760129942223445,-0.021474894978365182,0.21791658093174418
0.02677963695941539,-0.020310525225743916,-0.011184599441616067,7.020310578300173E-4,0.04737420189807687,0.03590545766886345,0.009983667041614026,0.25035715043978923
0.033403820880871155,-0.011088035639564576,0.002637451518171692,-0.010691491378193661,0.060283132027499575,0.0419153052618146,0.03276279369918637,0.24810355580681898
0.02993424347664385,-0.012154934300149571,-0.008943084827777573,-0.01610036325098716,0.04939152784044195,0.02573919947061071,0.01096856425830809,0.26113944393961397
0.007075997979528515,-0.02404287761359091,-0.022343896695103147,-0.053569484229031364,0.006508096789464212,-0.013436962588908377,-0.020487049012302985,0.21333059770921964
0.023475402330975288,0.006126146667473725,-0.017684608774649353,-0.015496314602449362,0.04091285696306316,0.025281450361758648,0.013442368802602092,0.29654316271027714
0.02554461723234204,0.012189570847845763,-0.009992341307730284,-0.007980407350497758,0.05036224655174017,0.04197658632616377,0.029949075272303588,0.28426190565251414
0.02140503474456692,0.008024631395663739,-0.013867016237687938,-0.016029529125805256,0.039027246558885974,0.024569262355319324,0.004769025051881426,0.25174162745283774
7.168619458518839E-4,-0.007076676761700044,-0.02392101818947996,-0.0545550980531758,0.011860455480266105,-0.01811330076928254,-0.04362122742804535,0.25375287363550386
0.00674164278013069,4.514860791480606E-4,-0.02278111302817836,-0.04796960148548801,0.03920576634948136,0.01518094786607875,-0.005566078588161966,0.26309782682034694
0.02364876397243611,0.00515144494880845,-0.017152906160577172,-0.04242996384685972,0.04374823954436109,0.03785644476635655,0.011416924779338603,0.23744930509698142
0.012032955914161597,0.0109854263754193,-0.02907906845134765,-0.04493709837807188,0.034026734714899476,0.014081444962033944,-9.298088023278611E-4,0.27495563588410915
-0.003774800660520536,-0.002667476994620551,-0.03982360101713655,-0.07446642838348641,-0.004063950963262343,-0.02527105104131183,-0.05021104662134629,0.2242273388508486
-0.004573555398185054,-0.012880678018261801,-0.03925379561575749,-0.04513886639932911,0.03760916236723294,0.013589747629146422,2.1124509956754745E-5,0.2531656779489684
0.008775678579261937,0.012268090837289452,-0.02227982325984429,-0.02713079629310483,0.04635351318468807,0.037677725378868335,0.022292148751651225,0.23963007862414243
8.673868278121239E-4,-0.0026405578592021625,-0.034164265633925536,-0.03865951356000065,0.03855272570553931,0.006640741087486683,-0.004659325895937039,0.21797640897838738
-0.0037337679216239567,-0.02082293188145715,-0.055021735123553336,-0.07464202276431575,-0.004368252667808834,-0.031841001586065024,-0.04064010758768019,0.22775544751466686
-0.007961931091770548,-0.015993796264488935,-0.03963823874478709,-0.041751456735168835,0.036799047363581625,0.01699257565225077,0.003669070238375982,0.2476353442015204
0.008787141573684997,-0.009506957950702836,-0.02344606107301345,-0.02744221211895561,0.047259167611205376,0.047234866479130416,0.02462647584574995,0.2397804785653444
0.0032951565827394284,-0.014422837191795893,-0.023802411575064155,-0.035124989143087544,0.042252823125037205,0.026823659416325207,0.005638584376149419,0.2253919251525584
-0.003915003510353898,-0.006834036354636561,-0.053059084930157256,-0.06737090635090366,0.008841595384126596,-0.01855034822617191,-0.04345795707394816,0.2268424350060324
0.0021024387878974173,0.0030552506930618083,-0.03647221954210059,-0.039824796980678416,0.036961701630267504,0.03187108631348508,0.01277135773696049,0.25673689344466194
0.011599278279754734,0.002795301894513356,-0.027517330719732978,-0.02776500702363187,0.05159698590262068,0.04902902735117681,0.022283564146779386,0.243612385642659
0.0067259849889321184,-0.006326496632204311,-0.0343536019263769,-0.04876453610044514,0.028975980847063286,0.027206446558247,-0.0026214461894769475,0.25334164152699246
-0.010973207455078092,-0.014291014069466458,-0.056847357423140316,-0.06837294874472566,-0.009106463713609864,-0.02276885744940535,-0.0477162281334758,0.19469830921820622
-0.00432592088195014,-0.0043742393095164145,-0.02375957171509508,-0.02864620112428766,0.0402772469063772,0.02527538242185207,0.027653019908284962,0.21865936890120807
0.007669174657876395,-0.011227635055548548,-0.02333679905930145,-0.030765105844425326,0.04432607434672317,0.039215404737827204,0.006862087671218452,0.22490401135218602
-9.067550371474071E-4,-0.01574333003269285,-0.03280584902812468,-0.052237103565800386,0.02337364199525507,0.008063291076944937,-0.013013444731463403,0.24661924277154873
-0.016854355462615385,-0.031095687606391025,-0.048807670698546725,-0.07559023996409084,-0.007119554517082958,-0.021137631319471446,-0.04050927827404896,0.21810442943164438
-0.0027699861987109872,0.010981975252901354,-0.020770856824871183,-0.04942699907586047,0.04500337305717673,0.04403487250904349,0.02680097186247652,0.23772619606115547
0.005180402187501524,0.007357085027924801,-0.02715235631087004,-0.06359710541046656,0.030820696783820815,0.026043283455070846,0.011355544596383133,0.2676369627483625
7.08919432078816E-5,-0.00354462593907923,-0.037198651398579974,-0.04673911012047618,0.01996664085482957,-0.0017328802063171847,-0.018305347981163803,0.27328372576855686
-0.01725077689064826,-0.009297122255098583,-0.04891148334395752,-0.06437560434170056,-3.091577948541235E-4,-0.028247068814209263,-0.03994534062265637,0.23575233820594493
0.0026633730750850876,-0.007785619494955348,-0.031062370945822013,-0.026552941549362434,0.04970541726453175,0.041715571730607345,0.029083959408141576,0.30251492381747525
-2.5207246522482817E-4,-0.012448330696013187,-0.026821551003580503,-0.03916093284825948,0.0512077614902645,0.033638007499462275,0.018003445988994525,0.2651844649374948
-0.007317236772595799,-0.011220390281828089,-0.0434747663835561,-0.05038474565066464,0.02647910126877862,0.009739346743343452,-0.010521164448161452,0.26205776024730554
-0.009541124823570425,-0.007985756756909858,-0.04579535741366139,-0.06638672617960173,0.014141204508412077,0.007720246192126155,-0.010058598109590186,0.2486781122970496
0.005713581071208111,-0.025298096604716866,-0.025348346123661623,-0.02391814214182334,0.06939642827066418,0.060881036403813885,0.043286479739231096,0.27325207087935344
0.003954978673858036,-0.02175508262987971,-0.03098657886627946,-0.03511581083539626,0.04724991634919809,0.03818061401369416,0.022458365302938675,0.25333695686866164
-0.0045173219498681055,-0.027976501585650564,-0.04358893491362053,-0.06183516938985921,0.008887797943395115,0.0015957642113903145,-0.012739176672630387,0.23359843971979685
-0.008087451972912933,-0.025557370039240225,-0.044470362910034394,-0.05297139925279045,0.02661311301164143,0.02710610091869326,0.013333459051482026,0.24180447401965324
0.0051907346606031085,-0.030233970686214397,-0.01877647899618184,-0.030635785694719912,0.04869453701869275,0.047651968538298756,0.03901787182350973,0.22751271065223383
-0.005287200116637185,-0.014623220834997052,-0.03832287899991061,-0.06595264854117863,0.04198836685438706,0.036255699142861836,0.033222715379910644,0.21980607383208012
-0.0078832959563268,-0.03117694255135865,-0.0632998924989246,-0.07938728071604712,0.01083059804319571,-0.004013102030973367,-0.019421386797675445,0.25462979205905223
0.004396627253415206,-0.006256309099927065,-0.029249293967765697,-0.0426049678601342,0.059644866002638144,0.0529308521859581,0.04921296069575951,0.26123379590414597
0.0034817439941570473,-0.01800247562958551,-0.024866451477835505,-0.052591139644550006,0.049155081253333566,0.03980581577854141,0.03410979654176234,0.25170008138485245
-0.008454248406480524,-0.02976195137484261,-0.04248224934141195,-0.07539421198132837,0.03867680618328417,0.021701477895483517,-0.0018860498114095167,0.2536591434324837
-0.012851161995006195,-0.02777085541883748,-0.05607825081488214,-0.08696967459069918,0.012422249663556088,0.0027357568524410576,-0.011618154634406977,0.23892952079294444
0.007613437899655215,-0.024876226246839658,-0.036048269550534695,-0.029319517261338062,0.06541253927705287,0.05974315573674969,0.056379558887850914,0.27044711697338475
0.0049485826363268,-0.03126224900950388,-0.03168277039289649,-0.047783570859687284,0.04549562740239807,0.04890163753291135,0.039810177296875394,0.25162088588301457
-0.004165342097512643,-0.024453819912911724,-0.042133141735468546,-0.07672664230710882,0.023759554300553466,0.02759615508217441,9.61783866853496E-4,0.23866805853346423
-0.0021772886603429863,-0.024291680945266906,-0.04274487102470983,-0.06988906311437397,0.03987988270018743,0.022970470879881227,0.008198311077855496,0.20747425116417734
0.00696188222042691,-0.028465152007509157,-0.022213797214620266,-0.03162540222598766,0.06680099387401514,0.06964348721797577,0.05942561531246427,0.23172401972662499
0.004776627485744637,-0.02723123559682759,-0.03206469641803611,-0.04648012091535689,0.05636036054094194,0.04569771019478004,0.032994488606773995,0.24954756817352008
3.659123429663215E-4,-0.03975857918955858,-0.04849965557054201,-0.06957791056052925,0.018407114169017948,0.004997206357080373,-0.002241589105293172,0.22849254925282692
-0.0015478148008495982,-0.01337139816762858,-0.027630219156797215,-0.05198298020932123,0.044633101838209954,0.03729324147464408,0.029590000801741203,0.2353693978213815
0.01590299030249373,-3.1678238817527474E-4,-0.016417969189934295,-0.04022247380499202,0.06432120772091385,0.056382947163115336,0.05416103082792943,0.2725657539923978
0.004315485331747143,-0.027526486737464745,-0.032269292466834305,-0.04362816828820551,0.057864689071657385,0.05477325186300416,0.034909797871074275,0.2188343607548237
-0.004223663932530552,-0.004439466035193285,-0.05154750747360408,-0.06944047374591397,0.032011775458780825,0.013704913759029172,-0.007045520018569194,0.2143881345956697
0.006522852263799573,4.901695999685388E-4,-0.027611335299498295,-0.029307048674071412,0.06337947516567458,0.06885746411229252,0.06850989576070493,0.17184273096497757
0.014242250396387362,-0.007860843796805246,-0.023742423371424994,-0.024756126411911477,0.06165714796573015,0.07054009623526314,0.044713539332241994,0.1449681718179399
0.01707493705601126,0.010445351177048375,-0.03322188462762762,-0.04382651077069527,0.026084718947471136,0.03583525959057474,0.024029424455902813,0.1058549114406898
0.012003295232950871,0.020603665561751992,-0.03080561651005845,-0.06197044075689569,0.02985141526945037,0.030966762553705823,0.014048802842359308,0.10886732604036567
0.02263714430610383,0.024797042201435866,-0.002812338301098817,-0.0026607107880786615,0.07320992159909903,0.08585005127123864,0.07201769485567454,0.1221686235164197
0.01591238706022852,0.0454475739340925,-0.008921489925983718,-0.024046452898289578,0.06213553718516816,0.07445261843074853,0.05132088652760002,0.12260654631052792
0.01483646260473391,0.015640917837699123,-0.032223412438106856,-0.03712858268166711,0.024056769628536718,0.036240862249841715,0.017989455545497822,0.09002064811938482
0.016287762972760116,0.021322806045213187,-0.030607908743203502,-0.03796382868228776,0.047749109541386274,0.057004417445359834,0.04440343778966264,0.12063384799865629
0.027974068857267477,0.03366999802966793,-9.682863060254954E-4,-0.006069245444311977,0.07436405767772988,0.08577945371611045,0.07402962366002276,0.143267836683894
0.030260234392577662,0.03151997605772031,-0.019313457672731422,-0.03454643351503954,0.05709833955737034,0.06366438722505648,0.05315092139009476,0.1297067434680197
0.01791570453024251,0.020155927266250658,-0.03985283461005614,-0.054292457491515775,0.028663327914997615,0.03193349103928749,0.005418892871668355,0.12252499163020819
0.017469354982603092,0.030787753959817768,-0.013875536713238247,-0.015816702689068568,0.06534782091403546,0.08095759028967262,0.07029098901984228,0.1519158452217774
0.019882771721289213,0.03499098085964239,-0.017048646760119152,-0.02481647990210311,0.0716375155803073,0.0809941194384573,0.051481193794799214,0.1573599012216281
0.019975456960050653,0.021891416400429062,-0.028346980958969162,-0.048396850149831694,0.054826456073858804,0.05430566327329028,0.039184079826681525,0.15767439994948151
0.012581295713935061,0.03633000267929738,-0.04727673428004587,-0.06029381463720998,0.03576733178647687,0.036306321862683,0.008637969254613341,0.1405422505951896
0.025761719524339033,0.03492414395139869,-0.011770311493293887,-0.01743550467428662,0.0792906300602514,0.0939774487361419,0.08747077815763526,0.1642578375148105
0.020723933273190782,0.020041068654298173,-0.01988585310986839,-0.020758577852241597,0.06273943291277999,0.08280418493840937,0.06941184349622381,0.15052723048145628
0.012756414458000931,0.02035038206710018,-0.0279965268580063,-0.04044861340457366,0.04338291523123866,0.042471579922761335,0.026238394913344565,0.17241228105466178
0.012008624664933142,0.02371778574577402,-0.044832091343132686,-0.06529125598998989,0.024753907204941576,0.04089190911093567,0.02962900392927768,0.15616184724354265
0.021398266015879443,0.014320045871207263,-0.02185421373186748,-0.021343906059660765,0.07826262085140506,0.09464837549185924,0.08164504892362434,0.17582869177548882
0.017615156941713943,0.005757996847866018,-0.03396840251535897,-0.026153591015599467,0.06443410860117842,0.07680235985846491,0.06704314028529736,0.17438725588029438
0.011773870749957314,0.03931565389594069,-0.03514092828121071,-0.05497024094411013,0.032643133676748134,0.04262567522022942,0.026890591849973663,0.17601950522513715
0.007594908072925727,0.024614351688859643,-0.040551391919560385,-0.04673843341304303,0.04838697045482843,0.059513094460222314,0.04683780651633945,0.17622722323518394
0.014436651870048549,0.02023925384482518,-0.015875098382190353,-0.03249548379029437,0.0825136604956398,0.08703580207880496,0.08066595733971645,0.25108223419380804
0.01835222617973238,0.002828588545562387,-0.029186979956459635,-0.03178134974729749,0.07100846710002476,0.06032606402316624,0.053462205876652444,0.22095822838043483
0.003643508138863003,-0.030355417608398196,-0.0442752956911417,-0.06440894055521304,0.022736827754664384,0.028228366032280884,0.015063947499768745,0.1288682946946066
0.009001873712210437,-0.01608008351093989,-0.04093501112785626,-0.03681000558352327,0.046139791066345456,0.06213053879712779,0.03853462441270282,0.15203591098923086
0.016461578938205955,-0.013664593194877157,-0.029998562440611467,-0.017864763427642316,0.06948036101141758,0.08414640238721403,0.06499473157805336,0.16007676379656524
0.0033594125881720935,-0.006385230729425359,-0.037498863714368,-0.030554158816221127,0.0543707723014263,0.06088960223193954,0.04525920825012478,0.1682842830053491
-0.011988013805605397,-0.0014047346323890902,-0.055409281219156795,-0.053695485720064794,0.016346687352269358,0.030315301814247655,1.5687361967452532E-4,0.14820198306393614
-0.004576583511319822,-0.006050825702647474,-0.04562153874788789,-0.05679868414663941,0.05362689163658513,0.05038066016287858,0.03417212386648799,0.19518440829436504
-5.155487418645032E-4,-0.020455685217620218,-0.033102679119995454,-0.04696120773214952,0.06097189579298952,0.0654296196283972,0.04750442297032974,0.21182294461140982
-0.005571306562445139,-0.013170046876516347,-0.057706231766873214,-0.06282263117625814,0.0359992345625956,0.04096410402841075,0.020244766744594855,0.21813589692492075
-0.023607709568024375,-0.021400192004598338,-0.0804892290598555,-0.09328639474113742,-0.00220223857330969,0.005219888187865297,-0.02800345419981392,0.23661404810638542
-0.014754290823457031,-0.016220828830525103,-0.05351721270200853,-0.06586061055967102,0.04784650335471043,0.05458668324535026,0.028338208887541856,0.21587382956499818
-0.006362246604461337,-0.01851870269160323,-0.04805892587304338,-0.0597909012927888,0.042885665796418865,0.0606306095407041,0.028903507417303104,0.1937076667946024
-0.013845613703506225,-0.037400040436854486,-0.0718644831253433,-0.08222594622134385,0.03159498926412879,0.021874285417492735,-0.0023225427672082426,0.20086399801950172
-0.029996157768680445,-0.0310833502676606,-0.08403431487060961,-0.09662300402003286,-0.011229502263270947,-0.0071559330500070815,-0.03948104283577425,0.17738085550779525
-0.021126184129115586,-0.011452105763429123,-0.063612970222514,-0.06999710331910872,0.06112592757708227,0.05958932682161911,0.026105797134843255,0.22248271234267009
-0.01525106204406309,-0.021668395094154823,-0.07062018544896782,-0.06543566833450057,0.04088183862147271,0.04577704163654591,0.02737999815997433,0.18578558293119796
-0.02220834160297893,-0.002616319541924844,-0.08114683483187006,-0.07913227573027684,0.0197552950116815,0.010247726042437502,-0.009591830585614025,0.18598175668436256
-0.041041366638157474,-0.027104817783173828,-0.09685836356554453,-0.11557842808136157,-0.0036007868092131946,-0.016349771441176355,-0.054824922919353196,0.1881330968844812
-0.018429944065680923,-0.016846533333767538,-0.0741371485139216,-0.07824593294605214,0.03678143082691687,0.046026236263349465,0.022950368475176505,0.18478304981235716
-0.027753982278154548,-0.02993504568459098,-0.07141421075447234,-0.07189684849830076,0.048910992621850086,0.03291616648174219,0.003890761497246452,0.17448698101647447
-0.024358914671444937,-0.03210641159508282,-0.09010268820216634,-0.09340924613385562,0.008684678990001807,0.008133008712210774,-0.024971012809929142,0.14732009588497819
-0.039086366373656346,-0.0428922164197472,-0.10061881744123899,-0.10686173752647729,-0.02704108971511768,-0.03243571608485987,-0.06169202234238411,0.15295829227350827
-0.020408354954776567,-0.06308229999575987,-0.07140965992893829,-0.08353417583064558,0.034823295542930136,0.026142912733303214,0.008910462786786238,0.21152733275938196
-0.018871691140483732,-0.03709446959431732,-0.0835853763855785,-0.07504795102962332,0.006150123243944202,0.024895897500474985,-0.015054603317694084,0.13191124799678972
-0.027283962252407465,-0.038737112147656926,-0.08950441618211184,-0.09545445362480745,-0.005014052062122309,-0.012635794508216652,-0.053466772918178904,0.19222405291280056
-0.05247617141225793,-0.036338428337233164,-0.10689779309181976,-0.1208495159234843,-0.03303966383381248,-0.03662071141953507,-0.06607978084351326,0.21722887292442955
-0.03014459537329532,-0.034621301447458966,-0.08168068826948796,-0.09213593771008184,0.03255211273368465,0.02118104989997122,-0.011574920072758881,0.19263601744658312
-0.03633362413433063,-0.05859602064900753,-0.09954434552586874,-0.09460769880718431,0.0011126167430894774,0.004638332617646668,-0.030599773357393823,0.16612917808730335
-0.0491916070438249,-0.06761617297905836,-0.10769185455902694,-0.14095707194084206,-0.007885908046980097,-0.03438864969441328,-0.056912645707777154,0.12996343173963676
-0.053996436367662326,-0.057928501826657555,-0.11197486734704955,-0.14052441412942623,-0.016922668849625244,-0.04799010647060841,-0.057670391069287064,0.18933036998231134
-0.042302054176575676,-0.0471681001666616,-0.10033392563893842,-0.11199086697304136,0.02887984163627387,0.004980891226177054,-0.022549170386957914,0.17879724604338215
-0.04486878071543715,-0.05408194543924433,-0.10552052446384827,-0.11281886875518052,0.0027573747083770375,-0.005761836089514451,-0.03935940422423295,0.17712255796474913
-0.062031668070175135,-0.05743868562770814,-0.11772182839383055,-0.13815743823955676,-0.014050970500699362,-0.051503580121776714,-0.0766953526397138,0.15166966662232328
-0.05612608160237733,-0.0516633235289212,-0.11317854011674389,-0.12580637730933406,-0.021646556412888752,-0.031001592371285636,-0.06777978872016105,0.1503256281471853
-0.0380152090353172,-0.05836803133084038,-0.09371474070861976,-0.10290174179750439,0.019726365295293608,0.007482994487246777,-0.012701825990884829,0.1838798882142614
-0.043692262587471734,-0.06139788674331389,-0.10868185658610274,-0.10869710844450228,-0.0018386090833198846,-0.009456533111179964,-0.03787564082355872,0.16957400792080035
-0.054128477321065745,-0.057353622212767456,-0.12977960414707365,-0.13203417301491815,-0.03239903576163317,-0.04746420518983578,-0.07517242418447631,0.1478522990848069
-0.04974899484275751,-0.06356030670848845,-0.11523224886033792,-0.1281032387473331,-2.0335798336645634E-4,-0.026121498956122372,-0.03902593370739317,0.1900043208160952
-0.04035478428875293,-0.05594989997022752,-0.1018466305768362,-0.09709519851948592,0.027906752605382737,0.015699734897313078,-0.012412377018227966,0.17240176378711614
-0.04041759748754002,-0.07603263295752241,-0.10700710307436233,-0.12287712404673762,0.015589969844935717,-0.010156428550862389,-0.03625631254581754,0.20085641807633908
-0.05300524732243143,-0.046081148626274146,-0.11007775183386023,-0.13681023850174015,-0.016831754540093197,-0.0215265018866867,-0.044491281093867546,0.16626779229111205
-0.053287143232640805,-0.0841582295322861,-0.06307255461909139,-0.05480367298024364,0.029620605462896812,0.05708976924631194,0.02353806568629089,0.11856839304447471
-0.04990469371016809,-0.06374437132909694,-0.04387464923220617,-0.01652515976061855,0.04553342922766447,0.07574656769994788,0.020364127445440874,0.1864722156739409
-0.05959438317855498,-0.07128788431680742,-0.06420589622094328,-0.031177632019425864,0.025309777443694642,0.04529069673459544,-0.0028813802946778336,0.15262755853743754
-0.08269580322883273,-0.0661203984232802,-0.08809570611930215,-0.078812437059843,-0.014401950585546906,0.0012038191798321302,-0.04808390304025092,0.15319166251836677
-0.06261124667708101,-0.05251888567144107,-0.07028203822149734,-0.06203527213546543,0.04269150141469086,0.06013067189493555,0.018085015774253987,0.14011385152734776
-0.04861268886022459,-0.05078315050392619,-0.07711179521468885,-0.060617989379864824,0.04215983018011944,0.05858224015112242,0.014319820027749074,0.13060122243545724
-0.054793103119577774,-0.05085224134159299,-0.08329141754003996,-0.06546626848124806,0.020136030754799153,0.03204445505879314,-0.013952310764042943,0.14636935468650944
-0.0683890440313675,-0.06505544292625651,-0.09827946978749495,-0.09101723964788765,-0.0149473208080062,-0.011147641257608205,-0.055249363001311655,0.1326980422467617
-0.04729214506627616,-0.046677251299943746,-0.07047776746977229,-0.053640706732944576,0.04947282420687764,0.06308603561023537,0.02368477157879823,0.12524086499803255
-0.03847747351992806,-0.04701159858512329,-0.07271411943043558,-0.05523616439283882,0.043354096851996024,0.06074300062843395,0.024559590079876927,0.14474984203851418
-0.03767477181628939,-0.012982624543373143,-0.06847739765206184,-0.055922240618917096,0.022005588668966326,0.0411269415467132,-0.002569075227704852,0.15732684579139516
-0.05510783492235021,-0.023905967777689385,-0.09750362614882944,-0.08784922244014992,-0.020198123095557116,-0.007727460672206341,-0.04815438578115776,0.15419597388683323
-0.0407750148233814,-0.028039748949395035,-0.06810190849579145,-0.05357962083929173,0.04622639263059661,0.04950072907863815,0.020522260723496888,0.20062428126527987
-0.032049089819613484,-0.005733709942807811,-0.07333673516845059,-0.04834910959324272,0.03627512988750379,0.04826503278302064,0.013109575209836188,0.15236747892577515
-0.03401635431665046,-0.02114820481172915,-0.08074974310698128,-0.08694847318542373,0.024213378944002897,0.03512600083249498,-0.008003173363471432,0.12254701737447796
-0.04246653202277979,-0.03185335293779922,-0.0787259808605007,-0.08026174201341255,-0.004736723179780528,-0.004572790762556525,-0.0399195244258235,0.12231478654385977
-0.03047826522257862,-0.023288257784222288,-0.01327724989435279,0.016879532994882186,0.04890851260316478,0.08485481988384291,0.04064318804259025,0.09653923072355353
-0.03450861479130793,-0.0056946598728354544,-0.022109990220820594,0.0038023640848313454,0.04798440503033041,0.06975009718779435,0.029392547687276886,0.12034674601071696
-0.04455032807605673,-0.013000941015878899,-0.04860680693746109,-0.04199447174850592,0.0223348967088382,0.04321068160494622,0.009733642261659485,0.11626713927250416
-0.05112727584456696,-0.008751005561743441,-0.051932637823090745,-0.03307616024093342,-0.0062161629276190926,0.013451137644278462,-0.031343681884922606,0.10195042841628048
-0.020573730276365863,-0.014094939264878004,-0.016841420068523384,0.008877567465089706,0.0628657247418328,0.09414041363100227,0.0581010359477529,0.10693213277761572
-0.026079863888270917,-0.013466016852366933,-0.01361104731224316,0.0016348737299193908,0.06078813588662342,0.07613315260881107,0.04128405971070079,0.15332465992127353
-0.027717311635953416,-0.017883508989898027,-0.04150971522794922,-0.01911005118833754,0.03157891613727237,0.061625680699408304,0.009894167204752185,0.12297489907564407
-0.03051479838843907,-0.02203338856728156,-0.05418057253026966,-0.0575892090380974,0.005014926419472956,0.024665673434501063,-0.020272608540320376,0.08280158749809774
-0.017187626317030854,-0.02242953576718842,-0.023842888880189404,-0.004691703221936294,0.06525934455892175,0.0857215295434845,0.05328694881593989,0.08974034942274897
-0.023857944991289237,-0.008536479956270696,-0.034311254345704305,-0.008500569944248988,0.04114748721927889,0.06964257806280182,0.02426422195074661,0.08611606888033824
-0.03229123270929367,-0.007221039485594077,-0.05673435107175529,-0.05324753847478258,0.028353391032177017,0.030747543206878548,-0.0018084574519541725,0.09750171413650632
-0.04195581498788566,0.014149863768719146,-0.0671474434500174,-0.0639424131579471,-0.005807576503208376,0.012207341476602952,-0.03104426868480543,0.06287969914826705
-0.019968671979882877,0.019049826219133245,-0.03561773438653455,-0.02470591555691776,0.043104379476085225,0.08042092960268467,0.032888324209161754,0.04465542022999981
-0.023398601160985404,0.02338960300735031,-0.04626682451820306,-0.028500846626918437,0.03551717108593862,0.04964624334870514,0.012773235028031389,0.04641910511671077
-0.026798299035328606,0.019340467968422183,-0.059099601507361994,-0.04348436852129261,-0.004545672849005035,0.023426270663469147,-0.020197015943847353,-0.0194946693347951
-0.03420393166044958,0.01565583456639893,-0.06566301131995547,-0.05085927467140697,0.009987671828474693,0.026281081262245657,-0.012052491520428315,-0.014689094317972714
-0.01719446205026532,0.00736042912126323,-0.04766641352169025,-0.024044338498771113,0.05012844348999433,0.07778578052883965,0.0406064122008067,-0.01902748979611736
-0.026810516573845724,0.012896975113051136,-0.05914380525465717,-0.041932152167380596,0.02829884557400364,0.05732202760104951,0.0045520855692622,-0.0037544531121041363
-0.03206018601955385,0.010053669918351937,-0.08071060701510936,-0.07016409151617577,-0.013390885804796065,0.011307693358141652,-0.032659650799482784,-0.004207460022716627
-0.029020596403416858,0.023410622428011323,-0.05749412303183094,-0.05153983158256233,0.018169318580501637,0.04279186979593316,5.527267756832224E-4,-0.038458100235491524
-0.014175054819330735,0.017268049668074083,-0.05919077110305836,-0.021890349567957768,0.048509595014392864,0.07771349074345625,0.038734606842008946,0.019690808927646356
-0.02445586486446184,0.014770035884141133,-0.052386871601396316,-0.057202484491099145,0.02740880720304035,0.06191320241322746,0.01653441223477404,-0.022984420299422326
-0.04353189523841954,0.004213201002565049,-0.07701824961309736,-0.08039603766942952,-0.005317984378992259,0.010635914954837164,-0.040973688677328646,-0.017386069747770093
-0.036399750939327465,0.023298605913261217,-0.06519938541812231,-0.07946058578097998,0.0333091570426688,0.062430157909481206,0.017299952936607552,0.020633913086605386
-0.02048075940520998,0.017106156504618917,-0.049204975124268656,-0.062047660678196385,0.051249615886422656,0.08368567846652553,0.048891955400197834,0.0208087796423166
-0.02377355843412053,0.015920418112438873,-0.07188412498499898,-0.07377088605608942,0.03922497165237939,0.05840580150715374,0.021440803782712407,0.04070740550184117
-0.034803120904280664,-0.0029344251039288803,-0.08551138547735293,-0.09885544873936121,-0.007048502589539595,0.02043052237959855,-0.0296865774495992,0.0315106493679161
-0.034845370791155655,0.0037644588610733568,-0.08526815570033247,-0.07965831974641295,0.035773343705845125,0.06282405957092059,0.010087288410032052,0.02646545790612296
-0.024897756693266913,0.02645101912086801,-0.05413313248186693,-0.05175783789155656,0.04650336104299639,0.08493181853251965,0.04849395712048703,0.011418203979613708
-0.022946876391500365,0.031020568115598786,-0.07659867588833216,-0.058563007119342196,0.03140262947249048,0.06668370817660343,0.02606140680104392,-0.005050675199284767
-0.041075022250347454,0.011820864466346823,-0.08525567637037265,-0.09066642716633205,-0.014589907545403943,0.013206369452316033,-0.03455164320678002,-0.0473165906521878
-0.024973223415017287,0.0197980420968735,-0.07597069796444868,-0.0798819774816433,0.018084547362780885,0.048874264188995646,0.011043588560801842,-0.023631264601125315
-0.02743930610986073,0.03443182001615571,-0.06731330152646223,-0.061261062312473843,0.03898891020532119,0.0815578950005636,0.04694032262027037,-0.037114467617710964
-0.029729477416313467,0.018303666848795044,-0.08201856218911611,-0.06721477493746619,0.022429207062192615,0.05625667445667769,0.020273342446078837,-0.066660958672489
-0.03736469447255587,0.024788080121714306,-0.09446399237170919,-0.09798932677442311,-0.022898710903831436,0.00633080994947385,-0.035926908311712594,-0.06715095948039936
-0.03390228613562588,0.011598961391582155,-0.08258550007355615,-0.0737982435718656,0.03293599990620828,0.06217001451829619,0.016069342739512098,-0.027581686482495326
-0.023031813668262707,0.01648721915628846,-0.07564290603475536,-0.055251906999504025,0.04701697020770295,0.0804256662571892,0.05140710723969921,-0.012645190513899575
-0.02906084360220698,0.015173493952511113,-0.08130213269086686,-0.07549869353046357,0.02276698264880116,0.06128933132812557,0.024739177120401377,0.009706554857417685
-0.042529075231013846,0.02553248272775445,-0.10031101750625565,-0.11077327218916863,-0.024585514305693643,0.0058234175207567355,-0.036054090236333734,-0.0510399602819288
-0.04110489353518753,0.02285421274452846,-0.076696261744968,-0.08815997151573954,0.021490508513208075,0.055986835224562465,0.014128568491850757,-0.02326160309025185
-0.019721094282879034,0.019632481714995705,-0.06445128591134111,-0.05917597621790447,0.05043520974820772,0.08651227413931012,0.05583024890602391,-0.015654159485606126
-0.02855821594302131,0.02043712251382089,-0.0717282888661866,-0.0649081626794775,0.03425220715987196,0.06350733961496788,0.02834275817732978,-0.012176275439328867
-0.040201711259437264,0.02703770572964663,-0.0954329531497721,-0.10166772423312129,-0.010779653884811348,0.020313640367594955,-0.020998587520536828,-0.01402357281869904
-0.03604167007554386,0.03165955495002684,-0.0779353525331841,-0.07875184192342734,0.013337850526224472,0.04895808688942439,0.0011478601813735955,-0.0154756783629237
-0.018166152624202063,0.029210396506231952,-0.060691821488210965,-0.050065368081458554,0.048600598198022746,0.07786939671476309,0.0427270213346011,0.02079992412487363
-0.021813432650627275,0.027773977720340043,-0.06797639567473251,-0.05448929812123359,0.0303467765953939,0.06494020139837624,0.026043909650350514,0.008934035171661386
-0.03425924753237752,0.019546443121155197,-0.08029421526816267,-0.0974966739087976,-0.01507494767592505,0.014700401651218248,-0.015939528031826043,-0.02096158889222666
-0.036245197261761036,0.024675069529742844,-0.08076904643348366,-0.10182599865568559,-0.004946240224671064,0.02637601826183467,-0.017593771709430807,-0.025398068174237825
-0.023189026855535394,0.030283029563929476,-0.059622463280741805,-0.0557465782566267,0.0437757651816835,0.0788117782956998,0.03512025477787971,-0.0185007590493692
-0.028077280054266365,-0.004745755003965147,-0.06225527081771538,-0.05358956058830737,0.016290682930714437,0.05202359605860821,0.010664212991051329,-0.019334723398852418
-0.03793016339914006,0.017379834737673745,-0.08693133761736284,-0.0843937273533375,-0.013599786426816949,0.006563757558563189,-0.04066031227306494,-0.0068959158889771045
-0.04181453788958509,0.02491522541793809,-0.0865588350189743,-0.08555589992276545,-0.012193951189324667,0.004380222361572345,-0.03882230590035052,-0.02566971039667297
-0.026926011711092927,0.022401650916009958,-0.06258078910593458,-0.05597638552931378,0.03981001733121378,0.06039697288280123,0.017134776981449478,0.007709069820237887
-0.03060603662871106,0.017359918603959607,-0.07437741121411093,-0.06558962125271692,0.015688128997435224,0.03920985501371334,0.006261685417089793,0.021404543119688736
-0.04829023718727491,0.011616105075857933,-0.08661881542089328,-0.08573152840614529,-0.013415470724559304,-0.005318220761796291,-0.04676896791126869,-0.008646939417778894
-0.04933630756961429,0.01775626796860902,-0.10267810383629604,-0.10667287070269815,-0.02659241674847826,-0.01622547552949216,-0.06095582293010017,-0.03333493837205124
-0.036303247284358145,3.312830906148966E-4,-0.07617430649110865,-0.06640460817756808,0.03633509593667637,0.054773756950231726,0.020399776565227606,-0.009061799448953283
-0.02603720292254931,0.023006253348104154,-0.07594370710218566,-0.06885801273790798,0.020423757659653773,0.0349993234354771,-0.0068757594097241595,0.007992368165640914
-0.03734245700113175,0.023793676442250906,-0.0904542706539693,-0.10748907500188881,-0.009010634158365765,-0.004118694427499819,-0.03473920082783012,0.02714638721526089
-0.052010764728345336,0.015511240790271138,-0.10371274166236344,-0.12467726330793535,-0.021788125032646485,-0.02934657735088359,-0.07227416857374093,-0.009912989002037959
-0.02656187624779579,-0.0029960206445776997,-0.06796673083322698,-0.07216560346800516,0.04233558561859909,0.05891524206963136,0.005026543876607774,0.016518003263175863
-0.028337286459481602,0.017877912354978577,-0.06407587099063156,-0.06954690980806624,0.03319494472603188,0.039991347172882885,-0.00524632152087267,0.0269959042815883
-0.030588528924828107,0.022169457824092943,-0.08150418436091694,-0.11241745427844578,0.004347678652291198,0.010080576641733494,-0.03101012485875527,-0.01617581383887844
-0.03678159977008757,0.009675070367627938,-0.09542968836152604,-0.11737919055123852,-0.017794715495114057,-0.03316711505407522,-0.08404591070706088,-0.018029660032556433
-0.022589387891274057,0.00328270174432515,-0.06936839276017936,-0.08121467743789854,0.03867602883447978,0.04576080285993564,-0.004874951202205852,-0.014790283984023912
-0.02098977678224924,0.00978798219973462,-0.0702672002952952,-0.06289653501611765,0.02627405281631856,0.03258061038242828,-0.013814811529902729,-0.0036738702751865585
-0.02511754282472852,0.016237322101271833,-0.07553940350546026,-0.09370177487043876,0.007063170174199468,0.015733333328757718,-0.02233880004955799,-0.0028360697934667707
-0.04432340474281065,0.00933548553848081,-0.08772190086301725,-0.125615206056707,-0.022676279657307646,-0.024730750533135608,-0.06603680709708451,-0.010560522644874476
-0.025021999409414533,0.037571010607330604,-0.0678954558367592,-0.0695470247872554,0.03808959173701941,0.0469927297573184,0.0023301866053822284,-0.014894310104535138
-0.016961654558805057,0.03776390574600091,-0.06960531775678905,-0.06892366269365285,0.026838031861270522,0.04552991023999499,0.0028337345050498605,-8.24215543630484E-4
-0.031123339392992604,0.0345883574993904,-0.07509185838904515,-0.08121185927492038,0.007258763356195132,0.026274232083119943,-0.014373646516316313,0.01655865562494299
-0.041021600553510694,0.02474367213929636,-0.09491607631868212,-0.11908222876113658,-0.026948690089582464,-0.008396421962975291,-0.06456594378373592,0.012521534353118032
-0.021983750786877587,0.044500675135423426,-0.07517677811560851,-0.08239571696717388,0.03392130904100754,0.06439934746304234,0.020575299631377338,0.01946701790198564
-0.023859799972629284,0.008371377696522315,-0.06504640702097686,-0.07932099160039865,0.045547083086579954,0.06724266960845553,0.03215707566537569,0.03212173883737902
-0.026564929790267512,0.012299097168582455,-0.0864324396895164,-0.08794306140871952,0.028631399083082248,0.04857057439304728,0.01166865949728161,0.026517197492851627
-0.03619163055831391,0.006475841548580236,-0.0889560483997909,-0.11446218113440805,-0.013128700273532173,-7.86614680692764E-4,-0.04314100802806964,-0.011248344973976403
-0.027464767246174915,0.001846864239382474,-0.0842584795682214,-0.09100273258888311,0.042820226967437085,0.05620422279805802,0.02499831408746138,-0.002751801705912875
-0.02298254222386764,0.02581237937546643,-0.05935064880589016,-0.07244586323248645,0.054481756517196965,0.080608865544263,0.04040152004143313,-0.0052977934008506785
-0.01818170513421038,0.01352093111222961,-0.07045268666053198,-0.06985520371974752,0.04864610768805561,0.06572087620736544,0.035224144007240915,0.00816250128578387
-0.029466045888858754,0.005271039262220868,-0.08393842310517234,-0.09852022980378122,0.004863841516354697,0.020158838153948633,-0.01866572347861533,-0.036039779396123864
-0.03815519244133531,0.008812205481174772,-0.07791010372254323,-0.09638229953840266,0.0346933479378591,0.03980622923305587,0.002553695590089975,-0.030818726646045836
-0.009607413768227761,0.027923940133796014,-0.057218546571972444,-0.05774533603830557,0.06256744883170542,0.09591186112240299,0.05250535715593942,0.019236562188964624
-0.02016770559916989,0.021951247305219482,-0.06824726611064254,-0.070504447164554,0.03965115565864312,0.07709109916745017,0.03821798696990665,0.012168891970414514
-0.029328882944137873,0.006684556570470133,-0.0846842556827244,-0.08503413715396113,0.035048953728698706,0.045706303790061235,-0.020621636038925802,0.02813513606988741
-0.03021072791646648,0.015850428927303276,-0.08176356238897178,-0.09145340139476227,0.014230687964012955,0.04068930605081661,-0.008692283987878593,0.010958575297628524
-0.009448809753901381,0.024655539670511706,-0.062043403054704994,-0.0669865742250298,0.07073862375133055,0.08355470703236687,0.0660573673322518,0.0012741085173341021
-0.013105741219301505,0.01815926511526858,-0.06537492026485742,-0.07029941395251235,0.04739605966764791,0.08377763995775678,0.0359262268707264,0.005972990046993269
-0.026672010650240253,0.016830916314223142,-0.07434576269118282,-0.09627236568904389,0.023880542514877208,0.04084195836965217,-0.0029454808090145536,-0.01124028055157708
-0.03385613594628172,0.01804756422641588,-0.08351018741653396,-0.10855954788373476,0.032869972295371246,0.04042884055466077,0.0010029500007916158,0.0019831015410604075
-0.013410132529661938,0.020436102278243027,-0.058253407289061275,-0.08158792114833432,0.07218714677612509,0.1056421692831763,0.05587785917028436,0.03930882568409169
-0.015538337296420436,0.007201863726293544,-0.06408725111623922,-0.08796502587990934,0.06488146741006892,0.08269614856586908,0.03633109812941267,0.01637083550766252
-0.03412481710107016,0.00916731246274577,-0.08637351653952768,-0.10120344682200212,0.031740175865788006,0.04983268346856486,0.008171014734093018,-0.002064682729140276
-0.025560767271046426,0.005502034479253899,-0.08069404961109436,-0.09307919289049134,0.022753188914657444,0.033622574846118324,-0.014019645077034279,0.0051089583822665
-0.013882229779973637,0.015831194636551495,-0.0499227179131158,-0.04046973784510407,0.07765774032832087,0.1044851499441743,0.06560148756383935,-0.0025914620297918
-0.010638139227749553,0.0020892938871144087,-0.050784983618496454,-0.04494815503292629,0.05739012853167707,0.08768002441470502,0.04067650546583386,0.02128058282469053
-0.020777397489063057,-0.006515146988998486,-0.06577141835654073,-0.06780156217338495,0.02935763628372562,0.06632807523750396,0.02028938712212544,-0.03780907946526754
-0.029970783291506965,-0.003810665949561482,-0.07869608359844285,-0.0923895532248171,0.021194426994163094,0.03194590343626556,-0.004913252335349061,0.006840135227296756
-0.009533584757788427,-0.01651000732272965,-0.04580169289486011,-0.0426552886246608,0.08496118972417636,0.1026929625389828,0.06441960257888862,0.03159112645315299
-0.01140060441352854,-0.00531309645215286,-0.05554070029808188,-0.05200201236088174,0.07111268093091548,0.09716212824882589,0.0632464628901488,0.024304479684914664
-0.01450123699084381,-0.015741461866186583,-0.061560119517348674,-0.06896535830697748,0.04114985898506649,0.07512893412315708,0.012725108474598935,0.03780174122983035
-0.02592681968027865,-0.014703543876000228,-0.08600634416600741,-0.08769374681027917,0.025932540319511064,0.03566594998521198,-0.003191216932037007,0.04470719198221728
-0.013760107289072503,0.01336554700396633,-0.044763891469375136,-0.04430178734453411,0.08723082509488,0.10753715495052839,0.06052113061438915,0.0567909565184228
-0.016195121805183663,0.00684812372914048,-0.049333955947548525,-0.05806868873233844,0.07740520502989977,0.09980174056729041,0.06320566537609289,0.07721570254621174
-0.017282989242720405,-0.008546604207418708,-0.06317966253145788,-0.06908505262674071,0.06524070375234704,0.07098861381106189,0.03046137316063796,0.03692140997610336
-0.02218633438552471,-0.00943112298817101,-0.07151604071833374,-0.09127263178033618,0.02688663118734894,0.0562243356168843,0.004430811428887457,0.03581281012899835
-0.008923112679826962,-0.019545200090251236,-0.05017332660450076,-0.05536991875913614,0.09627499932469694,0.11928507146813618,0.0771347388410856,0.03383863651726047
-0.006575992736002428,-0.003334218318543006,-0.05033303346535839,-0.04675756563019619,0.08232287651513381,0.10624967202680509,0.06233503791924061,0.025074569196541673
-0.015204290001990375,-0.0076951839361275864,-0.06834364784806232,-0.06902850073629342,0.054900043368978566,0.06673204670166574,0.02632930104261836,0.00331711608035326
-0.02888423207151053,0.0028045598450736875,-0.07683056192427894,-0.10103167952509425,0.034909169746374334,0.05438606985272568,0.007001973638379689,-0.02411328256715517
-0.009115918267559545,0.001387555489803658,-0.03977074163167085,-0.06582492770336504,0.0942764966081411,0.12626025191709053,0.09038721430530597,0.005056627450110494
-0.001065920760731122,0.0034602736030372376,-0.04053993466002592,-0.05861061526203766,0.08670085899746223,0.09560653389759215,0.0673041310630236,-0.016191921952654405
-0.01114813874636339,-0.006071987433868096,-0.061352781063486815,-0.08014096932176977,0.06354296611820962,0.08955955848967233,0.04166480580106236,-0.020402637439384357
-0.012253219374173792,-0.001970355062573848,-0.06293769446369378,-0.10021099490389154,0.05320599090578193,0.07554471552533723,0.024271161254486896,-0.027047153142389476
-0.001686705270160599,-0.010109325107015128,-0.0484423788070199,-0.048835087061615316,0.11197944981215412,0.1400639707125729,0.08999211970910509,0.02138035971261383
-0.0017682704983549152,-0.010537358052439584,-0.054557342187254235,-0.05308761929177447,0.10388488610723488,0.12291194420667051,0.07976783264789342,0.055335202742181525
-0.005912131346406897,-0.003612162373229728,-0.05571949130553795,-0.07626227827903204,0.07673381526213963,0.1029014448905196,0.053272528592955684,0.023439221123774234
-0.005567206803121984,0.002729497791098914,-0.06048389799219999,-0.07967855588192856,0.07582070806132787,0.08588855416386998,0.037774424835660986,0.036032354120324586
6.490220027256383E-4,0.021949752660784815,-0.03243464623820261,-0.06632838099257912,0.11820793527306839,0.14355583918565845,0.09608124866402822,0.059090938049599494
-0.0017694761103650494,0.006339099369416852,-0.03903701039274855,-0.06558309434253695,0.0986569606998233,0.13172787504159172,0.08472608267122321,4.0795200782764755E-4
-0.008726709562949811,0.024302792960299427,-0.050726870248810244,-0.06855670791396139,0.08292307916780892,0.10563306416218601,0.050525335367452545,-0.007870890618750376
-6.652336527457128E-4,0.014891756937737522,-0.047238386126239304,-0.06245670617318553,0.08718450867693428,0.11629656495271795,0.06890313004106845,0.044393814958422734
0.00956528111652933,0.03561751536178978,-0.02912786187298779,-0.04617351972178107,0.12032710365702357,0.15576366385660148,0.10266149534433802,0.0018125419333329445
0.0024779190971745274,0.026005947546825527,-0.03773735400319552,-0.051480272941947534,0.09056175527738686,0.13482722787081156,0.08337886253450827,0.008771581651066397
5.121050521715159E-4,0.01739656974688824,-0.05504626961815017,-0.06756985901382914,0.06766846219997764,0.09332510036047291,0.04551651352695213,0.0034532664374498593
-0.001018829591154645,0.01626819714305309,-0.05002144818583891,-0.05878582928344371,0.10409630361315501,0.13173790168413627,0.08274286034892954,-0.010337002316793478
0.006162654409945602,0.014637838686305298,-0.0482963785339784,-0.04035978897061634,0.1224805195122739,0.16111231730151587,0.11598709043063807,0.041545941426793825
0.006844208739184822,0.012732921480972426,-0.03985031091124138,-0.0391673434133095,0.099697685081999,0.13646107030088822,0.09115757893243512,-0.027093774600718188
-0.0024572656940281268,0.011849071157277579,-0.060968670137871835,-0.057695457269216155,0.07417913904818434,0.09472823985931456,0.0444092217715296,-0.028994122290263505
0.007266978352011198,-0.0072529802515392755,-0.0433806656391505,-0.030450867361172036,0.10607401237446774,0.13206599133186414,0.09293475056445202,-0.01305834695906566
0.01560729061249647,0.017715971205717915,-0.03330060050888447,-0.03581093456887169,0.12219920221149345,0.15612886110535978,0.11878098115420951,0.01069749151658133
0.009934575229799347,0.020924244914746083,-0.03643453413585878,-0.04561944678131842,0.10260720100693496,0.14072015381897884,0.091159783449508,0.010354486527620225
0.0014509401299805033,0.011069588651118773,-0.05435302793507702,-0.026166125774666208,0.07340260799850634,0.09835041896274815,0.053798565158873775,0.016975019541094292
-0.004981320645665005,0.020119676721067487,-0.049706176262771705,-0.03153481506961721,0.10005367597124966,0.13237694265878622,0.08611161189194416,0.001641902292617708
0.023215566324049933,0.021640180498872764,-0.0266263848126299,-0.007786700377779817,0.13009854084807473,0.1507045539908296,0.12148730981993652,0.042499033925825276
0.004959443966574294,0.008837860635538637,-0.04352061911913265,-0.043461291936856224,0.11306943252104239,0.13092213442732056,0.09809684112614826,-0.009848590366800698
0.005581937874651666,-0.0056853302391229,-0.050005388984708785,-0.06874992721411965,0.0773675522361762,0.09779962485353906,0.054314084011911026,0.015843835116880995
0.001033658377357194,0.008317118262567482,-0.05440560531569894,-0.06784149193858663,0.08703729319506105,0.11220520746616276,0.07044873649214431,0.0011567210692438375
0.01771949994808137,-0.008366216756357209,-0.03329496184613725,-0.036666763306543275,0.12066956341191584,0.14432475863988686,0.1004716201999145,0.017846670199045393
0.015404437870497584,-0.001384141101564124,-0.034174961018577275,-0.045135242401970525,0.10210144710541977,0.13001530261498084,0.08463937782216589,0.001844815778933656
-0.002485958580157155,0.02077652685856175,-0.05271617226993643,-0.06815024616723395,0.07186959454689548,0.08645236252120651,0.04166634240267619,-0.012183950954032349
0.0050291064543142375,0.00901712753593856,-0.048448545664095725,-0.05988084617227466,0.10636368655593662,0.12440060181843246,0.08202675523122316,-0.01766036639706404
0.01266707515324128,0.012211616989391626,-0.0337272750720497,-0.02377481356057326,0.11455551920915748,0.1464645639986043,0.10349857477464919,-0.021988949775591488
0.007223742488611698,0.0017920384146008616,-0.03881854301673196,-0.041324806767833,0.08832985809197515,0.12439619492617404,0.08413387698918452,-0.015075402216501513
-0.0034244199297647562,3.562225067486296E-4,-0.06534023251805972,-0.08473093811766533,0.05909505795505404,0.0870167155296735,0.037535527018188554,-0.038806323990616794
0.0010558986488566832,0.008567286019526013,-0.05496447211573572,-0.07239599289628312,0.10352592719479413,0.12353269218247892,0.08463736333697904,0.01833604835221974
0.01689362419165308,0.001481043441597367,-0.033083970203396706,-0.05419892015175924,0.11569939954822944,0.1492487251720352,0.10180723051348446,0.005145277776307679
8.233970939938925E-4,0.016779330514996693,-0.04579805494731121,-0.04630803708048907,0.10969583198816846,0.13095998568044054,0.08663341340402204,-0.015291513006630165
0.0038727062833353587,0.0045178025995911645,-0.06130883363414823,-0.06691006573245123,0.07356399962387351,0.08685427045139435,0.0452470433275895,0.001541263240109579
0.008322957585915648,5.322234416222021E-4,-0.04718399339806426,-0.0421603132465823,0.09534880007664094,0.12302100331746862,0.06966221143083749,0.01674977796196301
0.01748584189932116,-0.002007152632102602,-0.025135290407246772,-0.031089186221536596,0.1241982137760069,0.15093319767827693,0.11043140880017877,0.0038531622488236633
0.009749271672914013,0.00830867982462823,-0.04536767792762366,-0.05812084292111157,0.10982700797396999,0.1304248513211234,0.08673421606889732,0.01486947609636438
0.0027093789968879872,-0.010209392304642614,-0.06016594881917439,-0.08927428629367984,0.07656919235944885,0.0799455075507085,0.047064928025850404,-0.027399017374278398
7.232819992545603E-4,0.0028168431556107316,-0.04367554708998014,-0.0687176346260917,0.08926328267488383,0.1010683204954778,0.050527572166281065,-0.008691320074043692
0.011721205085338741,0.01759499171771258,-0.036805146169799755,-0.028036999604984823,0.11472442122933325,0.14936809231356946,0.09756265742990723,-0.043508829808441424
0.014098650960437657,0.0032861071068160997,-0.04127714716778596,-0.04129606696372483,0.10485092293755466,0.12780580623736468,0.08589537135105312,0.006553624065361576
0.0015347747364466424,-0.022411497139352074,-0.055303976499766115,-0.05584068615327182,0.06552615263744345,0.09617585053706328,0.05583906103891691,0.03311559945194112
-0.007025866092107855,-0.011631692813639363,-0.054202979308383185,-0.06490814752682583,0.05912418578002352,0.09267319628057019,0.050789149689511856,0.011268455345702963
0.007963545186330474,-0.012701553671202622,-0.03040422075577707,-0.017970829635642224,0.11980122316754215,0.14551924270117816,0.10169188229567132,0.03172813473655287
0.00543586612629466,0.00949574348337209,-0.030567720692089444,-0.03857856657488214,0.1056709351155115,0.1276568074688743,0.0855799763045462,0.04732000184708062
-0.008633906079279899,-0.02873764045718292,-0.054220364744896894,-0.07473292555710052,0.07318345742449785,0.1049205456720231,0.047054898934942496,0.043801287950798205
-0.016068435330746644,-0.01710930532051599,-0.07356226226366816,-0.08636823819168013,0.0658533300813693,0.08576314046235367,0.04496057193659688,0.057670778357651394
0.011655928436567702,-0.024362344140857604,-0.02794482534616258,-0.03938209360357939,0.12327665427147672,0.15074019668732358,0.11074599472202695,0.08591310677155392
0.00785525569480567,-0.016285322358923722,-0.03273726284191992,-0.03370641296758101,0.1247736486604112,0.14058057489770576,0.09562843477805648,0.09356918776374405
-6.054132559220743E-4,-0.005296507730753897,-0.04749106120053071,-0.044288344318914055,0.0799630617824734,0.10785286057830054,0.0683233519358708,0.07137516757076537
-0.01032709633833341,-0.03391301201317096,-0.05871436061488108,-0.0766899248336156,0.0638000367361754,0.08692663522063286,0.037568867150701415,0.055314844787456574
0.007615250035921901,-0.012722660014838164,-0.03352934536774176,-0.03400469886139165,0.12419557458469466,0.16536265729188868,0.11808206771375529,0.07368956828385229
0.005376697512660046,-0.02163833291037441,-0.03828351805732717,-0.027940345445475613,0.12028075021505984,0.1502449477102482,0.11312288257469395,0.08798999819412714
-0.0033184547183373048,-0.030390951065559894,-0.04501414351910363,-0.0396097702410628,0.10002809275717267,0.12250641577616311,0.07081325375538783,0.040947717501423134
-0.013283223440072406,-0.027038013473179523,-0.06538128260035216,-0.06490383401071677,0.056767279452257825,0.0801830531089438,0.03278446550459961,0.05575423851863769
0.005811463135525406,-0.045167292310892726,-0.01975282267653248,-0.013278648509484573,0.12941706726715285,0.1532961471455509,0.11708718060198181,0.045097081898907064
0.014744038297624058,-0.03432644471896115,-0.024730912971747912,-0.001990296740394231,0.1122425988090083,0.1493829318748042,0.11188831413947345,0.05843963391864233
0.005081450110864971,-0.03372950465901524,-0.03234815670375642,-0.02914292775503379,0.10556799968299906,0.13166457841515825,0.09560361788471838,0.03489108049599509
-0.007438285803737468,-0.028878221642789838,-0.04943729877853758,-0.06319987138205843,0.06150386553312781,0.07905139400338415,0.034509409141590404,0.012419187382427796
-0.012264589164833008,-0.03206057076385037,-0.042956106219135065,-0.047421298283238836,0.07798637227576223,0.10648945821021681,0.06408045763901271,0.07618636252761962
0.012679785097915695,-0.005733804848075361,-0.023465218000200974,-0.03364493211955452,0.11902003353140839,0.13917103916423706,0.0989695374465969,0.0849531197432809
0.00276057644060948,-0.00812323907649051,-0.03401604214272084,-0.04502590130411557,0.10058200665986987,0.13195513273077233,0.08835490078727376,0.061558328012335115
-0.012303430509349206,-0.008988951272463276,-0.052746043790742686,-0.06042949352424573,0.06445252260820127,0.08822077749611615,0.032581506804901766,0.07306392438522477
-0.02282056490399642,-0.03431809117663464,-0.05854279063640469,-0.06307130803818899,0.07568033006460086,0.08728458727368116,0.038915171523507416,0.07196824165670189
0.0013488093532557296,-0.028361701423358067,-0.038581350440832295,-0.037277330658497344,0.12166952844986528,0.14412386071619707,0.10813883112928831,0.11204610909435762
-0.006007371178625917,-0.014852096438658691,-0.037344491790386514,-0.04402981364378725,0.10294069870552197,0.12717804423473594,0.08559779541958218,0.047328865563703956
-0.012646482742745435,-0.02517398755963814,-0.058303772745986235,-0.06449846814720131,0.0852927406679289,0.0994308875963627,0.0454618883088688,0.06141621294957181
-0.021592243564399254,-0.028420261436662493,-0.0714594199175745,-0.09157990696872262,0.05049841681596676,0.059852406691822915,0.016381460559090753,0.03752329317387899
9.788688580971358E-4,-0.023819370212506706,-0.044012848813686924,-0.03997148473692136,0.12272442685983287,0.15131919780787986,0.10544575416369475,0.06649191963101725
-0.001293105276406685,-0.0354204281824059,-0.029434529424703322,-0.04085624871614521,0.1260681588648678,0.14749375054282193,0.10714355644388056,0.06903911206026302
-0.001847296346384468,-0.023292529943621434,-0.040175278488842635,-0.05293218187860807,0.11125788852544874,0.1280220321459296,0.09393624086145047,0.03014659715758871
-0.018269530500118238,-0.042568887108091244,-0.05853566773392943,-0.08306650882985428,0.0655364610147539,0.09086829783063508,0.04860687308900914,0.043800760887883164
-0.01596761413311209,-0.05313599860952106,-0.052943973341115946,-0.06347086955970753,0.11157282427300831,0.12527963768652894,0.08505226241349734,0.06374127542694777
0.011739044386790527,-0.04262582462415575,-0.02568226678072716,-0.0332993851569986,0.15253958109149537,0.1737694131218664,0.14278163356686796,0.016241782594309032
0.00484015481206531,-0.03903610631918043,-0.036138480192199424,-0.033326639018372364,0.1254910047289148,0.16385989563987416,0.12442325713802271,0.09081946826047765
4.85010892565807E-5,-0.03918963129287116,-0.04663558084071805,-0.05969776885491279,0.08833313486190522,0.12601341443770714,0.08238087797533694,0.05334665710851133
-0.012437433819901866,-0.025735167411361125,-0.06491651329098166,-0.08178955912498348,0.06318922326242495,0.08847784786241822,0.049280054935371444,0.021407409565854164
0.01277770579641448,-0.031171218271487857,-0.04580722452430968,-0.03880937947498757,0.13210316812082384,0.16603696022641237,0.13872633100669882,0.05139663548945191
0.0037759072356734133,-0.03590351850349123,-0.03103932684632544,-0.0322156616987317,0.13055396645970527,0.17327638745007706,0.13536137505344797,0.08903789422859539
0.002096402859381466,-0.03862004971747736,-0.03945153738744117,-0.04527266229100046,0.11064525728039744,0.1457303809311713,0.10792133892272517,0.09536901796232669
-0.010676184673178511,-0.037440903234621084,-0.05088340761074547,-0.09639671082822898,0.07183169809280031,0.1022164418117793,0.0736611269171724,0.06254840862296658
-0.0019223820199640446,-0.020028499778820145,-0.04081451845326848,-0.05476663920161894,0.11963467976998599,0.14742184647733225,0.11568746548084623,0.07576193199018896
0.007445075967027336,-0.017958408901052072,-0.034838817147082424,-0.026795472634733572,0.13728694898639512,0.17735109158948192,0.14096971342519332,0.07561372724318556
0.004842567120199086,-0.04713158579375906,-0.03605946957148823,-0.037887849927478054,0.12437559353446287,0.15278520280900254,0.11846406630886971,0.05060628606124998
-0.007379568228915279,-0.03541346250354872,-0.05054190041305638,-0.06977671376180133,0.08700805826360171,0.10340436796985086,0.07786392602575908,0.052614286756864345
-0.014825512940508274,-0.02241484483853306,-0.06392110746576304,-0.08376716485255305,0.07758487191628378,0.104861694336858,0.06385783691676772,0.0483736002125056
2.4650382284134575E-4,-0.03842416637871431,-0.02722233503117792,-0.026750497396955973,0.13743890647906598,0.17927516312348335,0.14654719839527058,0.07681330630299955
0.006247374911300105,-0.025319571222028266,-0.03159040486563272,-0.031363234132271406,0.1318439311283293,0.17090477545475888,0.13846296222902588,0.060863645200678176
0.007282289046670311,-0.037587292605037015,-0.03770194355383187,-0.046975863382348,0.11340446929221241,0.15127599528264213,0.11206817309734311,0.0487053775512897
-0.007271210313273081,-0.035361514485201834,-0.06486152815848054,-0.08407691930820736,0.0745098690582179,0.09577062530796288,0.058271757495643575,0.056478143854174906
-0.0077814199342720256,-0.028541510913411557,-0.02364081265724333,-0.051502597301621024,0.12190228623110969,0.15730754112279005,0.12481013979407296,0.07606077513523987
0.019951839363849477,-0.035477841581977046,-0.023350185379306804,-0.02601680442842408,0.15245907576418688,0.18895990506552574,0.15603501741486475,0.08997978781231675
0.016830530039553385,-0.03681648330777677,-0.02080587538640711,-0.03207313901483593,0.13560048095147625,0.17281558441506836,0.140734513280286,0.052373404881867966
0.0050334321034478935,-0.035091032349961124,-0.039107107187408896,-0.06051853828423989,0.09087412704999327,0.13253349404493844,0.09488857485791169,0.07590777519861813
-8.435894583175424E-4,-0.027428447006974666,-0.05998914776249008,-0.0670295255060695,0.07401248874306145,0.10732371987449436,0.07183605183116316,0.051177168584283235
0.011336436136756077,-0.03473184075218121,-0.02187096305802654,-0.027979238526817753,0.14919644083091202,0.19336462982934616,0.1620538206770803,0.09322929263849886
0.015733677767929218,-0.04372494774021476,-0.023004084420460424,-0.03054087766130957,0.14482128043690037,0.18421359675250915,0.14894790781082784,0.07475661722279786
0.011367074532819335,-0.03847057267083222,-0.0250297836311422,-0.03989333643125339,0.12079868012332144,0.1608029644385472,0.11302905261424981,0.06846730749833438
0.0019640361844870044,-0.03353638125421232,-0.04345428241770205,-0.07424356443404301,0.07369088435627638,0.11119714386026323,0.06842890304243529,0.020106172442921656
0.02007724115962707,-0.026807866758845045,-0.012319566644407833,-0.02305400683014138,0.13781987217160296,0.19594183956163802,0.15898511225435064,0.07775505685926672
0.025012997723946693,-0.03025317310033255,-0.01400371836498239,-0.018971298678920202,0.13996582929343246,0.19104862890016233,0.14353037489326095,0.07045585636597462
0.019303041887527916,-0.013235605472398302,-0.014589072416628976,-0.04580372127496057,0.12792143666319988,0.16670183661967514,0.1312950648890597,0.024331407553818768
0.007354379905958275,-0.020293353352412388,-0.023670981037925382,-0.06536686678530336,0.07448416682021902,0.11986636214908916,0.08347084190590903,0.044759414956558566
0.015758715338630387,-0.02336899658721182,-0.014890456692617116,-0.03375356831099739,0.11731551413638029,0.17187536674976428,0.13942496894522502,0.008582972567729337
0.03875041796528253,-0.022445088869348602,0.008823259209082347,-0.026529757233328274,0.1487576237928502,0.20291378800940646,0.17933222552345757,0.019977110565216963
0.042041388162829714,-0.0022701750359822408,0.004508246665378527,-0.008522050829093693,0.14034035788133323,0.1993612964358338,0.1634758618405844,0.06433891123606753
0.027335227113730962,0.0016435964280819906,0.005737766337628163,-0.01117837631543999,0.10154196471146548,0.16245937681024608,0.1255122682452801,0.011164857387164523
0.02926074481295535,-0.0043692321196553904,0.0024419373923607324,-0.009468833624789348,0.11848571742470787,0.17995776039135386,0.14045470026021661,0.04388912783968493
0.041236160310198236,0.005354938312728139,0.024274280984494287,0.015946442466716143,0.1713005794245945,0.2291914769140762,0.19865731725787464,0.06568415981809814
0.03799611347561755,0.0014886467022849868,0.01711298606447323,0.009813160823266984,0.15772518808526323,0.22786670176180918,0.19034680260232723,-0.05023986245630245
0.03347989242705924,-0.020020146104002542,0.008380466587629897,0.003974400171858523,0.11885171280660818,0.18916730070682825,0.1571847621330626,-6.88359426710014E-4
0.03283093201357673,-0.015582513536363213,0.0014176800162685223,0.0015224781802084253,0.13490073586796986,0.20311137807295457,0.15276235998927212,0.03610277753099801
0.05192721775327481,-0.03075214697554688,0.022156335213863523,0.048544273795364475,0.17668407169873046,0.24160133563051878,0.2086668675506053,0.07892922681187253
0.048178149075093005,-0.011559449587605707,0.016419855136351046,0.009375699768788902,0.1564853413446903,0.22441909755273193,0.19194222091122623,0.03888456127393826
0.047300446992035436,-0.008434253067040848,-0.0015247919809263984,-0.018804131173151814,0.1287525635441746,0.1882605616164163,0.14734424351862055,0.05268085293837536
0.04495102203074775,-0.020019599669820625,0.008837322268612675,-0.0058619607377982455,0.1479056860903632,0.21314501515763726,0.17793027401508882,0.0637104033376048
0.06328598500179258,0.01564048517971922,0.03136232194858557,0.031222196713398605,0.19550771261499147,0.2596422189726589,0.22284687018722082,0.049151824039872644
0.06557768516038942,-0.007479266329742381,0.030192464352161743,0.019167426277648593,0.17362186912431124,0.23393965680747805,0.19344854215868001,0.037863149322048234
0.055645834851461046,-0.011292475979159763,0.015328255763842826,0.009663639911806982,0.13549132631501576,0.19752613895940452,0.15398274641268972,0.05120848361782632
0.06104347528048132,-0.01341554780480611,0.010484523455070834,0.0010902549691952299,0.15804956138450593,0.2170049377655669,0.17662852048016894,0.03495909167735449
0.07992089930727639,-0.006608035451912395,0.04268737472570138,0.05805649184765277,0.2021119565014018,0.2707099714753724,0.23390949718518567,0.037694341105223635
0.07342424914669124,-0.004031910566208212,0.042998454562851764,0.0558025765838505,0.18801702118075653,0.24862881395790606,0.22079691898049592,0.05555595032898289
0.06274001246108507,0.004802517113554113,0.036261109896321475,0.024822596600469947,0.15530366870258902,0.21364437178447698,0.18517094179125948,0.004557453248795661
0.06306402145538537,-0.009150538073492108,0.02134790088304577,0.014691016798729202,0.16101217783718003,0.20952687297852587,0.1700155367966279,0.013397252449409022
0.0925660855567216,-5.665418305781655E-4,0.05608516456954499,0.044391525220936714,0.204460007975518,0.272751533651785,0.2526320873409135,0.05366730602699159
0.08941445378186907,0.0029930406193904614,0.05527416845000302,0.03332433406622887,0.1917746507914514,0.26369298287016896,0.22876196867073104,0.05842724097004318
0.07331617935393317,-0.01668439801108934,0.03818096760052105,0.013922902963246667,0.17022210205650437,0.2241629981701657,0.19378573700496615,0.04205311002737661
0.06991424542302638,-0.029591791179137624,0.014851389181287013,-0.0026151634713132907,0.14462681837946967,0.18686461635513224,0.15273547054481584,0.06078479514829363
0.0868084230848355,-0.02247866573768307,0.03890884990883334,0.031199986136525013,0.1947120246753506,0.25633132047612467,0.22482437380866216,0.06488537989232694
0.09009469950780397,-0.025110433194630827,0.05070871109193223,0.018815375916852648,0.20577552487594236,0.26244801667785334,0.2383849431738833,0.08651711902636339
0.07504261239719234,-0.007388364624965716,0.031130404327662866,0.01667539117515625,0.18361945546282313,0.23669941150858004,0.21506045473624213,0.024500585974164553
0.07131192547484945,-0.027960668289411985,0.020654452339948413,-0.0046879952244131,0.1527863284431281,0.2119722110731772,0.1729925080822124,0.014229529238476597
0.08795018029501714,-0.01896417509891829,0.03755152415564978,0.03765208566952376,0.19411229592377177,0.25569464953039495,0.23686626718373566,0.05410192313151463
0.0847448507864629,-0.009627437605145318,0.04434645250280652,0.051765372240962615,0.20017908748229377,0.25803164887907293,0.23165305048199428,0.07794395411117716
0.09222813555470524,-0.023417546596328796,0.040528107358700154,0.03658202636754589,0.18499143927965242,0.23957395377912014,0.205038764735096,0.03490463773519402
0.06826066100381652,-0.023404996553163783,0.017365209716589572,0.019401354746133984,0.14563492237214634,0.18960943033832056,0.16285637442339282,0.03378209887202616
0.07320990006035843,-0.02245476335423328,0.025176775585062514,0.024530421598555993,0.17663529941323147,0.21855063840345576,0.1826403596231162,0.03520098202155045
0.08226810518834476,-0.010884757737911671,0.03997139294930447,0.04052020538554936,0.20203131611041975,0.2559326086218937,0.21995262773513066,0.061643788402360455
0.08594008232434366,-0.014307821077587778,0.042216385346631,0.031463392204098876,0.18994377300319867,0.2383596576563182,0.2007521609333789,0.018053188593136968
0.07097861130528042,-0.016775856120747504,0.01750525872089473,0.013505938889002705,0.16149478505047607,0.19913823818175966,0.16108543827915225,0.05656258069075203
0.07302148112856169,-0.01892437202378531,0.011018107628460082,0.002427811715251884,0.15427982131886572,0.18435524413501467,0.14519878889886298,0.050258393364994276
0.08739167692440991,-0.026857056307891803,0.04098872497631075,0.03778998784701689,0.2063671789264966,0.24019222026275766,0.20431735642262885,0.03670934181794792
0.08913650171603071,-0.018774251601047565,0.044202779188812824,0.04006059584537923,0.17901694343869434,0.2217089504594507,0.18760662287634608,0.05052843985210008
0.07362786731512,-0.030180574714574835,0.027528765182855654,0.005712769840208994,0.16683721511719482,0.1972033636002602,0.1527447308779647,-8.705134849462254E-4
0.05455110522188162,-0.031904791428306614,-0.0021638982362019235,-0.028465606500161694,0.11590790280722321,0.14773024669175377,0.09712712991414538,8.049882964430224E-4
0.06704320154486597,-0.04397171371308786,0.025795248110265474,0.002132378712818059,0.16925307098152187,0.19670350932091424,0.16031784644779123,0.01694151067056774
0.06584804720334515,-0.05859850929556832,0.021296520312030606,0.011408095869066319,0.17621931432518587,0.2061220106607981,0.1648536851375741,5.15494642315456E-4
0.06379373769494137,-0.038194869601710944,0.0072440291390578025,-0.0022567729010963856,0.15709902935090694,0.1788007760890201,0.14153043537125748,0.01871261190352276
0.04570790466491574,-0.04636951866879276,-0.009628102567152193,-0.015571375898142165,0.11182580422172035,0.13139704988290454,0.08349623946287131,0.015182318636243919
0.050125968638655344,-0.04825522933345508,0.003377287448100289,-0.0013304364540519375,0.15194111365571944,0.1780676344294734,0.1373713813977571,0.03922843525299827
0.05715107778861964,-0.0387005912882709,0.007999019326166704,-9.705089684063709E-4,0.16913079219122684,0.1748365675852104,0.14032898133957636,0.05170518039226989
0.04952332254991389,-0.04369452683851718,0.0025114169936625323,-0.01274997757457813,0.1439995395724233,0.16804535681918772,0.11128011351764538,0.0722306355038212
0.028162131956052598,-0.05326214130931947,-0.025799914306743915,-0.04193879810956008,0.10640424750907974,0.11513053200033732,0.06327490650030619,0.03225348713612763
0.041888900614873575,-0.05677926020351902,-0.017055651059094346,-0.03521025164998024,0.13167144678279458,0.15148522798252123,0.10602898644107983,0.05650186989540414
0.04130136727033149,-0.049217328238849736,-9.417563287293264E-4,-0.013541148106870429,0.17133689498152366,0.18404803017048932,0.13472479516812308,0.09302617407543218
0.05055420304444872,-0.052381502463323515,-0.010749684390569083,-0.02286729028324346,0.14884661508604097,0.1727288321393179,0.12630080982836173,0.08020131916099182
0.0344272502964471,-0.054519873701296996,-0.01886174539882073,-0.04456788759137974,0.12480372908697396,0.13493165259022433,0.0794201820803673,0.06324372953982182
0.03236424112203964,-0.05477661698805253,-0.01940658190191945,-0.027065058022843425,0.1210398776485719,0.14439995337051265,0.09493610163514307,0.03323992544578432
0.05581288256067848,-0.056794061855306444,4.4403134807850277E-4,-0.009366511229507553,0.17127839473781015,0.19441186645411754,0.15158661323700798,0.056631056601750315
0.04590113165682956,-0.03444404667705357,0.0036553201467724485,-0.026861743639583536,0.15188013276028856,0.1779322507073327,0.12976115442569858,0.06493482215523119
0.036568305697962385,-0.06332053805942567,-0.02013293684625391,-0.03168945936217969,0.1260921899801004,0.13887495187828364,0.08864197220255288,0.031465686559134703
0.02166824067844393,-0.06662452750230888,-0.0289873311370351,-0.030834560061350064,0.12704857762915608,0.1260902643356753,0.08661270149770464,0.0349930592311081
0.04016200329169904,-0.056276305572452764,0.007849968371650263,0.013892542907448166,0.16331045872564048,0.19075154642027736,0.15376728467199643,0.07416971770049272
0.04542991356232223,-0.0616307455952887,-0.006046939228945289,0.0019870438849473853,0.14764461753959826,0.17789489248022217,0.12494654476812753,0.055682294186469465
0.035551637067338486,-0.07355709618949659,-0.018111937895335935,-0.012788244371235822,0.12181069252098428,0.1334641647411052,0.09367347719873036,0.06381202946925701
0.02928969120083145,-0.07230018501715153,-0.02942581142115234,-0.02154074235235337,0.12958159142673553,0.1344106302242174,0.09520653907440503,0.02626616942845244
0.044529139302573115,-0.06666091313748296,-0.003985933599316981,0.0030679698555592366,0.16104789601955707,0.17743374861093147,0.14177091083925641,0.10053137780403966
0.039557058324414085,-0.06241290710113085,-0.013293514681340664,-0.022817530807473403,0.13992083080706028,0.1647461174767415,0.11690954438808072,0.058245266306086084
0.031261140776606564,-0.054912663418726346,-0.02592711803101752,-0.02214738897922226,0.1230591759322717,0.13126230951028778,0.09402858758174805,0.023367991060395395
0.026051487053240546,-0.05083059701086623,-0.01722783693806648,-0.013103284966909948,0.129488425799219,0.140021261890094,0.09471225360456315,0.05518535475309626
0.04891821875039977,-0.04537012442238807,-0.004671036900257894,0.025592690562206276,0.16038151610694032,0.18766741776485238,0.1473024086956687,0.054615181639507536
0.03555447294165282,-0.054441726582333295,-0.006541998247822341,0.010863262663411241,0.14887357704256338,0.16715366129510062,0.11616052025842616,0.0454523752495728
0.036311651917292055,-0.07434695916454243,-0.014594997268282029,-0.024733453173626463,0.11636820544029029,0.12507470339006568,0.08437991599205619,0.04754806372197862
0.03004210230463356,-0.08554590279822272,-0.02423726144240476,-0.014145150591918506,0.13539981731353412,0.15384903744498368,0.11333723010805369,0.03550999746704878
0.048006074155878146,-0.06593510800912139,0.007401384942963207,0.02335513279662014,0.18140536057469936,0.18917523373256465,0.14559675579680675,0.06725143156261419
0.045709129025393244,-0.059246302133167617,-0.009547944020331574,0.011918205662853008,0.1606170155137991,0.182247623727111,0.12891872481860273,0.09955314320457448
0.03517794804797242,-0.082665652600644,-0.015106064850270932,-0.009348235113656013,0.12738204198651548,0.1431976012151221,0.08508929509935806,0.06232497289311253
0.0433119918166477,-0.055524146106661176,-0.005022732405525127,-0.005803187977846968,0.15561006880704542,0.1635478436061925,0.11665583361147144,0.051012784454738
0.054762201504735666,-0.052749133246058774,0.011961366298182338,0.01617368526821397,0.18281274438879241,0.19714586994762667,0.14911627416843312,0.07650523693882084
0.05464567297844673,-0.05673535315852758,0.005852786641797636,-0.008810118614483185,0.1642348051728903,0.1907953542693115,0.1430993121717148,0.06968454113018187
0.038163590436449804,-0.07426391175268551,-0.007535810719851318,-0.0269583686571502,0.14889311627329843,0.14666974572094835,0.1042844481868171,0.06540996850036447
0.046681195711255424,-0.05603508523566214,0.00435202270076362,0.007692246965482388,0.1653615643313166,0.1744124846883465,0.129377844247614,0.08988153228100165
0.05985418127976514,-0.048786717867140686,0.011454762077645867,0.022403046293246753,0.19818336382264817,0.21234107893573756,0.16802042760150054,0.11469863239515232
0.05098564916546411,-0.06513243556232748,0.012449110680783127,0.014867824891281045,0.18459443771587472,0.1937160113890662,0.14663062754959555,0.07989174413227462
0.05246194654403637,-0.061549022921659265,-0.002388616898362127,-0.012860849651876092,0.15047679349318652,0.16021908916550454,0.11255309945277958,0.11323878230224357
0.05380715842200005,-0.06041484971240826,0.005416680823364108,0.008102668091737006,0.17002351967239152,0.1884417506632498,0.148738268230214,0.11773169895666985
0.0650995556112609,-0.051125338917554594,0.02612668355759104,0.021355459168272105,0.1966066290432447,0.21129852157754336,0.1689743805042636,0.11367079787094375
0.059424109560373584,-0.07215880431178658,0.016056781761675607,-0.0044096015773388356,0.1701695902819997,0.19179462778670298,0.14696993790032695,0.07696540352858205
0.05296710592822049,-0.060283260752871236,0.0029793928869636145,-0.030399947609843433,0.14974228778382487,0.15844211438040368,0.11458181575879295,0.10106685219299172
0.05698118663374766,-0.06821111526114061,0.014076250763144912,0.00430980244954461,0.18547372276170904,0.20310417935817376,0.1636266492544693,0.0969217316131688
0.06787327865017977,-0.06938101158651282,0.019142810604239106,0.01539476437793949,0.19616661377848454,0.21615939297080672,0.1771627667129352,0.07503787443708247
0.06225677452065792,-0.07023804373440108,0.007402490945919257,-0.006503473740837677,0.18509028235766117,0.20186329507828207,0.1536091350266473,0.0892509944978657
0.050387061282511865,-0.06082364337143044,-0.004446891057569176,-0.041953503006392764,0.14712990125410683,0.15699031869720453,0.10118040606238254,0.056557454223450425
0.061720015216034554,-0.06463490373842051,0.012807854884566506,0.008905302528335728,0.19000364578392626,0.21247515201580253,0.17263217850928303,0.0790794346122413
0.06871904796969949,-0.06283269436433744,0.016776853532873823,0.02184728708286605,0.21162710122221765,0.23679415182979469,0.1892311666256699,0.07228493677048102
0.06813669201695026,-0.04941394734837316,0.01765511474027168,0.033401599946247536,0.1862098976402224,0.209863231753398,0.1699891894821225,0.08411072297860595
0.05819920322334533,-0.0614147002975151,0.008369386038039967,0.0032896328872900806,0.15440656917197335,0.1734405779475591,0.1221268098727308,0.07022760845462
0.060927047824798464,-0.06543345918253357,0.008896312302781744,0.008724772252474726,0.19380222946586018,0.21542807664602182,0.17017000444757385,0.06795799342180729
0.07796758368274806,-0.06078026052763906,0.022833837992852712,0.025178715708372434,0.21037988355951368,0.23431244667883283,0.20274779310161123,0.06628623582605771
0.0753611619264011,-0.05718313556353884,0.02008571697344194,0.03109944473064938,0.20225894979694695,0.23000243302354248,0.18397178465871417,0.07555541393022079
0.057125402280832766,-0.06830021762137134,0.002046557313295269,0.006874876631626066,0.1608836922437451,0.1861160017557141,0.13935035834487505,0.08018969597629394
0.06433186227048328,-0.07527548759798816,0.023422382207505785,-0.005434132373684895,0.18002195508542237,0.20200285914112603,0.16056207788276314,0.06708479119080805
0.07676856006613042,-0.06802719080468941,0.024391726845870054,0.01521896463566396,0.19437477753374172,0.22786589361649295,0.19269886261129995,0.05305301130340552
0.0691032741189978,-0.0618511398360275,0.031354482059295696,0.017283650164436986,0.1887263655571141,0.21173938904259446,0.16501331406122371,0.09407348466008442
0.05811543620637205,-0.0723694158249821,0.00991583074551833,-0.011808939643561316,0.1486498427316751,0.17316088067696261,0.12311399452712966,0.046614259903042465
0.06421917721925943,-0.07647207723413765,0.017559099822504,7.975323567459454E-4,0.17848041650618926,0.20286381791753927,0.15870886358545672,0.054261731219865994
0.07390180965860943,-0.06656796100406466,0.021602492515396216,0.016732943685413604,0.1812304250763234,0.21125498440914797,0.1704689844850638,0.081879868507939
0.060547563356232764,-0.08403970325608207,0.02186501952486168,2.0024320550440095E-4,0.17069837540249785,0.2026418142405508,0.15202660944098711,0.0341498108164107
0.047376950342743265,-0.0756421397846962,0.0031314121298818185,-0.023171382275876163,0.1404097538873072,0.16892793928382843,0.10050431144060953,0.013429415435016578
0.060397025634396084,-0.07173939478117103,0.022197133259218144,0.003098959662267746,0.18233137326292992,0.21386123112706196,0.1487478018066588,0.0197618126176419
0.06814048490629064,-0.05699079012089461,0.027366595702993296,0.011594867240927608,0.1694620298728251,0.19751962678413493,0.14719793945014528,0.09931895370169416
0.06496248759759526,-0.06216204222454744,0.010938120482638137,0.010755616718911893,0.15105349264844123,0.17993867200016792,0.1224542747127883,0.05106507824177264
0.046862087125282954,-0.08077707564906941,-0.0023193555239473754,-0.013019465661691501,0.15031730935533627,0.14892128109558805,0.0949058240059153,0.10450361795756952
0.0598562009114026,-0.06491576772020569,0.022439036572566316,0.027060832490900577,0.18363829157108852,0.2208112935070462,0.16271191768372584,0.07250598954747253
0.0676502453134761,-0.07007009250710708,0.02860690054851256,0.019599642193457497,0.18516955842017324,0.20612087409077537,0.1486727618639367,0.06116452892989032
0.061172666247570284,-0.05946538928516546,0.01293629277179054,-0.01081816044496766,0.17354013399757656,0.17174043231941927,0.12771127221842127,0.06631939371653676
0.047232268914215066,-0.06913280950863844,-0.006352509154177213,-0.024652180537298896,0.15690108076204023,0.16388977742017174,0.10993804783057112,0.07297352537742302
0.062178032819819276,-0.05437981851402303,0.025866733190979437,0.010609320899114406,0.19802699882380292,0.2173253461556864,0.17090310480081305,0.13155019710980545
0.05921322439525768,-0.06392027970773373,0.013691021345624535,-2.8446759180056347E-4,0.1907137061808326,0.2033341477526069,0.15361392818441008,0.1029989866090828
0.05102345132210019,-0.0759036442526628,-0.001349074372428036,-0.024552368489934966,0.15083043912623564,0.16998872155053943,0.11459895459638503,0.058921669296085645
0.05079917696274089,-0.08044236331716632,-0.002567298943146893,-0.006770166309393786,0.16589108879977488,0.17223562532954825,0.12104800927819598,0.06515877686783875
0.06675004847416321,-0.0628693586282392,0.02087943153054661,0.018262675976428163,0.20343826986214208,0.21955923138515676,0.16821375271088573,0.08007694670388435
0.06562731319979001,-0.050529753966232646,0.02703766559505938,0.009180656810000321,0.17888654377098834,0.19910767479119046,0.14699516341905247,0.08468935582823482
0.052621197057638,-0.06276567746187181,-0.0020431840433621155,-0.0058715202558841,0.16575654625957653,0.17264321764868096,0.11026458219267997,0.04022216079692582
0.05129723028751201,-0.06614042565755962,0.0028570317466662847,-0.004745201179519969,0.1683063767129766,0.17008012253035512,0.12793052416492354,0.10665146451340043
0.0684787630752626,-0.07011671181088888,0.01847695875429656,0.013320340089577819,0.19313365073903802,0.20868491359510538,0.16643049508609442,0.07768931755252802
0.06999865337924041,-0.06384456614695272,0.009622939707612452,0.0014041612533286334,0.18180425771429676,0.1914744363468653,0.13841279416811064,0.09082116929240447
0.054509344469707885,-0.06232485086314381,-0.003915721984585971,-0.013314680742966527,0.15617343640282474,0.15236566452253833,0.10352374251629194,0.08346548895587477
0.04801304897263299,-0.07049316890431623,-0.002631133098036805,-0.01703287572904801,0.15013110454479978,0.15896365003746404,0.10720370908922591,0.05102313381861159
0.06440766338230344,-0.06634421970018553,0.019077286888138267,0.008947277739565496,0.18061346858675834,0.2038988216907907,0.1420014002251536,0.08032445732870065
0.06478110881969149,-0.06741287371069613,0.005247643703232918,-0.0026819776922281345,0.1709912543841508,0.17569420885625076,0.12593385852242317,0.08812895947943714
0.053965918796812076,-0.07099482466933821,-0.003437774791320862,-0.02657933791775829,0.139844877748663,0.1439666453111097,0.08498725279915802,0.06456696088615638
0.05654392199492056,-0.0876768546621288,-0.009804105624330529,-0.020904011901035694,0.16478929852359578,0.15800281748836686,0.09895083794657422,0.07005951295818129
0.057028868804094676,-0.09664084741841422,0.009961966751343034,-0.010525326909678352,0.18200446317525054,0.18549372288177712,0.12831381888004237,0.08528631342261539
0.04854144436087845,-0.08542898891620176,-0.0014571190077619992,-0.009404875236059911,0.1638043015633452,0.1655733028818544,0.10736287790586505,0.06991921284095032
0.0393559036196634,-0.09548132839755918,-0.02764603216582164,-0.038096042384492546,0.12808186113926168,0.12808800083556407,0.06726403628429073,0.02836063396394463
0.04641670094468618,-0.08332881422360514,-0.012254558351437348,-0.020969579914080355,0.17394951722169688,0.1605904002345686,0.11480420463334819,0.09762980974152921
0.058710395541297616,-0.057864541246143965,0.012293009346274265,-0.002742701308038737,0.17973883370014238,0.19272454532258393,0.13900322220846215,0.0744410216870634
0.046116758542324096,-0.06934810217263626,-0.003298747484659816,-0.011902046269058678,0.16361493812097838,0.1646812137029255,0.10417257228876595,0.04640254018577396
0.038069560786277865,-0.08377124592933896,-0.031104043001655448,-0.03580870518726413,0.13155817042176388,0.12104501133243649,0.0556050605217105,0.033103058875951906
0.050709910504368266,-0.07169225139428569,-0.008151027852530458,-0.013560683592847685,0.16932060374183477,0.168800317429449,0.11067947248562883,0.06459021808760586
0.04998047732314728,-0.07627839407460069,3.73276121938132E-5,-0.013547108016109335,0.18516428529749823,0.18540736206813402,0.12513685597923718,0.10217449657907453
0.04529105870438872,-0.0782749617870562,-0.006985289596862344,-0.02419751424993192,0.1665011629417747,0.16824425825304828,0.09451626954778856,0.07872073522291435
0.035008622339184114,-0.10142655493431413,-0.031177163398340178,-0.04794578118895469,0.12046739588702006,0.11844777115761593,0.0558498441943388,0.05875208207283852
0.047322949354263885,-0.08223043174994199,2.6683040545429255E-4,-0.02996804099508612,0.17389539626121275,0.1777577254129149,0.12475656357272875,0.06559086022811789
0.051406390746773195,-0.09146952691213833,-0.0023851427113542652,-0.026896087984783254,0.17652033958754088,0.1891463977553139,0.12843379121642803,0.07824697856430624
0.04082799931197148,-0.07722465425240994,-0.018033946578238376,-0.02637762554939834,0.15742519891145967,0.15510931226559393,0.09899176993198563,0.05840018391360329
0.030618360423254606,-0.0967102671164756,-0.029657689590292993,-0.05159790706443084,0.12080798280570723,0.12665914950822788,0.059904730397834456,0.10742313365609216
0.04353674939853505,-0.08956506238022739,0.009309524565297598,-0.015886783456093748,0.1848933416524237,0.19083107127442622,0.13287802950874542,0.06751149114108078
0.04857154525382383,-0.0833991040654388,-0.007912407398834417,-0.02722158196948888,0.17438189814132454,0.18195001140697142,0.12360315851975096,0.049440648106242706
0.04738368577652603,-0.07593933683518059,-0.015010284164867747,-0.035507764778504404,0.1622516641325444,0.15812240310669895,0.09877819444151353,0.06857318204374133
0.03539265675396721,-0.09672304530467751,-0.028938570706793745,-0.03786675843126838,0.14244106211994362,0.13684047658502246,0.08742397513278304,0.08422365558300458
0.04463375855495334,-0.07196228145590411,0.003503130063938808,-0.01768100436563983,0.1927404217337641,0.19955695289876646,0.14741196827319517,0.07611854048290023
0.0473407846253377,-0.082367646906002,-9.967207934444998E-4,-0.016119437157162103,0.18788180718017577,0.18550732519724322,0.130337375857603,0.03510079004449651
0.03941259404700928,-0.10270047417652856,-0.01694629759299133,-0.03198792126497149,0.15930589756599547,0.14918274366866802,0.10433164377879035,0.04691835530958227
0.03776698682764783,-0.07186010874911901,-0.014132980363325836,-0.035866687797051794,0.16479918226898493,0.16131276410012713,0.10691620953135061,0.08049918728517957
0.061022244892060554,-0.0910331108250885,-0.004838038208346386,-0.013360973658471657,0.19108145258896908,0.21472796995975155,0.15777456874307177,0.060959718888974376
0.059105978139051565,-0.08592140203462892,-0.005668157858596137,-0.01681219215786834,0.1723729551611155,0.1855607916731451,0.13974896858352406,0.061700819242790916
0.03535372341194876,-0.08505602947386617,-0.02273943482015951,-0.040284681473888695,0.14490412151901993,0.1552527791194483,0.09873428467826698,0.05518082067630058
0.03784007967584181,-0.10436748255910736,-0.0176370365662621,-0.018091167148695873,0.17375042167589114,0.18728091491760965,0.1380417604879099,0.0734876946101839
0.05601802193039969,-0.0766192909787588,0.005642005405986077,-0.009355090539515838,0.19128940216393459,0.211485807202593,0.16666854733041916,0.07606834111336613
0.05464132296718819,-0.07228301560205776,0.004621727341160233,-0.02398646777223299,0.17566978987593912,0.19433520368984444,0.1362286898712934,0.07788304003646607
0.02933327475055315,-0.08375931426324724,-0.021162239584594456,-0.04205476928430482,0.14500183437307795,0.1472174024482365,0.09925174949392734,0.08245866761220633
0.042115221787170476,-0.07950203821053377,-0.004626261395355178,-0.017517264222889233,0.19651911025952878,0.19955813719277626,0.14848333063939084,0.08360697452495043
0.04447533232717579,-0.08766457896180027,0.010678111720822487,-0.020928384278724066,0.18918164647765026,0.20792660628756904,0.15348600312246535,0.069147839380816
0.05573172603729766,-0.06824700112301862,-0.007408591276222889,-0.03563015948656093,0.1723332449635214,0.19173142117562236,0.13504447739190265,0.08498235137087103
0.040177552067557944,-0.08731613159540416,-0.021328400186931343,-0.0443822642161714,0.15694431660176472,0.16394413718711,0.09692297715574966,0.07073340988775678
0.05377064579847979,-0.07090789633940944,0.004913894597915664,-0.00815193369938198,0.20235127304570177,0.2240117845219922,0.17159353746840977,0.12170868071729024
0.051837703368481855,-0.09064592639403873,-0.0031632171825502916,-5.561399975117474E-4,0.18919750282680764,0.21322966231171842,0.1560203394013377,0.094849457797449
0.04959124272018468,-0.08827224784048956,-0.007423830189369115,-0.024940304265518874,0.1800862365257973,0.18565661316807208,0.12262879513364697,0.08058893512297119
0.05503636637605636,-0.07546619239937652,-0.00840932001912694,-0.022209895790717187,0.1651347238530285,0.179044119610934,0.11924356872175787,0.038596596865009665
0.06846754957582406,-0.08107666827512564,0.025698364202878077,0.01770711516417904,0.20904668382904956,0.21873625296705554,0.17645610357129082,0.044123323331966065
0.061278126783702064,-0.07737392651471026,0.02455822800312308,0.015570199368009657,0.1938145338650009,0.2122618071678395,0.14892053200183752,0.05634664167055972
0.053887713292519054,-0.07723060714273661,0.010582556396251412,-0.019252047488827743,0.17754995088295386,0.17249813520280854,0.11371192636432612,0.047624005500179874
0.0650839794941018,-0.06957743995171511,0.011787436719681237,-0.01313186609930278,0.18709333581224177,0.1938672194894172,0.12955573951861343,0.03498719973000455
0.08114824661861127,-0.055188001281398315,0.021521369198134827,-0.011800202245142305,0.21370337848595813,0.2236996827576327,0.16658042748280238,0.07045802633350738
0.06672736021391151,-0.05937691806576223,0.025053277626847115,-0.008687213500056863,0.19206778931252663,0.21514434270201174,0.13951639847127995,0.05868788147827442
0.05788663468625667,-0.07058894596779088,0.008111776845858638,-0.01930650910434506,0.1659118599690815,0.17314141374282208,0.1041235906520834,0.037399271860374714
0.06926192283374857,-0.03916210303070377,0.021545827411338918,0.011028322775727455,0.1951554848396252,0.2200960957236871,0.1556455574447445,0.10407715207330118
0.08425185607940462,-0.04997628586134507,0.033730822087234574,0.014104253088299362,0.21300877496830922,0.21923712705867543,0.16230836515076022,0.04216267851479401
0.07833921567830994,-0.06625844900320807,0.02080269921524554,0.002391176050452297,0.18344696771114705,0.1888231671345992,0.13131747433298102,0.10622229687344709
0.06695783842281039,-0.06593988245055862,0.010275557689917114,-0.006636655319248418,0.1733089145140703,0.16997714567078825,0.10955617534475046,0.0640824982333879
0.07912227899356727,-0.05149919467026801,0.03949265329958927,0.017745076993676098,0.20385718441030137,0.227544103464058,0.17148959825359383,0.12260178244286594
0.07310250848069219,-0.044995329549920846,0.029395686151689443,0.009801654413391439,0.20374815534346732,0.2109597556757784,0.16419309156902293,0.10490035377387423
0.07590351054393432,-0.059180116256529976,0.013611825010750707,1.6980626928599085E-5,0.18064091322409107,0.190914816517339,0.10659730837426976,0.06311859084553212
0.07048586584839694,-0.04441990189575272,0.017076628440361834,-0.02222906240812078,0.18207895639834998,0.18911290741044579,0.12492641352324282,0.07780117736432972
0.09166764159819055,-0.03913668745550082,0.04503277972835392,0.025638370057152214,0.21139232136029668,0.2327442786350143,0.19002018167442858,0.11718154488324117
0.08169291999750006,-0.027361596710822476,0.03464606398724098,0.011612743652161465,0.21293745117170484,0.22688208242329833,0.1708740621659899,0.10566400551658794
0.08708902505544176,-0.04722139762077146,0.028071306223928637,-0.008198944023652649,0.17930436793188784,0.1976653202454465,0.12971431235603975,0.10734829342522202
0.08739050830115563,-0.041970732720275676,0.028671013221485492,0.025539609097991328,0.19523337975851768,0.21723327190855848,0.1654565797377474,0.0724802761014072
0.09769863820376075,-0.044911732698801284,0.042980060104795485,0.037237589435258664,0.20853973098430684,0.24507755189875094,0.1884761981402273,0.11991096986893815
0.08444549109979983,-0.06207453622270945,0.04367707388107194,0.022236862785953493,0.20182215355338,0.2258208593483536,0.16445656855740126,0.1382958103608924
0.05954352558541408,-0.0673114476675323,-0.004294582242173118,-0.011580702811023184,0.1825518781511065,0.18931102412447628,0.1333033861721924,0.13884692290934691
0.07370040078470463,-0.05788420872401207,0.01958477870935741,0.014394720868758634,0.20982711965846318,0.22236099611254528,0.17451336991385946,0.15666463287757962
0.08456517994417219,-0.06049723268682232,0.04171246326364368,0.013754014551038897,0.2122628535777111,0.2362875816291642,0.17471172577425248,0.1316342477087317
0.07580511440305301,-0.057529140628076125,0.02834541511694134,0.020328603257381297,0.18908736628030684,0.2163827155002676,0.15696028913653592,0.12295240050988215
0.07093896673678529,-0.04230767749311494,0.017559132413359053,-0.025729089174862496,0.16252066878829,0.17388887486415547,0.11578362044217949,0.09806413811156939
0.07451489750666532,-0.04522472999046952,0.0297606093193634,0.017629654189022792,0.21260702839534731,0.22455966370028257,0.17978067056470798,0.11078732820889756
0.0892020385563903,-0.047344928559684446,0.02902806580688161,0.029685916473565343,0.21357859391461048,0.23440890742508486,0.1717815316117618,0.10857178422940238
0.07907964646683416,-0.07605528529038263,0.033793530434699466,0.017681568177976763,0.19745268715624384,0.21618897842677584,0.14914649946928346,0.04357522519446905
0.06760068343837805,-0.07384430833624825,0.006222596860628956,-0.01167176789627545,0.15454729872036982,0.17463376287533966,0.10425276445981653,0.06660248915513566
0.07313636923180251,-0.06644111683079554,0.028304285101666767,0.020629303200965,0.21262892705306774,0.23790885611121976,0.17434549865377447,0.12918175847337243
0.0813507935987498,-0.07281467157118057,0.029458588504616863,0.015618454967637498,0.20609886724204324,0.22281642380843314,0.17658804155637026,0.11715417851062539
0.06370998085744561,-0.08960128289631727,0.008445799142555839,-0.003261031283483977,0.18717154710889428,0.205890874206205,0.1342871597149733,0.08700987325639707
0.05554422572125836,-0.0778474279179738,-0.005247385689570323,-0.029002981830745032,0.14848765489346333,0.16532597330376375,0.10413098731865345,0.10605413908494277
0.057964802397759016,-0.07931059184357944,0.015712094641870848,0.006321705457006596,0.2004154848628063,0.23610402285890247,0.17919621711259714,0.1073617992238863
0.06151238870489141,-0.07035391197122952,0.015875712243197542,-3.100386724767881E-4,0.1942057433910381,0.21498461493455223,0.15311675075201456,0.09161714310870632
0.06477737847302763,-0.06067480540853244,0.005485882718895447,-0.006503149517846172,0.16798260770223647,0.18933195456220162,0.12745777391132887,0.0988696551259633
0.04952466580755994,-0.09288715273512672,-0.0011791986368188609,-0.02238860682037297,0.1348074703257604,0.16458327569312758,0.09651686515602584,0.09866979889298635
0.05873343550463779,-0.11226717775678427,0.013084771684831473,-2.8625876347471158E-5,0.19403523958556848,0.22858411046844462,0.15234442428792475,0.14819481518335234
0.059213481495300924,-0.09943190282477256,-8.263976588456234E-4,0.003081398566368434,0.19198964651939243,0.2041353712213409,0.13728969286133524,0.13007293493636954
0.04647010641258578,-0.12274155845227733,-0.011589158197932999,-0.03050068400243646,0.16724038686710602,0.18056997863833307,0.11570523670276522,0.12243351766224535
0.041399007379720854,-0.1049942354499572,-0.020665431685207035,-0.03485825416911361,0.15324301646832186,0.17611285307440053,0.10775103543367506,0.13544162559932266
0.05601087073799167,-0.10576495495899715,-0.002196535669423296,-0.013232844446661448,0.19496582209369512,0.21304943592132547,0.1537850291617681,0.11655018885776282
0.0570386541552861,-0.09852248625632355,0.004208818768739998,-0.023977297574646603,0.16724321942110318,0.19612603408187157,0.12674057869532102,0.02369393967064456
0.04793247491516445,-0.047656238266162776,-9.850121012129442E-4,-0.03396453275833101,0.1379204357017097,0.16300657256666473,0.09319013284872671,-0.026110482518766173
0.04174504840885278,-0.043636850406132605,-0.001682972317302524,-0.024902251222414594,0.16116057844712423,0.17292582167825912,0.11279847697305453,0.02517553016666297
0.052035491720562696,-0.02007978230806625,0.013679353044149894,0.0022858302482056322,0.16565427709711247,0.20322894523916468,0.12612502680202453,-0.06972038743452966
0.045752493384667095,0.004253190619809241,0.0036393033105346466,-0.0025311294303968605,0.1456022435169859,0.16388236263254222,0.10186012551361352,-0.10526465426813075
0.03536846475041009,-0.009211769591913718,-0.018499886974051367,-0.03556274283817268,0.10579550681294406,0.12475895605800708,0.04724578264773832,-0.15395689623548092
0.03732070388434318,-0.009088163937124335,-0.01406880407072939,-0.04508471504046231,0.14732592451932394,0.16471641573029794,0.0980156970545748,-0.10012346040652495
0.0440117739755605,-0.019036878476134205,-0.019655705375087342,-0.023351280303140622,0.1505836233271251,0.171239602520797,0.104855196485477,-0.07447945162698727
0.03423495651138987,-0.011232352402375672,-0.022169880773613287,-0.03572074605301795,0.14277412468402706,0.15450508969517607,0.08270404733072334,-0.09107482426845691
0.029345325862326927,-0.05930160054682558,-0.03181519512818902,-0.05719531641991098,0.1104686174633586,0.11920627102314882,0.053622390054303824,-0.05168154179465213
0.03753558600880289,-0.04552070239302991,-0.0056466524185173235,-0.020147188400598696,0.1609622777538538,0.19359040896426924,0.11788782399384587,-0.041705724469083376
0.03748274878013393,-0.08005838730319031,-0.011600322024827416,-0.0068116816699514,0.14093241803292444,0.1599647475608411,0.09850121386025198,-0.016452766596159074
0.025475382392373284,-0.05996856717373208,-0.024885416200956086,-0.027699337204456394,0.10670939257448872,0.13847826984758313,0.07048157184031895,-0.02798809115561337
0.016042656842938284,-0.08574393631506591,-0.03543976035936351,-0.04938574404675818,0.12755167194759814,0.14286152035209454,0.06877039087158153,-0.046391993800239804
0.03134220087043973,-0.0802454919232234,-0.027473816095649216,-0.030875666304820908,0.1583344993675617,0.1897296606755642,0.11861114183098476,-0.009292876830885345
0.023534326450439257,-0.06454008085357113,-0.0315391573509756,-0.05071651339643831,0.1490051742090094,0.16335027752374143,0.09608665570414904,-0.024287718584487375
0.016572587271839627,-0.07920937050853588,-0.05312694759810811,-0.06629885930000647,0.10297021767452962,0.13200533038163492,0.04472651191281476,-0.060889946570774706
0.02628647811314109,-0.09801794567872757,-0.03640142602934033,-0.04475199470778319,0.16325129686897885,0.1864997713495522,0.13263924182327974,-0.029474724344897
0.03503966354327196,-0.06698803659365886,-0.02394518191990882,-0.031975015631868116,0.15968375675211288,0.18409278324170475,0.11892022928881027,-0.05973167724165894
0.029752158575044325,-0.09960607712676328,-0.04113390743498101,-0.058413382231964,0.14614739945952712,0.16354272410567616,0.09504521166221094,-0.04788786919186723
0.012658232138770808,-0.07907645046647971,-0.056428737425537764,-0.07866748217648714,0.1364663927332159,0.14459161131359513,0.07449592613796646,-0.052472717683255954
0.033453713848107844,-0.07857693867904704,-0.03362235992783282,-0.03813163579995511,0.17534579968191466,0.20284978812498927,0.1403201512895397,-0.018846695839112804
0.024073939690320054,-0.10979055004679998,-0.039004693827601855,-0.04045710540108183,0.16328869214644715,0.17526773813491103,0.10575543506232318,-0.025070899681050585
0.012939163597019888,-0.11783102928055632,-0.056463921735668846,-0.06300003055604186,0.12695483168719682,0.14347123816633353,0.06839084282861144,-0.0384551127825421
0.027372505637664205,-0.12402091740785148,-0.04797942228938625,-0.049561521483504664,0.15482562209224457,0.1707959730071678,0.10305797499631864,0.01762397572550792
0.035702528913722525,-0.11799072654463205,-0.03918697428269925,-0.03637544058590758,0.16213313706069482,0.19779075659098327,0.117619538797388,-0.00543887825169255
0.026332012476699036,-0.1074779605896844,-0.04252054380627365,-0.05542907469649995,0.15462171900191338,0.16799298374626565,0.0964301129219818,-0.01807998994250646
0.007176145695359008,-0.12369163835489311,-0.06874567632511655,-0.0906608791760487,0.10317261404268013,0.12798339885190446,0.03969717739557864,-0.014662039269709163
0.024770892027915832,-0.12050990646833615,-0.03976135860586827,-0.04352762814019648,0.1714972272075638,0.18852425561303968,0.1220962704781632,-0.012983902746552707
0.025807180700351935,-0.11080908812944629,-0.035443082576798984,-0.02175477328416868,0.16625085220368246,0.19371529933094803,0.11095180128045799,-0.0319435274520512
0.011795262108188707,-0.11294624117509497,-0.050851706451963685,-0.041538163538473775,0.14520791014699216,0.16315119264905475,0.09364195469722085,-4.882894153216098E-4
0.011084858274684401,-0.10442119065606653,-0.06117919996085217,-0.058125153766342724,0.11746043660505037,0.12850058471967968,0.04363439434956309,-0.014619664111902617
0.03043158024948616,-0.11519408650876693,-0.043001061973494084,-0.016909736086908093,0.18190079949309354,0.20567013360482028,0.11362461260032596,0.0027690748124743828
0.03354973098864758,-0.10653226412734317,-0.04890444915544745,-0.045379734832848136,0.1614529531850685,0.1774032222691482,0.11071665751839707,-0.04225193191403722
0.017524202328441187,-0.11765564362382307,-0.06017339190145354,-0.045250485041427445,0.13670295328008997,0.1442043688124116,0.06972980775884229,-0.046471737288787944
0.010090497488599241,-0.12846915418862523,-0.055904803426949014,-0.06786439528323163,0.12953856223009408,0.13497950464954012,0.051267767161194217,-0.05235340208211963
0.023932438110723746,-0.11350877566332597,-0.03710618395739966,-0.042171580405823555,0.16835460598973778,0.18779733608675347,0.11874693010124385,-0.010122293711233972
0.021370179174230213,-0.10806254449997894,-0.051834128741862134,-0.0640676659295045,0.15952842545397727,0.16860312758631651,0.08915079084867657,-2.8419483481846586E-5
0.007704671987999772,-0.1231408951361094,-0.06963699458751375,-0.08549350966655919,0.12372542412620888,0.13902705758387168,0.057120574905369634,-0.008004662364221427
0.007276850805215911,-0.14407932127441314,-0.07522180051815168,-0.04713945427497966,0.14237200568828987,0.1768004357450304,0.09430843900578649,-0.004914231253420151
0.01796110397708569,-0.10693674618003841,-0.055792212824251786,-0.04157607413278621,0.16843485697121624,0.20392901953689715,0.11988305084083462,-0.015025416033247752
0.02083584655406723,-0.11904233188555989,-0.05933445781187315,-0.03926997417561691,0.1585535712263509,0.16985564342374632,0.08425393616104038,0.007929815157503024
0.004699517359449901,-0.13957408064932664,-0.071449171203705,-0.07316507127512867,0.11774211962467131,0.12354562204230021,0.02892876762116492,-0.04176851804657448
0.013482415149482847,-0.12627563787856425,-0.06994436162025003,-0.08311126934402362,0.12419813413344828,0.1383947132223456,0.05158807443591239,-0.006840583251320455
0.02094073200551567,-0.11625759407005537,-0.05446507258074152,-0.0741951763868722,0.16621917576517928,0.17959184626994712,0.09237150653808393,-0.0073256477994987634
0.028717993690694617,-0.12885945030860413,-0.065890007570197,-0.05695326677076451,0.1550654145557999,0.1594521747948749,0.06796237696433813,-0.010631291263315336
