0.005975462212475349,-0.020446738770688595,-8.074917987037918E-4,-0.0011710333967191154,-0.004763808029338588,0.01590440901289631,0.020116726785084388,-0.03794739895062631
4.991322907260662E-4,-0.00917050548663072,-1.964860191887991E-4,0.004908157738634823,-0.00530956601947669,0.01918735536152148,0.04648505538237995,-0.02249227551900633
0.011396424817850538,-0.018836532044784842,-0.004438196554225554,0.005960428506824812,0.004336863139172525,0.033980443011354805,0.027109733098410277,-0.04835760985585008
0.0012810605650097468,-0.016638248632930376,-0.0017132298427293066,0.0029937754911204153,0.00166722860257451,0.03294702078163519,0.0350277278328997,-0.054642879343890116
0.004919896094425401,-0.017036251568758036,0.0026556238041819933,0.019076423144673667,-0.0010006704056952603,0.030303776663490982,0.04914445545517256,-0.04021323640939406
0.004489617922258465,-0.009808725922831217,0.008548848364103618,0.004109390328123107,0.007385747769209906,0.029859000400601434,0.040178528274712105,-0.04933644601721959
0.0016433826411741074,-0.024393878469835945,0.0028066855866114163,0.007957061069554546,-0.002180005418173706,0.034294611651075085,0.048332620367952536,-0.061155889769327294
0.007574122720541493,-0.008881276704860344,0.010446384624384311,0.009436602530932153,0.0015722715022602719,0.028417017630992403,0.04748674468751752,-0.0620040677378167
0.006162019309970401,-0.011212520051040039,0.013889293684150348,0.01673198933904787,-0.007529703582860622,0.021269403646079616,0.03736717192613085,-0.04466567334526942
0.017203001351477325,-0.0023775955956014333,0.0069400043482454165,0.012535969042689079,0.006341244200198277,0.0321609642663113,0.03574565575742329,-0.033155725003822877
0.0184955039257777,-0.017278878081938877,0.006092159303430032,0.018401767083336813,0.016285210377250288,0.03340178713450589,0.03759246804817532,-0.04639539395384583
0.012326633184611165,2.792875254680608E-4,0.013542393370431144,0.013588023593734292,-3.1676539726646755E-4,0.03319917393759982,0.04892547985895255,-0.019294481734557473
0.010821866480440097,0.002705264955853876,0.009535530931581172,0.009215231943755543,0.005995854697296896,0.031397463768245246,0.03910132317457562,-0.03923580416087514
0.00932441931224703,-0.004884971172396631,0.0039607692724238225,0.007666422998086432,-0.0062486639424523946,0.0317838165340974,0.04416148872729094,-0.028999320213767797
0.007712151680505177,0.005401927492530076,0.006759869764885752,0.011755593278926744,0.0030334711245960273,0.022886011039693416,0.023824287318824668,-0.03587968229021108
0.013639565466136839,0.0014365060700079417,0.011998909647063554,0.006917762877350807,-0.006767570328884002,0.02319316124117989,0.045697373167178354,-0.045402639041924084
0.016608824161251565,0.009928438958018851,0.006468290332357603,0.004787163600089862,-0.003563668122440921,0.025720258754300826,0.03323081167338701,-0.03188447536999554
0.012390295473090212,-3.6701113340726764E-4,0.0029731568941992505,0.002630679535350308,0.005833967895379983,0.009903928408658459,0.03915827280298866,-0.04147748783445824
0.013293627697847267,-0.0020194093059102943,0.0031488474400086742,0.005328839817177952,0.0057042591590728605,0.026754333684766034,0.03238452872184949,-0.027374983669973055
0.018358373230124878,0.007404023524507641,0.007772173903222455,0.0017946843949314085,0.004959999678336714,0.01874751046016638,0.03541435182665937,-0.03230852218409671
0.013492961449487579,0.00863137057295298,0.005232230382359285,0.013400494912258126,-0.0025167083994578647,0.02610589656079955,0.030056302718828875,-0.06540715115872404
0.005789190435986832,0.0010611674621078034,0.002690800315272565,0.0014661727240035372,0.011504614443834566,0.024733448433517474,0.03287409655599293,-0.06782803239629796
0.012391539439589521,0.003000859176170196,0.0073610344437787575,0.014784428903289046,-0.0019212635218470602,0.02622206701078569,0.014814312543031357,-0.08125548153315522
0.009425039560111075,0.0037054540648703317,0.005710886233564781,-0.003324389409337848,0.010341096930085749,0.012134161067759273,0.024099952749341288,-0.05702564229533615
0.011222578723944209,-0.0021763836039654437,0.003247417590982747,-0.0032685427230834353,0.016701127373040116,0.022826415642874517,0.02707640039672382,-0.06177608158679952
0.015519471772502718,-0.007861554291872384,-0.001266088320363093,9.041068507594673E-4,0.016209412488936887,0.009550751731513478,0.015385430169970989,-0.10490431239576874
0.013974172170569312,0.0013455954319752425,0.007224938325390342,0.006739924249266633,-0.007821683733436646,0.017540276660727747,0.011568754812368508,-0.07697950440632044
0.009280972400465434,-0.005318827388650625,0.0010073787466500727,0.011908312325437808,-0.003209477457291771,0.01526180494155244,0.01793385146431105,-0.06643664877041502
0.011947064611301024,-0.008481720594664548,0.0032588648183580447,0.005506965910923764,0.007154701053232114,0.005350968664451661,0.0126866673760023,-0.10198038219769046
0.015232177605067931,-0.012193015043171988,-0.0033546234659665277,0.0026553743450768268,0.005991178671116404,0.0036582341761344688,0.0024539495418385076,-0.10591669675896934
0.00695237886930955,-0.0033437478689527316,0.0016282626940022809,-0.003619165167904385,-0.003043689995552998,0.013461165982802335,0.01370105898476874,-0.085242623682599
0.009857764400046947,-0.010241701215947965,-1.9714436098848523E-4,-2.3836249689709809E-4,0.008550944059566181,-0.001372109260937796,0.0052355120004504525,-0.09473864854877308
0.008973648719293056,-0.01679895332752968,-0.0075144557383146696,-0.009170862210144718,0.007902618901819713,0.007802281860003332,0.004206643941744612,-0.1033671762317619
0.007395091149468651,-0.009960648070685928,0.004532865116658793,2.7171392579850105E-4,-0.0038489284778262423,-0.0014280000666808208,0.007723727845463773,-0.10263522169982367
0.008052380445974653,-0.008497755613257796,-0.0049031083074140315,0.0011301363208045827,0.01122383641730911,0.01933205914489438,0.006137168970580877,-0.06873668007344548
0.013879951789049216,-0.014220892075457962,-0.008732188412462157,-0.008494894474069738,0.004736659286882371,0.002627242643457964,0.025302470666503995,-0.08420110817146058
0.0035222563512841347,-0.02188827648979016,-0.004266071951630156,-0.0077748263993003535,0.0015947685839418251,0.0020051094535486324,0.01678706301010175,-0.0858955573972052
0.0038225952540632503,-0.007198740970686787,-0.003070213277898324,-0.014633322116968106,-0.012003308706264362,0.005236517700904566,0.012762228160882605,-0.06325992085163949
0.010494799956220801,-0.013581965172300875,-0.0045603413181137635,-0.009761341097703581,0.002412244516827949,9.534624534889266E-4,0.009487886236921,-0.07259264981584305
0.012480001236065517,-0.023685963288646035,-0.007623219830533003,-0.011642884632833528,0.005183326011921333,0.007962441753625673,0.013691463022271514,-0.08321758592100206
0.006111993905338116,-0.0263873944960736,-0.007715687344163461,-0.021597671080205324,-0.004577073008202714,0.006364065152740485,0.018714942767931824,-0.09801155984851584
-4.667644379194719E-4,-0.004740789089423237,-0.012305404218059314,-0.024673501298110807,0.007121620567958749,0.012604684448991186,0.015136177154594536,-0.07745362937118666
0.005212093577951683,-0.017998587181371706,-0.010255355212198733,-0.015563515437190353,0.007989430099377552,0.010668532502508023,0.00666717678367997,-0.10152254753268336
0.0036275142032520234,-0.02556312112573601,-0.015896532410065663,-0.01766092372034243,-0.0016210911874648811,-0.0072072642704430895,-0.005925158997643248,-0.10493273783883741
0.00567721422225594,-0.0192852014919925,-0.012977992771255619,-0.01979305279561671,-6.905784146688383E-4,0.0020285293878302764,0.003270121422196482,-0.08311566744199042
2.5324619804098936E-4,-0.023291909166645215,-0.01633094119531475,-0.03015923394655628,0.008428819715824864,0.0050014021852862935,0.021941351393595605,-0.10104282666785842
-0.0033164464103493303,-0.03014296700595107,-0.019100311599484884,-0.014699854856585995,0.01858851115326855,2.3850757993203417E-4,0.0148728599900602,-0.0906567864492249
-0.0036423933852592167,-0.03689241200236585,-0.01923600316285454,-0.018222308413898842,-0.013672171267471486,0.004157858308970152,-2.2678694906759463E-5,-0.09584395866602032
2.3825885322987416E-4,-0.025114914786450317,-0.010833066874962459,-0.008221749895241041,-0.004290243279775628,0.013429795158383384,0.012257497427438379,-0.07182530978967959
-0.002204154702789374,-0.03870159667223516,-0.016016239772277705,-0.007955131605556694,-4.941586498697466E-4,-0.00734001989329592,0.019676960372424016,-0.0957169181609385
-4.225006301130254E-4,-0.049059472136930515,-0.020779695211931983,-0.004286846809996458,0.00432009184030532,0.0024622890396810153,0.011429322097299362,-0.08333293426416985
7.825760523777419E-4,-0.04039803491533214,-0.014188823948067177,-0.008839268775918304,-0.0022695178452618965,0.006241968803005416,0.014516734581444398,-0.10338682100221108
0.001459833886569308,-0.04770906898608704,-0.013674281591988963,-0.01622135405544678,-0.0022418372386766284,0.0053091943610328474,0.006363037667103894,-0.08140583570061205
-0.008797924882813937,-0.03797055463568722,-0.01665430259746086,-0.018784201548408895,-0.0025776330683405795,0.00864065216735583,-0.002577623481311853,-0.10163466585484715
-0.0012682138820533494,-0.04263447229530728,-0.016245228004948906,-0.01763101399440124,-1.196973638719672E-4,0.00504598514804972,0.01584662342961265,-0.11535200081304443
-0.002034565898322337,-0.02765716907088125,-0.011891287240742393,-0.006695862005846682,-0.008047673159111493,-7.082273137185937E-4,0.012537172865369072,-0.08455509306137607
0.001822826739357066,-0.03675172780586935,-0.009188045557945843,-0.006774492275652775,-0.006420019398578726,6.082961042048759E-4,0.0012010504336651365,-0.09005051765382686
-0.002270586017870319,-0.04354459329327953,-0.015979938715428903,-0.018285426164308675,-0.002124773973502913,0.014091391285783772,0.009744326330918202,-0.11238134680428985
-0.0032080343193959947,-0.03989034408338686,-0.01202645342800274,-0.009765776154038902,-0.011776012615902167,-0.008075396761118882,0.014626853902696234,-0.1046271704832126
0.0051990369490076795,-0.022917292993140503,-0.01927897320358699,-0.01844799184618595,-0.0014153444722363761,0.010364405641948937,0.014395319433792226,-0.09577028918007821
0.00569529567318964,-0.04228684987786145,-0.011887731816236155,-0.005320909393823093,-0.005934156374063423,4.283908961066436E-4,0.013365715025788634,-0.1203823564342677
-0.004772894219474422,-0.052923349599491944,-0.014197748905084524,-0.00791426054333164,-1.7135654742347143E-5,-0.001794089578248971,0.019066658470724362,-0.1332422815507001
0.003358072010886451,-0.027892858227469015,-0.0065927529314599624,-0.0014415841654911463,-0.01736871609892992,0.005556072515455878,0.00523445545356271,-0.09646402012347868
0.004268625726928262,-0.029490067626960364,-0.009935641760965876,-0.001878367003263042,1.3993550228320409E-6,0.00858714841896807,0.011454938934777286,-0.0997791313701736
2.892456414438988E-4,-0.03382846387477214,-0.010814848908379563,-0.008689223248497652,-0.0020957201587592732,0.005301859952443329,-0.0013723722482660576,-0.10914507139759917
0.0048079631354022954,-0.041082527742760784,-0.009260776669951181,-0.009431776409652726,-0.005170640839143234,1.3881580790607787E-4,6.611563647800967E-4,-0.11057990735904567
-0.005719079842118369,-0.0324880364049088,-0.00890846511023117,-0.0030830287319428434,-0.0057045199381702974,0.014667724176249664,0.008662136546945044,-0.1004307356745679
-0.0025029937876750847,-0.02517835699166538,-0.004102675282171948,-0.004298001190891863,-0.002571374848547481,-0.0013983231674506646,0.005506254947273045,-0.10414105172402327
-0.0015701755396050029,-0.040747200154263766,-0.012138664204621235,0.005947906524597277,-0.008781469530961093,0.009837088792710216,0.011440091756599071,-0.14425421030616592
0.003936230980165461,-0.034833994340100725,-0.005122877455174439,-0.0019620146048020923,-0.011313992353961506,-0.001982339485177042,0.004541393811038005,-0.11085717383165145
0.0059192229075665775,-0.03489022061167832,-0.013328140946391516,0.0018448437588710757,0.0047570982593057205,-0.012228829072078113,0.008276855507695354,-0.12219780537793169
-0.0032561147238820373,-0.04355946379604011,-0.009336352573096833,-0.0030796242758040506,0.007965385182190076,-0.006247807978248725,-0.0011276336327538878,-0.13219920468549679
6.196624849928268E-4,-0.03659135813586043,-0.007339401942221505,0.01127774736879943,-0.021361777608598465,-0.0056446239964263725,-0.0013566537665287187,-0.10911515635944255
0.006573855806248512,-0.02601945098098028,-0.007005781654171974,0.0029398071595432753,0.002367334997729042,0.005064946698882581,-7.657235369848786E-4,-0.12348644363590278
0.004239687108599681,-0.026361081094939502,-0.007215077747707529,-5.975310777740101E-4,-0.011745263575038562,-0.00859575576917273,0.001285942158589301,-0.1104370365376077
0.0018534269265974388,-0.0464261621717137,-0.008193220919842367,0.003612803482280057,-0.014123731130940492,-0.014758640465526754,-0.006591330739823686,-0.11823649658127014
0.006207372477544472,-0.014186675750650643,-0.004514410696554138,-8.250284018778813E-4,-0.011137025522363234,-0.003553752223462103,-0.01521655449055157,-0.08920764722983011
0.0049397252572080125,-0.019730010491415307,-0.004484590996574055,-0.004923882894347966,-0.010472938796632646,-0.0020871797799482967,-0.017456947772841003,-0.12416217883551893
0.008679752688722809,-0.01806463829279573,-0.005857192270584944,-0.015526426732579294,-0.010132417089729418,-0.00593809567853216,-0.00952776665256611,-0.10985832352068511
0.00471440642726828,-0.01794857986987527,-0.008357244402957188,-0.003155264977660567,-0.016013057724469953,-0.01721042341559921,-0.02958097324182709,-0.11856591492217639
0.002946450275607193,-0.012488758154030251,-0.010721307378009873,-0.007486881370882708,-0.008213440204405715,-0.0030913912309873887,-0.004065211187052891,-0.10445923980253069
0.007974272279977759,-0.01373009048788627,-0.00971309233267045,-0.017405671389934887,-0.003755935565662047,-0.009094641956775939,-0.011899066376647631,-0.10068242382668219
0.005940949747267109,-0.021120715804718082,-0.015432293231586871,-0.016211215185348182,-0.012979036143939348,-0.018372634457895706,-0.016932824972063158,-0.12592842214944014
0.007360578470947427,-0.007762681002672965,-0.007547202497804951,-0.017310644693265625,-0.01457924891983358,-0.006607640363507586,-0.019334360903225975,-0.10917285153764687
0.009644509274827455,-0.012726323793318848,-0.01578560902024492,-0.02638704917318434,-0.011859301278527697,-0.018283047236816972,-0.011175610825467005,-0.10861734908144612
0.00267224105121388,-0.028512092741207112,-0.02027804903025724,-0.03534813191852646,1.884741732696634E-5,-0.013156484613360735,-0.007216815836043656,-0.11018239472583435
0.005368217426286212,-0.025432543438463424,-0.014802424129216335,-0.028635060635743805,-0.01209887583031182,-0.03633357092943125,-0.02794418021677606,-0.10130271175461061
0.005043457878073151,-0.009415618852122658,-0.018268089792149337,-0.02846676171307033,-0.0027982799303690443,-0.019864283281650984,-0.03225489729847795,-0.06354488026517414
-0.0025545310447082944,-0.021874153721491714,-0.02165580588275137,-0.039416295242027125,-0.005777033873431569,-0.023487315233348793,-0.011498694235057734,-0.1235998494956395
0.002969875655492285,-0.02341160032370541,-0.03162212537954394,-0.040149898338169385,-0.006158435342686352,-0.018682246122403476,-0.020117681238047882,-0.11409956006954454
0.007036724502067378,-0.014265969879992246,-0.0217622604065827,-0.044756979994232206,-0.004781004879065119,-0.013209216460989263,-0.01451311700353101,-0.10285682955957003
0.0028951242454610805,-0.018363025178145056,-0.029370582401410907,-0.04423208130058593,-0.0062463166254859296,-0.02546786308407423,-0.01280842768386271,-0.08985789324038837
8.757311478153668E-4,-0.016305638765355252,-0.032224868441329,-0.043541914357252125,0.004634366258243038,-0.013944011252824707,-0.018373022326518766,-0.11172318976642819
0.003226559613619385,-0.019849406803697376,-0.02291455350497859,-0.04692960519724783,-0.011352893233347735,-0.0299639286227082,-0.02640897273686611,-0.0877605696384937
0.0034951967154928545,-0.013295638281855336,-0.02631750763518738,-0.04168493748198762,-0.0069121707777630185,-0.019411664853050584,-0.01017795917514004,-0.0833733594085857
0.008412894582531246,-0.024809457417239073,-0.0345631630019136,-0.043296570631149826,-6.826944487784552E-5,-0.020266729668195996,-0.01930743542125337,-0.09952261382640437
0.001984237033758597,-0.027868046448228524,-0.030089963078403593,-0.043820366102218414,-0.0030455159973600742,-0.013890743688114868,-0.02496684723591065,-0.08724207560243218
5.453635374389535E-4,-0.012396749472280413,-0.021659701136272257,-0.03261340490203574,-0.013421528023048123,-0.018082930665247517,-0.015444000791773257,-0.08917588305548975
0.005083090861551393,-0.005517120686872825,-0.02443327275266224,-0.04813688068725886,0.002972198443944973,-0.010797057471292715,-0.009869789757142157,-0.07719583820893482
-0.0016221506375738996,-0.021539832610138542,-0.021959196865290284,-0.04138521367404914,-0.009843795923627077,-0.008234118923605278,-0.0361036917008844,-0.08672836811686548
0.0017408656232765492,-0.012786247606591762,-0.02414396185273552,-0.03567310527298094,-0.011759025284689842,-0.016839537028808957,-0.01718646288875277,-0.09934938851265453
0.007212795772363087,-0.011216770887758657,-0.01670596114243599,-0.03369090886343685,-0.02435280860918949,-0.01341743464749421,-0.0073569754678519525,-0.09304905342770944
0.005531696770900874,-0.01216662889207074,-0.021851486901650466,-0.03691703965468283,-0.0041779707980833195,-0.010682291489974925,-0.0038215842672762955,-0.09869562032117447
-0.002597426257774563,-0.01855972352776259,-0.022675159349550146,-0.03162668566675333,-0.0012331845413942467,-0.012803735982228079,-0.025217134301465164,-0.09194348724122424
0.0030586366995956466,-0.030009326588237493,-0.025261322842383777,-0.02910181824799471,-0.009253719949686164,-0.010780558695292689,-0.009401875330704973,-0.11565883024601653
0.007939204505989804,-0.005460009600817909,-0.02206567309872091,-0.018398886453913944,-0.013204976274710468,-0.00996622711093023,-0.009027517485790162,-0.07656686720926413
0.011291851875132828,-0.01344421993231632,-0.021462456369799227,-0.03495703820659023,-0.0010836955450096181,8.144162842081201E-4,0.01205181656743449,-0.08729583606021445
0.003259205389017403,-0.01324076070817652,-0.013569346938236172,-0.02324991846775191,-0.0026926070137868376,0.007843347120006802,0.007279442010629153,-0.07712729548046583
8.027797737301637E-5,-0.03572602125813607,-0.016141236140878926,-0.02528699667182166,-0.00828130866163895,-0.002428976493586557,-0.004152047459712048,-0.08677801908901456
0.008339627008254318,-0.009379639477914892,-0.013434892910530695,-0.014651100636635146,-0.01743109044096275,-0.00375076253521787,0.010052327732007812,-0.06855880192176238
0.0020734955072131234,-0.018683497762085454,-0.013512339114312422,-0.022693102215790618,1.5508984414433372E-4,0.002352455435658491,0.01791449823273193,-0.08663801724015344
0.003641983775441951,-0.02328519617299668,-0.015888061411237317,-0.019915977649902265,-6.518567982132069E-4,0.00734787406076884,0.025966560918306403,-0.0776231753433365
0.0026849089164402767,-0.02721194220872242,-0.015037587545205858,-0.015249435455409579,-0.01263743023714509,0.0018179218430908095,0.00904947295389285,-0.08955247177635679
0.005176394787641193,-0.02183876586521253,-0.01014225066699575,-0.0022091665349918406,-0.0031753621868255756,0.014601927109874862,0.016469686721786087,-0.07614679760496035
-7.271063807041778E-4,-0.02342762104802639,-0.015520569221778089,-0.01572179731198395,0.0026912223992516826,0.026913681333002495,0.031217399179444494,-0.07872920890311935
0.009151755701389677,-0.0290185536140626,-0.011276374563848272,-0.006808685193030232,-0.004389546755826818,0.021656932627151473,0.03237082670191579,-0.08397171593634971
0.001948180490126287,-0.03267093646264607,-0.011248124784936878,-0.004065872583676841,0.00945094623230898,0.01724935207044909,0.02621585453626464,-0.10142798841869484
-8.928606081392135E-5,-0.01479879012813173,-0.008609308630592576,-0.008362850356845855,-0.0022708763014274505,0.02947466922597392,0.05698871856918881,-0.05914547120182236
4.7375512893968176E-4,-0.02996796060114816,-0.013777770945950445,-0.006997175702694611,0.003871967509225864,0.030296527705501015,0.05254040930975115,-0.08460747207423201
0.0012502455862174796,-0.029761176694628654,-0.01584506466238498,-5.3050848699749905E-5,0.007531382785436707,0.030982159115294304,0.05541258627622026,-0.06418933529972279
0.00339281410300374,-0.02625370562365755,-0.004735755014275029,0.002315883534870375,0.007469645738022283,0.023583814598506784,0.047703972419809726,-0.08283629352247536
3.907509041336939E-4,-0.03134629235869874,-0.008903899453245379,0.004514268362425445,-3.4058311673202616E-4,0.03472203202990614,0.05596979891387801,-0.06089723368490142
0.002390387269488808,-0.02930670760486654,-0.007775915285303243,0.0056431456877768646,0.011477464993923108,0.03439282418570875,0.05051093109455374,-0.07641550235411357
-0.0012633918827934599,-0.041700110200642564,-0.010102496971926412,0.0029363061261448394,-7.471553606667296E-4,0.035455907130408075,0.05142769698031961,-0.10024762778077685
0.0015260462485998212,-0.026519334720245813,-0.0034667875960088606,0.012769563716714857,-0.002540852108696627,0.033658037499089376,0.05390938513954347,-0.06774241186563099
-0.0017092303278203335,-0.024265078427328734,-0.001867512245389259,0.007385686840945247,0.013472455015280913,0.0370995046286919,0.05623806654412155,-0.08532982352988316
-0.001299840555612699,-0.030731212706601202,-0.0031710066142417114,0.0042742601836384285,0.015533145799264276,0.037588120411803705,0.05035985708988706,-0.09262279085110785
-2.018339368168793E-4,-0.033542169514485895,-7.44864891360228E-4,0.0061954709674501614,0.009462139631143741,0.031792270219878634,0.045300734759851524,-0.10470581359143026
3.9779294806022543E-4,-0.028572913994209807,0.003019895775039144,0.017529342254421498,0.01039120512143177,0.03305117688620287,0.03635364107015333,-0.06477493221761665
0.0055789339491930465,-0.03741502013956711,0.0031452552067838518,0.00795825970967846,0.009691086087476188,0.03164410161834988,0.04034493184233245,-0.07347682253592551
-0.005154810499443226,-0.041316774286836375,-0.0042962043228947045,0.003527419308586336,0.008834481575951268,0.01979120002591925,0.047940984138264996,-0.11254446903525364
0.0025606519479952693,-0.03761669487700815,0.005521963787274971,0.017793175762843037,0.0046638809396027416,0.03276682075658817,0.03733924589784673,-0.10180349077246381
0.002960715025889638,-0.03193376264447074,0.007912331240778026,0.021812016525857132,0.004960472494165981,0.02704365333095732,0.041571524653264,-0.10021639093213265
-2.728179656865238E-4,-0.03373524581690674,0.0031391392996224935,0.015957928031296274,-0.0024096262428546875,0.03781903759527618,0.048959768105858996,-0.10704768780636362
-0.0023428016126229153,-0.02373920171949084,0.005340000196761195,0.021993886531429325,-6.864400899898879E-4,0.027830142012605023,0.054529789846091636,-0.09953288239399923
0.004673933149535998,-0.029573973707385473,0.009122191592151213,0.03396509559481433,-0.006292887056640445,0.029679377530067882,0.059301166884626985,-0.06623762688166623
0.005709881668113556,-0.03311520920128182,0.01246439875667686,0.0370926405764507,0.001243466533529318,0.036305373331488,0.04898955350984554,-0.10299485534155087
0.0030483821422169124,-0.04349674290130998,0.007174349421483957,0.027486457304274035,-0.0016221277430031734,0.02591857236352656,0.04712717146473962,-0.12460022878417282
0.009223220178108121,-0.030956888019444163,0.012357911972291503,0.03524780472788105,-0.006824978307792337,0.040895849741069634,0.04918745908550674,-0.08385212575329336
0.005523554791304195,-0.029070429946737596,0.01188643262748255,0.0333263976350558,-0.0020285728212555156,0.035793761589509414,0.04616959646225783,-0.11297940364142198
0.009191599667465137,-0.03488968804840251,0.011084681718688729,0.030811623756034776,-0.008581069416569819,0.033130227234351405,0.06554849903108222,-0.09789197698064783
0.01034525996433209,-0.03739058171558438,0.010722811348794286,0.030439803981613257,0.003538904604742176,0.035394079420575535,0.05835409177634435,-0.09276469065779529
0.008864300815057582,-0.0300661708754625,0.01970780992518843,0.031220239463286004,-4.5733575615956363E-4,0.038137386847886715,0.0549506250599939,-0.07048874793159192
0.0060922041523770116,-0.03222031673837473,0.013892303088077632,0.03430762411601344,0.01673558355604887,0.051290563422002416,0.055342024417170115,-0.08088993584934225
-0.0024685170993062684,-0.03713529306023836,0.008397575609240177,0.0381846821942676,0.0171330331423626,0.04073642709963769,0.06181980157676723,-0.09396229747672961
0.006264333636105466,-0.023116022373713418,0.011341307937010402,0.03371567616512864,0.0021067320454943622,0.04151706181535706,0.0549821958973797,-0.07064317072410525
0.003606240812728008,-0.0329947217686955,0.007360168065066007,0.02848746079792545,0.008595575810427839,0.03935877196746891,0.044186617487491725,-0.10037200694872463
0.006842975037311938,-0.04000924171556275,0.010039992049186161,0.03226501450097271,-3.2237676755710113E-4,0.0356435098459214,0.06702419371862021,-0.07704324335148315
0.0027861631807337742,-0.03782253108425254,0.011425074231722674,0.03173882919702334,0.00768599960143016,0.04727796644090863,0.05581728234855985,-0.08491748355301078
0.0036045576486950157,-0.027686289804464415,0.00947441190782594,0.0339372390122909,0.009754714171229877,0.05745177358983331,0.05424589166731684,-0.08574313345403031
0.004180444041317442,-0.03200710647890633,0.004820568375433021,0.0310188005332658,0.012330227789883892,0.041410676829986205,0.05329443975896211,-0.07121842629168339
2.5592640460084596E-5,-0.04431359088920609,0.006200333283610482,0.02496716075398782,-8.502498509801055E-4,0.03866563002530079,0.06343793687903435,-0.09985252966260968
0.007965639660363679,-0.03364113741088558,0.00833095510299206,0.03287765992648195,0.016409876599843835,0.044475515726321524,0.06719660320663427,-0.08625748944971282
0.003640736248040144,-0.029899719853087738,0.0041390502002840186,0.030580242709001153,0.006760650192166563,0.03761576354293946,0.07509107786551142,-0.09135215353018118
-0.0019255207592572788,-0.042729639873039585,0.007760414459136974,0.027628709189562915,0.007648529991274734,0.039963160451916294,0.06892761762287355,-0.0868640663895319
0.005239723140199435,-0.024428654260028652,0.014373799213942303,0.03521911290222223,0.0032951835074213646,0.04647481673253097,0.05208510530186435,-0.07734155169498334
0.0039278365255757085,-0.041059145828494216,0.005264727147008404,0.02750350300185468,0.010849943159341862,0.04316223041203187,0.06598557026627704,-0.07923106010926557
-0.0039689365961514235,-0.044738354356700025,0.003568684025575309,0.027593049896661885,0.015493278473703853,0.0388615603714593,0.056061767202508876,-0.09035696605345693
0.005063795702300737,-0.04585613881076288,-0.002024859538202817,0.026091367358190606,-0.004934261005095544,0.028666724135827194,0.05419821716075003,-0.08485532033413991
0.0017313883957298596,-0.03852246849135607,0.002717010225917913,0.032370290532166925,-0.0029223938776767114,0.0320009363182408,0.041278216960712974,-0.0945205071647822
0.002867715500273937,-0.049721815045470706,0.003803818203261575,0.023076699968421523,-1.0905646224578785E-4,0.04168859174635804,0.04955215436211497,-0.11661037752967715
3.04028378639382E-4,-0.04397864482901206,0.004384080120185932,0.02360169152689083,0.0010262451303196328,0.04141527266288449,0.042752498423780656,-0.09872480672247701
0.002826869894109599,-0.03816813220262651,0.0017773032705076528,0.029139997462254045,-0.0015899994398403733,0.022709655819667416,0.05097364135086933,-0.08529257003194142
0.0027218020954043382,-0.03817389936676048,0.003171699200094804,0.020780254365403414,0.011068027138327082,0.026225224611744386,0.03609621556570936,-0.0915529195100072
0.01107727696018344,-0.0384079350357457,0.0010534122405442016,0.02184007205054546,0.005292197734629558,0.02656925469740619,0.04485813126955774,-0.12476117728968168
0.00603057133265664,-0.040736037343580986,0.003166190422906471,0.023053912769613303,-0.013871316985862756,0.027531470425657033,0.019942204707870625,-0.1030124745435341
0.00694722416574624,-0.044515970426832946,-7.163093691139912E-4,0.02472638061202971,0.004764928265258786,0.02398706651029032,0.029684943570629726,-0.09493523698616746
0.0012165733489852646,-0.04271410176709357,-6.65340927896487E-4,0.02057113450636638,5.55437847420646E-4,0.02753224980066423,0.035213983000125855,-0.12829318894594616
0.005104105888620178,-0.04875814911578232,0.006915776777503879,0.025496759402559258,0.0026954220968309953,0.01118124546462688,0.02113896146254564,-0.13136171648736078
0.0024360202146731865,-0.038526812442017735,0.006385681305669304,0.02727137479240997,-0.010392161051810102,0.019134402258821855,0.010109236284175656,-0.09284953933621479
0.0029195024844137687,-0.040538553763191966,0.003757058603385088,0.022623751734346036,-0.0032982500914157877,0.01825841510008344,0.018949936377003884,-0.09095777325116636
0.010865890469557896,-0.05169444712346709,0.0018342637772438461,0.022981404561055335,-0.007639776540441582,0.013828835331710834,0.01981360746574956,-0.10435573374125204
0.007002056565288725,-0.033512363768758234,2.3805521646442298E-4,0.03087932859434598,-0.004532263121280916,0.008051590923364244,0.023961667640509676,-0.08876335949022808
0.008656981262246451,-0.029157390946997794,-5.982465470021274E-5,0.025229145246167213,-0.0035107078881940904,0.008923039874718814,0.025674016592906013,-0.08854163146640635
0.007758819309445591,-0.04228891884309148,4.594443227317895E-4,0.020864367777219856,0.007453844146804316,0.008143144828890019,0.023914560230685965,-0.09322519418113441
0.006061511726693305,-0.03650602983912052,0.0044310590892432025,0.020752848137047787,-0.016841212803453597,0.005116336656971317,0.016396585699733894,-0.10009184974835125
0.006114560813045631,-0.02557649826762615,0.003763003979771853,0.014277000045995514,-0.004545803484150834,0.014220501580037048,0.00889193767527357,-0.0934924012096933
0.003543517277574519,-0.022425813046719104,7.858301126445289E-4,0.01261122030868421,-0.010923833057383835,0.0014801008342635218,0.026697325868561855,-0.10177005169380053
0.009371074948337164,-0.030329696742710768,-9.673138563362877E-4,0.01830448329864864,-0.0035059203456783285,0.009835683841366322,0.02640663056841287,-0.11343099379797156
0.0011852391782384648,-0.027784487766542416,0.005986911021411421,0.024998046354469963,-0.0037415766552487454,0.01894004526585136,0.024503654145917698,-0.07410909526025908
-4.5023708659018807E-4,-0.02795504358454111,8.749858791500105E-4,0.02388570536601306,0.009899914513090607,0.007462992272192844,0.021377272770944023,-0.1013034484833626
-7.899852921650804E-4,-0.026905181914683933,-8.395965532545957E-4,0.013320818875369728,0.007704925765622064,0.014472102176051244,0.024985912175256305,-0.11029768349731923
0.008442504865834848,-0.038105835562715115,0.003825752867369034,0.02470239856192324,-7.690742181281424E-4,0.008047389284896855,0.01424986943697687,-0.09897680783341298
0.003361161943152373,-0.027917597593737485,0.003474839930875464,0.013384613412091264,0.018532585224544415,0.01871488485615346,0.030793572462656744,-0.07727700767409128
0.00635443184080301,-0.03697728263634142,-0.0019478770420831568,0.01931006898680996,-1.2579375101543433E-5,0.016756982434388595,0.01432417845034306,-0.08755050862440614
-0.0015482130372432626,-0.03584384713207856,-6.959763000427941E-5,0.024781711760290957,0.010057700902218702,0.01664608491494203,0.02134632926339453,-0.10507960275037488
-0.00426176150649046,-0.028065353866571364,-0.005307438721990223,0.01107808222733436,-0.005204556750117907,0.0172496807476023,0.02992603364745476,-0.08730505441615245
0.0048313700421021965,-0.035813727352147565,-0.006675777749458924,0.018853401887106484,-9.519584218420298E-4,0.013454433377050646,0.02663857584713278,-0.09633395416193705
0.0019390089823008866,-0.04972224266575529,-0.0049532257792177835,0.02065996938628582,0.01315467863542289,0.011798064727096899,0.025653771301181516,-0.09063278469405106
-0.0046545869216706925,-0.02835911639105393,-0.00360248260348373,0.008845087763290323,-0.005406755640535053,0.00925981161227902,0.019213292990216627,-0.07420029309921139
-0.003608824244981722,-0.027035412709581864,-9.595579050731123E-4,0.012760478633042825,0.003220650241961391,0.021677159418387906,0.026422512807377896,-0.11842244254166714
0.0048766012905849835,-0.04217958478176272,-0.007696930539326605,0.013448733051847066,-0.0022235364482676447,0.013873742960579565,0.018098341788036102,-0.08836947310734179
-0.004681762218307506,-0.04429573930333851,-0.005569818620043692,0.009583437263458953,-2.8934921888607663E-4,0.012314224921216107,0.012112813038333392,-0.11212704943313577
0.0020250946985512996,-0.04279813522263337,-0.007122407521260426,0.010774325829317064,0.005793801357325185,0.02677583054388575,0.03286670058380145,-0.07793243263615468
0.0035221121204461023,-0.04078468194745248,-0.006973677897642718,0.003345079232836983,-0.0021870744941744104,0.016537247287459055,0.016710953355069558,-0.09945487034122194
-0.002932842854039902,-0.04894008847037212,-0.009830545041849225,0.00936108404806984,8.836079295506045E-5,0.013746120864361496,0.028889401451622727,-0.11345120544530136
-0.006247578167363413,-0.0387091982634092,-0.004707936784707927,0.005602616791662062,0.002664641417137996,0.006633413612540737,0.04032125563151114,-0.0885261463326164
0.0061954938526734065,-0.03736217775078496,-0.0142207048971244,0.01217309226842005,0.002381814533684491,0.02279447194181333,0.010297103881127334,-0.09049071414315811
2.0425878457506715E-4,-0.05173014080622284,-0.009298366209609011,0.00949902812037629,0.009548386884579999,0.021159530250893895,0.019252670857782598,-0.11864465459252937
-0.0026135993623649027,-0.042011727649145875,-0.010099299954769535,0.004413037511690121,-0.010091408433020938,0.010383511408917906,0.018258778917629438,-0.09248412916325849
3.9732510689349576E-4,-0.03940386502164853,-0.007465502900917442,0.006036897547489171,0.007553731635744315,0.021829657436300637,0.020565030039103697,-0.10151710827375783
6.088030884948118E-4,-0.052625790601239245,-0.012835723276162931,0.009569863132070242,8.753856648402762E-4,0.015071810904098327,0.033550999765445406,-0.11215471491149769
0.00160298765452305,-0.05129026636300723,-0.015413945408336703,0.003420061882041435,0.006594555795529394,0.020193315589400122,0.027506986378267952,-0.13250393684098583
-1.9881985670450533E-4,-0.03077037012801012,-0.011524455345915108,0.003580114779839929,-0.004432984408626982,0.008783632149030775,0.0375955130717526,-0.0777214533822875
0.004026524684529482,-0.045573685445275014,-0.01469234949599567,0.0035511387154574282,0.0019456239933896009,0.008325042149286765,0.024156726620963295,-0.11160719410436248
-0.0025659009961977895,-0.05561230459957392,-0.015589530338917195,-0.002313821568878458,0.00785736650828449,0.013040020935077482,0.010618900972761414,-0.10361502962664662
-7.960637959636722E-4,-0.04218592772996856,-0.015813506634597477,0.005780264023284194,-0.007360423813713013,0.026015236446675128,0.024504602843088568,-0.11788369569417717
-0.008391691353672558,-0.045322555217813525,-0.01547640798534773,0.005214241033850423,0.010526794168916965,0.023522275688153745,0.012704464449246824,-0.07200429498007756
7.959708862549119E-4,-0.060713936614001485,-0.017131920305160142,-0.0062889214502856875,0.0032553445358383063,0.013112240320435951,0.0172856549873845,-0.09469244343708072
1.2922828971921442E-4,-0.042435025972655874,-0.015565133794222235,-3.193551995075152E-4,-0.004720306045999015,0.01585618637586067,0.021710446450803157,-0.09592714372206997
-0.0015588806311150213,-0.05571250713717955,-0.009738267235766655,6.455706285618942E-4,0.004957240552614666,0.018155831679106272,0.023923897348403778,-0.09657416161846392
-0.006944779178031172,-0.04771658931242376,-0.020048527656460334,-0.0019373080126642583,-0.005538572943555376,0.016034073092706224,0.03769544037515474,-0.12233573859694402
-0.0028985934090012258,-0.062270023600893426,-0.018222393600825965,-0.00574289128791794,-0.0038670052703119588,0.022478186463885552,0.02533396366308595,-0.11729802208573048
-0.0016238519708890353,-0.04412853331831492,-0.014164629734538206,-0.002801093393321212,-0.012911657711694701,0.017246071261172606,0.03690000882110531,-0.07687732139004631
-0.003275851148682222,-0.04900609887806687,-0.014898630235269874,-0.002297792383086901,-2.1494536708429828E-4,0.021741243524403105,0.035580874569482286,-0.11592982473651729
-0.007963658423700426,-0.06695964264561344,-0.017539279241549653,0.0029879845271034125,0.0024334310817922854,0.0218951728361012,0.021371498103671775,-0.09509530122003965
0.006095509625992443,-0.043545770436300514,-0.014751100160680349,0.001490461002115723,-0.007602219062841994,0.021996713554537417,0.024985608057675995,-0.07603859653833436
3.592300369916581E-4,-0.048988087988005954,-0.015439121095010742,0.0015285321041401709,0.00934039415130371,0.025043071024414092,0.03172878489142861,-0.08201485760766304
0.003911644850937048,-0.0591669517024202,-0.022389246952726878,-0.002395519987359802,0.011169997256087007,0.027384237688716583,0.020893984662160296,-0.08814527436627194
0.007803165431028273,-0.04410922362109118,-0.012060867247768297,0.004885219127511533,0.0028488312997528593,0.017174460693297637,0.029778158239217246,-0.10318397853831264
-0.003005857108092936,-0.03487605225707365,-0.01601126317450495,-0.013390321457782496,0.015274574594169102,0.02462575624417443,0.026025720099747764,-0.09680707401302854
0.0055715669064853824,-0.05382628705503398,-0.020756582593484587,-0.005536883285762682,0.001077837141674585,0.017277779187546798,0.023951304146574495,-0.08110840855782506
9.643317533062496E-4,-0.05417919033521548,-0.01571940429356578,-0.005063164404490385,-2.3935052349458637E-4,0.02625827879292597,0.03107355165729509,-0.07676397680278897
0.004315281566536449,-0.04091205146357086,-0.01604913992524763,-0.007277529503242576,0.006134110340658657,0.025254524318980228,0.017104308713012748,-0.07986884088905946
0.0037436971082677366,-0.04187872654496207,-0.01606384997901854,-0.006185597359321403,0.01039166910397191,0.02567760795380421,0.04275782276834605,-0.06803464023203913
0.00160762993469467,-0.06212678889652595,-0.021298235588193427,-1.0224836226386243E-6,-0.0030936918775169367,0.014172221451754983,0.01749541549708685,-0.08593088067756814
0.0029905428238716195,-0.04750980481766454,-0.022284236850554216,-0.013089409138866255,-0.0066753683586457165,0.003925644707851458,0.022061160728902005,-0.09270042182428634
0.0032714121639038215,-0.048541639711371674,-0.024478962195914902,-0.017988439581877746,-0.0018476774225518022,0.015990458366076595,0.027400708950891937,-0.09036526542238636
-0.002209180334774187,-0.055934819155445396,-0.027593155084836313,-0.01655324251062512,0.003971571943007344,0.01693746786362021,0.012875229640172866,-0.08336727370646808
0.003287459943047638,-0.061838688467277594,-0.024329704151059554,-0.01551547398407044,-0.00759276164234087,0.005113717874079083,0.014769749833732205,-0.10025907433051817
0.0044712131504263805,-0.04812798825090419,-0.02529143755229909,-0.01716715759184407,-0.010376119102568278,0.022547724367528634,0.016074744776901788,-0.08033257040767369
0.002429210893996003,-0.04494761486027513,-0.021371951249119506,-0.02719438742255695,0.006983119139810355,0.019583119077085896,0.023970099953616902,-0.08660856535160098
-0.0019303883373089658,-0.0658989311261513,-0.020901554435529796,-0.02125261404519447,0.0023539005483444037,0.014997086213618291,0.008602958288865417,-0.09010894810288306
2.0896024191556186E-4,-0.05164901283393193,-0.024609057233861698,-0.021022763605664376,-0.01229348643825808,0.0069607196516240435,0.010504593597950158,-0.07153232566829226
-8.68782207841598E-4,-0.045618356370121,-0.027736271989059477,-0.025788954352137586,-0.014972678519181708,0.006761351087597664,0.008405904523711434,-0.07127874990991821
0.0018926333652037697,-0.05382747803517234,-0.027135638577846982,-0.020240088318536024,0.0016792480268840735,0.016872607462058754,0.015426919890645789,-0.09044483362343003
-9.044664683001907E-4,-0.04597403934919625,-0.02753022363938589,-0.02727914096758659,-0.011575625624886418,0.003303942438315882,0.01785258644003996,-0.09138563565155325
0.0031212971605181325,-0.04380690727971543,-0.023390277739800843,-0.02688279862033032,-0.016262269933811777,0.005590851769659689,0.013797677527713327,-0.07025206420585121
8.687548281723133E-4,-0.04488235361485204,-0.026562369706364202,-0.026392687146730966,-0.002095792286952936,0.006080568040924108,0.0247732272480776,-0.0976113410770614
0.0020034880069061014,-0.04484182344965887,-0.027014665237070638,-0.026608297505533927,-0.005648261374192462,0.004498773650239919,0.0069104179858322755,-0.1042106298692911
0.0069738847509957635,-0.04972974635557989,-0.02411971393622442,-0.022051248502081046,-0.01635493824114182,0.006870065543454279,0.0020711287864102843,-0.058481383948976944
-0.004250224653085967,-0.04843929840923029,-0.026744840495591157,-0.031185352755130926,-0.007037768703928036,0.016880815235850322,0.008823129785575036,-0.07069652366776265
0.005555025244169767,-0.05072876075128511,-0.02849349155356777,-0.03403601166813564,0.012326297747118175,0.01290076938551628,0.011912124351456522,-0.10693241336344966
0.003073152634747501,-0.05098879532643467,-0.02711721175270971,-0.02752102472816993,-0.023922500969239348,0.009901945314204411,0.013093811558976438,-0.10665402319662708
0.0044527876368753395,-0.050115291166261865,-0.026174614123503387,-0.035690950534358674,-0.008997618450775086,0.013381692435223885,0.02923211550861809,-0.075355176425179
0.004789985644937142,-0.0636584749084462,-0.027133215914103063,-0.023482576511973295,-0.006388127515813768,0.025517140467917584,0.022397777482342146,-0.07949686415844315
-1.699257422296657E-4,-0.06337056515935005,-0.0263601062673176,-0.02045414093734897,-0.0047408329598743505,0.013294242203038823,0.019872578790910356,-0.10339812460488992
0.005615742221470453,-0.05240348361922424,-0.02288656588704057,-0.025841922467563574,-0.014763069922556745,0.013552330514048347,0.019926508690073112,-0.08463270090070692
0.0013862137134552919,-0.05341253099757566,-0.02887406445618535,-0.03293958827915607,0.0021137435186785866,0.02414088114961526,0.019871364604456244,-0.08346664949584891
-0.004649003531979669,-0.05892648637960317,-0.028611849188358615,-0.029218366447258625,0.004226424313097381,0.0151523393960214,0.01875714002684299,-0.06807305280422198
0.0037512397007159275,-0.05944072771372934,-0.030741393906007254,-0.03220254109976866,-0.015576001828482523,0.020017553691075572,0.01911851018832744,-0.10576789003396396
-6.567287136620826E-4,-0.06260793287626357,-0.026242634692928854,-0.027908636235377312,0.007219972616494017,0.02635553280934529,0.028591792986900535,-0.08662196146544066
0.0031078688819549736,-0.05982281942610814,-0.02730887258685382,-0.040259270899514074,-0.004156261351313464,0.023626183329617315,0.040251584080375026,-0.08076650004422291
0.0038020520073257192,-0.06563428320256065,-0.030601312660266788,-0.03041011102099611,-0.007734004470983913,0.02875681094138652,0.031572813688917976,-0.08967697457781042
0.0027210223902439583,-0.05412293978792122,-0.027762551728015093,-0.0356036948345356,-0.0027349102605131216,0.02094663945648833,0.037080642153568336,-0.06473760611553764
-0.005817256169290182,-0.06289274744078657,-0.032914282793267066,-0.027205485677357373,0.001729118901834192,0.033887388759531255,0.030997659656139324,-0.08550645927314365
0.0016013617625682025,-0.08040490363455073,-0.029042922954704224,-0.03520746929452287,0.004092593346669942,0.03590444886775208,0.03652908620627232,-0.09388719162497576
-0.0051432798408972075,-0.0629601486259308,-0.024136585175447253,-0.03243950480597136,-0.014299294766528506,0.04468185586963879,0.03965995228221443,-0.09205745288355435
-0.002376419945808339,-0.06665053522948064,-0.029451135495706136,-0.03488295760896,0.0014039831810553685,0.035658452074434695,0.045076315883734785,-0.06983374637128263
-0.0029166121823941734,-0.06556097036386085,-0.02942722616800593,-0.03656749770731065,0.008849776982394133,0.03385655557901617,0.06735035215571986,-0.08908923859126998
8.12463491783559E-4,-0.08163089906388873,-0.02827153813112417,-0.03136606025779464,-8.075762003088514E-4,0.03622915571931866,0.03754351494532522,-0.11486701649273402
0.005509693584473961,-0.06170630585006971,-0.024618999521347974,-0.03279198704507195,-0.013237387746239764,0.026633689458680266,0.04851531235350497,-0.06879889653936593
-0.004433558084959958,-0.06220647259910621,-0.025813794539265668,-0.02543705920997503,0.002795708764202999,0.03931288811231685,0.05344472591555578,-0.10265564039248994
-0.0014828257411822596,-0.0818771012716081,-0.02819598510126234,-0.027621220606692,0.001263539045862144,0.039719842275172876,0.048812227760576705,-0.08703482531499333
0.0022327265488753865,-0.059934240273446814,-0.03300688863614779,-0.020893527950524876,-0.01476626940379791,0.032641644484769305,0.05012995299517513,-0.0987807249193066
0.004506507222132685,-0.07054325500383841,-0.032369873114909714,-0.02844445146752505,0.003288779790672898,0.04541556018024143,0.059745502595926064,-0.09832698954021594
-0.003223121931098192,-0.06840550268769295,-0.030679057926321814,-0.027177555767234067,-0.007330397422162148,0.04600745735592101,0.04938693445339914,-0.08539164697413615
-0.0020507508071031157,-0.0730666901359777,-0.027513964727978835,-0.03139659977267162,0.0033801439036873137,0.03654242403054322,0.04512626175382306,-0.09971468423177221
-0.0025840484365457182,-0.07439552975163065,-0.027510936891407902,-0.02191881062674208,-0.009635601703894828,0.03689567998864346,0.04891818351029253,-0.09508714261019777
-0.0033703920537362375,-0.07420211499315882,-0.030646400174769113,-0.02342082292165173,0.004191747973274239,0.03297565413058777,0.04358084666572921,-0.08108341576938335
-0.003147526386750546,-0.0751963098174544,-0.022924724809234433,-0.023617784488378327,3.2790506573118755E-4,0.033927599755649206,0.035467035481473855,-0.11726105874879007
0.005066294803667284,-0.07443892150481765,-0.027800451232918754,-0.026496752059828182,-0.0024160661910276556,0.021559442772178392,0.044783235238067674,-0.10879105717370055
0.0011163437648629376,-0.06613850886069222,-0.024972012870880776,-0.02060940673507203,-0.014016968854582621,0.029932101885055684,0.0451688169102699,-0.11508666850363689
-0.003928426516305389,-0.07823085123729384,-0.02732071651048588,-0.030163252273158723,-0.004587780614643706,0.024664531099662185,0.042510037493202944,-0.11140078340893933
-0.0020238077082430127,-0.07344767190635411,-0.02827599783908075,-0.02209807402468182,-0.023808787705442824,0.018995046691664498,0.029037778284807456,-0.11970774859938806
-0.001826027501288242,-0.06276035387715874,-0.027967890644285766,-0.024836081083907283,-0.00865539444590115,0.028101532322531896,0.03304548163120511,-0.08305912371208722
0.004544596088127868,-0.06830680794722838,-0.030686483213603056,-0.023631259482120123,-0.006437015663039905,0.020042998205996778,0.03299490366196653,-0.07019429168271789
-0.011182927025183403,-0.07732656894279326,-0.0316651024143043,-0.027226495968510636,-0.013535816204464512,0.010844581438943639,0.027297931874499776,-0.12045203242002471
-0.0019758072081219272,-0.06978004067462314,-0.02651869224640893,-0.022939631790179178,-0.01561466212023822,0.010110216954719947,0.016165290457046982,-0.10326393352804097
-2.821706939628757E-5,-0.06627954528616231,-0.03074931733030563,-0.024873155069187056,-0.011448302621072529,0.00859710333554611,0.011566152664600012,-0.12652477650148994
-0.0026800842864434173,-0.07486857432492852,-0.03394468878923646,-0.03534917477331376,-0.009842679505678518,0.011112286815642572,0.01163906453677277,-0.12164649584333755
-0.006622463551752207,-0.0719026655630665,-0.029143546546692663,-0.022575381445987173,-0.017165749613028466,0.010005117470708627,0.004286672624944871,-0.12477757713912285
-0.002743228907013639,-0.07717133480982612,-0.03347664494987835,-0.026766542007084983,-0.013968000735294164,-2.9180639591248615E-4,-0.003049176519697386,-0.09760878737605116
-2.1785339767693563E-4,-0.07025255066524934,-0.035877386195294195,-0.028065890738359474,-0.01261901529457378,0.00778286037938161,-7.73866179097379E-4,-0.11078068922121359
-0.0032531966735966206,-0.08537473567503777,-0.03801192563368708,-0.029060426792338397,-0.01952821422083131,-0.0015974547320256561,-0.0017426442581277997,-0.11807849386742797
6.00856193386702E-4,-0.0700229196227271,-0.02426013696659744,-0.025937875895248538,-0.01074115497784353,-0.006387502769107052,-5.179993572412182E-4,-0.1182559412302791
-0.00815801080807924,-0.07610300514823948,-0.0342553705944386,-0.030131358615296967,-0.01080995240853109,-0.0067169736473814915,0.0010668171540308114,-0.10916030411650825
-0.003981937921684542,-0.08916959659450613,-0.0382748463987877,-0.03227132468055674,-0.025887302318004336,-0.01274072932803197,-0.0033181491089287227,-0.11994823941031882
-0.00595818948232573,-0.07548303569184511,-0.02779733923377972,-0.028734516530102547,-0.02199791111434926,-0.007405765430791784,-0.013866809351442928,-0.12457220501565996
-0.007927298940353879,-0.06753919654075533,-0.035332917503898026,-0.0321718545087728,-0.026595568217730695,-0.007438806819334855,-0.008584066068162113,-0.10745054599557771
-0.008842855148637658,-0.08119903952626371,-0.03922730591094745,-0.03675321738424823,-0.028857846512274594,0.0017555547225167514,-0.012830074429749379,-0.1188500544241132
1.6245256988323148E-4,-0.07860408535341595,-0.03257859649930031,-0.03836223738363881,-0.02505761453462479,-0.019355473246602188,-0.021565615845187753,-0.1398114108915117
-0.004434803530577638,-0.0702111791534407,-0.038109804278974195,-0.02800579017192702,-0.023787276786320127,-0.015641132830087716,-0.018507320824459432,-0.13112692577501786
-0.0020285043595736616,-0.06115563604953731,-0.04083327802026649,-0.03540892990087846,-0.020408905441976086,-0.013231636211991957,-0.020949590898209622,-0.12872910892199504
-0.005546875574127458,-0.07468233043989612,-0.04405841186986331,-0.030560172844854915,-0.029060554651433982,-0.027113765238748092,-0.0216984453580739,-0.15007122722991653
0.0044161342490255965,-0.06971618737372677,-0.03573886231852599,-0.029765854553198627,-0.025775536824134634,-0.024255844857103692,-0.021829133405808693,-0.11230152209384578
-0.0016647596134282785,-0.06661283638052035,-0.041486804794767594,-0.037352357941346906,-0.020268931580339888,-0.0239495196235823,-0.03710558780542314,-0.12765362471495434
0.0023647794061422357,-0.07017681388367328,-0.043232753917024594,-0.04196088408275553,-0.03822083064602142,-0.016979504328974535,-0.029633352343035976,-0.127127255117801
0.0015291140638629202,-0.06626862185632236,-0.03402672939904666,-0.03282586318930922,-0.029216994037587724,-0.02760719252293771,-0.02355665157363821,-0.11699203095411832
-0.001203792856110527,-0.06070546535509201,-0.032608181737034475,-0.02942607733527566,-0.025062200815307915,-0.015036521793152001,-0.02952284519759665,-0.1135916165481144
-0.0014441137485326837,-0.06273072641907368,-0.04406177855494405,-0.045082948772953,-0.01972789239148478,-0.01805169217690564,-0.025817870550342167,-0.11262333424805417
0.003049707511148304,-0.07047989786013432,-0.040047194820602976,-0.03500162942556942,-0.012794787396300559,-0.02807897254070154,-0.027430783762355665,-0.10563174988555336
0.006349241480581395,-0.06492651286975963,-0.03343675165935081,-0.031001868359034183,-0.03804389887003136,-0.02897077591711692,-0.044188308091103565,-0.11226808670592424
0.005473011385057303,-0.05406471438502844,-0.03473763453614956,-0.028327146185686953,-0.03083785321799527,-0.016420534837570215,-0.039386002491234376,-0.10680908509039735
0.004104755079772569,-0.06780158620563986,-0.039815268316638196,-0.03861356265877031,-0.024495290648871394,-0.025820902996352063,-0.03306527797878416,-0.1096335618202544
0.0013127096335614288,-0.07163146230097638,-0.03511908814082579,-0.03578733402965826,-0.022226938415441443,-0.030494976205109017,-0.022197033950933198,-0.11897438262482345
-0.004246219945626247,-0.05192492626025604,-0.03296990490361149,-0.03217309429568302,-0.03274277979339586,-0.011222609546954676,-0.027175626137515074,-0.10370438713628378
0.005077343833828555,-0.052024009780237065,-0.03616159233253654,-0.03252029559015629,-0.025372631045229254,-0.019672733448771535,-0.02833747763087011,-0.13279017783391076
0.003647386334255831,-0.06297472566015355,-0.03652006807177194,-0.040500615330677545,-0.030568997917329435,-0.022188090866680322,-0.029419240383200092,-0.14054884422795866
9.604626926683661E-4,-0.07008849640357205,-0.030979531210275548,-0.02362355053577057,-0.03453276972857735,-0.016932271831877135,-0.034364498435978094,-0.1540267139534819
4.087113175139254E-4,-0.059963488712206844,-0.030124225722714972,-0.02653406270105421,-0.021725390311473837,-0.020229261605396166,-0.019327058540011467,-0.11779399575667604
0.006130004153682785,-0.06709820292371155,-0.026129781893899005,-0.02476707615280484,-0.03552449814206253,-0.023214162584810693,-0.015778839469613642,-0.1075597189363046
-0.0028547395116045055,-0.0761803939470161,-0.03396384273186137,-0.018534364514419914,-0.013572064395127887,-0.016943022383272822,-0.020611432094157285,-0.12771434034331547
0.006217148095917753,-0.05279619452090098,-0.02732552471946577,-0.025305094631289618,-0.029865620401403038,-0.010596141404363808,-0.01974513496007535,-0.11505004364036259
0.001193056604554668,-0.05816983948764273,-0.0232303628381375,-0.012673617865602558,-0.02140766021782149,-0.0010566506331153712,-0.023789020715067517,-0.13066783550779243
-0.003394403115683199,-0.07636165825906521,-0.023844418128064666,-0.02022883095057931,-0.031538434739912996,-0.004463861756360675,-0.012250877722498055,-0.11948288886101217
0.0025123806966184225,-0.06895546601952383,-0.02688101343545596,-0.014825105880989505,-0.019458655557085033,0.0021462406115447816,5.162766355830061E-4,-0.1711160797684273
-6.318892958332995E-5,-0.07151095131994373,-0.021178099226257945,-0.001118517231918819,-0.028842586049774587,-0.01215335630656291,-0.013840920462900985,-0.10936978847154519
0.006098343548330303,-0.05788001133622994,-0.02406384864033117,-0.020929834988579987,-0.034643737481359474,-0.003483924115182198,-7.696400167694523E-4,-0.13780982598182032
0.005073149535214747,-0.06907030551638507,-0.023520779570973302,-0.011470804536580868,-0.024134120025691392,-0.002080752797453564,5.475171495358081E-4,-0.12221405789871116
0.002088770181123427,-0.07418215731308682,-0.02455184175709928,-0.0115427656716778,-0.030481685026889603,-0.001509454773521031,6.730460278008793E-4,-0.15147849222994925
-4.278227792719059E-4,-0.058610793697549714,-0.024758828010923502,-0.015367249391048032,-0.02844264938464762,-3.161692548972831E-5,0.0094339139072324,-0.13109580873318372
-5.720774227118741E-4,-0.06463247202476592,-0.02564304817267833,-0.015468950256017983,-0.01903800718152653,-4.5245228706602384E-4,0.00709530659034762,-0.13639610394019658
-0.004412830244563958,-0.0777900118503257,-0.030725635937677468,-0.02214030800331531,-0.019073890104950784,-7.711161265055022E-5,-7.747830212478051E-4,-0.1401125370892706
0.003748992706862908,-0.06656361114029329,-0.028862008025051324,-0.018608000835888348,-0.02571880700087524,0.005402735612751293,0.007958021253489694,-0.14099306507275441
-0.005146774848058014,-0.05759759979740031,-0.025517284233316256,-0.017044207286380973,-0.015968840503652538,0.0055216903921378145,0.02612528287810675,-0.14545743696251515
-0.00787509472626514,-0.07650213272480556,-0.03141003173006329,-0.01733563807354934,-0.01772187507789791,0.015190210338600366,0.023087614694022374,-0.1467129446083209
0.005487213959050691,-0.06819715617209778,-0.03131922069013314,-0.0193131752151128,-0.01820141149308431,0.018962844010838344,0.02455155785084131,-0.14358030598360777
0.0029874125728985438,-0.06356630347764133,-0.024419030137965078,-0.010660889900578445,-0.022947336327846235,0.017653545811824635,0.030800794291157625,-0.10931172357879952
6.532632221718737E-4,-0.06923337600253686,-0.027505679389230257,-0.02863496105679772,-0.014742175812654522,0.012322303722354336,0.03353158356379464,-0.11371880080928401
0.0024141132961246516,-0.07470001358233323,-0.03377374904984275,-0.014666173067305596,-0.015348919816798062,0.02153253480912901,0.047346639042191566,-0.11960719127536472
0.0016616255287751401,-0.06355984734864772,-0.028099013365768165,-0.028424202285945704,-0.010805144070543336,0.018120266300479578,0.04325701254393695,-0.10700065765553382
-0.002015312055433852,-0.07816735961440723,-0.02411564627015281,-0.013797676730952552,-0.01597171347320178,0.03418813846840111,0.05006597481634725,-0.1386185288206181
-0.0017067492992777352,-0.06930146782571825,-0.023926716071564103,-0.02350458157444507,-0.012996687933951943,0.02081051390307174,0.046612827654874456,-0.11511422257666704
-0.0018371822183478744,-0.08128597125296047,-0.028617558977018467,-0.018031205951417897,-0.0015533529044598495,0.024774984443888887,0.043638270711798835,-0.09437780872738308
0.0013219801683364482,-0.06307295551122717,-0.02374820473757047,-0.01617171130295334,-0.01508951877993769,0.030664560730074834,0.050299432008950117,-0.1194511627183907
0.0027839751671268733,-0.06175556003925152,-0.024920973616947485,-0.016763703679045373,-0.004962156700165179,0.04544393700851431,0.06175158708076022,-0.10838573788878299
0.004446228667708357,-0.07358024704662938,-0.02645240358473201,-0.011514024714561436,-7.413596447104015E-4,0.04176573429880882,0.05228775556615013,-0.10365614792542352
0.002383441045739871,-0.06808710728289256,-0.02152326871601799,-0.015253241433651336,-0.009183450525007473,0.03666905330503406,0.046282803011889126,-0.10758595375363955
0.0029370412188594003,-0.054009656543220735,-0.024534155507121264,-0.02851715226569694,-0.014624740763479733,0.03446763636788805,0.042702625056692964,-0.09216301482158493
0.014612691268210624,-0.0610491215481721,-0.028574657006429003,-0.01614343277483936,-0.008887371818599521,0.03298312762060765,0.05195502099823629,-0.10636695224884891
-0.0017694999103053575,-0.07423998257403092,-0.023263982934390658,-0.021928403362749257,-0.004217570744376287,0.023327442495101748,0.04397215329637159,-0.09911336927243705
0.0017688690732586268,-0.05346272805817702,-0.02674039316451458,-0.015795697426375214,-0.010724484185316276,0.01868292545950371,0.032729260201973656,-0.07334925909755172
0.008646167763542793,-0.05624077566033723,-0.02657171074017893,-0.030416322908861936,-0.005436082413296053,0.0341836764293658,0.04001603352242898,-0.08879307619216198
0.009000651315841086,-0.06197527766142227,-0.025741904125404187,-0.016829820293028316,-0.017874927607460154,0.025955789465279773,0.03410373008924385,-0.12057100497992865
0.0055011480589526405,-0.05701892668430318,-0.02447777860462651,-0.026997876562838176,-0.01588328675547871,0.01497301773477446,0.02239765707043622,-0.1107312928312546
0.003320500838022814,-0.05817842425078535,-0.027656899945768976,-0.027907378517941422,-0.015358443200381227,0.014545254620561521,0.024025224228427268,-0.10157754050488932
1.4516121994220406E-4,-0.06197719192088078,-0.03147292222493572,-0.03174796841928244,-0.011734129902510848,0.00976441809908256,0.012685593113914793,-0.08701031276013428
0.008339129489370422,-0.05442154657436546,-0.03347844916126332,-0.03630310329961465,-0.015892108230642476,0.014763585410687221,0.023232889760193883,-0.1213841407588504
0.008532295536273188,-0.0562934385642208,-0.028272992559039888,-0.02503567235994646,-0.023309961743955464,0.0120582326992679,0.02041552089655252,-0.08229184820382948
0.006546274854520256,-0.05414416233934835,-0.035589218227480145,-0.029840213263959966,-0.007718021613814774,0.004293989224187309,0.03459459796079716,-0.10015325832095319
-2.4385664240030887E-4,-0.058105376740497254,-0.033711295556585794,-0.025545578996079902,-0.018631886036344088,0.004777026871542316,0.02072587158848504,-0.10471674178374926
0.00358759193064451,-0.0720144244513646,-0.03517882755127192,-0.03648095850021912,-0.017848452395556158,9.753370209726761E-4,0.007135816142394469,-0.10582928355746433
0.010208260762856764,-0.06039162181915667,-0.031067044178452134,-0.02511776452623681,-0.03517356203176451,0.007064345388772475,0.01386194193747862,-0.09504889103062084
0.010664380625856422,-0.061495082752675366,-0.029391733193910186,-0.03791162645723562,-0.018438223570832524,-0.0012962627612486952,-0.0020204873451980217,-0.10426176127193199
0.003713915721404354,-0.0559068095038531,-0.03201649747987791,-0.0353123375037407,-0.01573274040742007,0.005608661109508727,0.003437420198821319,-0.10937000983637958
0.009550398862299329,-0.05580997568053452,-0.03565874914738917,-0.03896368944870458,-0.0327066302410899,0.006727087558098952,-0.004182199981014694,-0.130212744205275
0.00392338605393946,-0.06194492734408549,-0.034290193881912005,-0.033418804178475786,-0.013296643666861686,-0.0058493218296463865,0.014358453053403908,-0.11317734492036582
0.0034924723422447485,-0.06378323514530589,-0.0322232435160963,-0.029256139863666535,-0.021784682561082767,-0.016450097447262266,-0.005946772686776384,-0.09876714111926134
8.497133061409098E-4,-0.07187876579975151,-0.04150579810046222,-0.04008999112905546,-0.03414143627643655,-3.198027234908186E-4,-0.008567283507959754,-0.10733329285488752
0.00921607772380859,-0.05556585906129062,-0.03543073298828866,-0.03403489812836858,-0.016711040004661167,-0.010798373320965357,-0.0022056810285487807,-0.12780004463869743
0.0021800420139321697,-0.06386896886059534,-0.036751838834247645,-0.038351104712600045,-0.014254408997821658,-0.016927109441061853,-0.010846362117945714,-0.101098326342555
0.002005551288183418,-0.05838328054755823,-0.035683916046908605,-0.029696300269670774,-0.02537692658200208,-0.010700402608423946,-0.0134089106828593,-0.11149274765497752
-9.938923944435552E-4,-0.06532589876643154,-0.03024661376910295,-0.03476038337239651,-0.011955584280033552,-0.00525665547423511,-0.015274922172182329,-0.10608488235872537
1.23167859378357E-4,-0.05254545425428726,-0.026923999256416788,-0.03391951410204452,-0.036853750083839766,-0.014265038926068887,-0.015718771960025423,-0.09618248028593623
0.008047052323810977,-0.0542895097438193,-0.03785355852919187,-0.031774171342389794,-0.014955075748893624,-0.008233781699085368,-0.008118581065009173,-0.11243396304798207
-0.0015412616741922105,-0.06753906364472104,-0.03240509976531389,-0.035338232694661506,-0.00877082139714629,-0.016286466244904,-0.013269263725658086,-0.11269405109073108
-0.00416328964424431,-0.07453837186300241,-0.033767297568987144,-0.029541120027025615,-0.02239621398956216,-0.005456259118957086,-0.01650210807114084,-0.14568678513751535
0.0035824219496041437,-0.06580697145086781,-0.03509017375776416,-0.034783655909994146,-0.023526073023496522,-0.005491287997547569,-0.02306514716098693,-0.1337113634402385
0.0018051252403928652,-0.05868937546611082,-0.034652644156045485,-0.03371806073909484,-0.01602327442193656,-0.003398770172864582,-0.007891510548913305,-0.12878235981589745
0.0024537709781755936,-0.06469886875691999,-0.037115003709370896,-0.02990404410723018,-0.020905315375097527,-0.0067229098246874884,-8.979461241618697E-4,-0.1286633625627211
-1.826956649564921E-4,-0.08095325921772963,-0.04088975395007268,-0.036760949288502515,-0.013972174296630403,-0.0044665121879787755,-0.001490362732569264,-0.11685040466786853
-6.874877192963925E-4,-0.06130266270545419,-0.035684793072074665,-0.03010954857525467,-0.040794475060956514,-0.013201018476755658,0.0035493643194445704,-0.13305997531243224
0.00472676842823703,-0.06582488192784748,-0.034089799460656996,-0.025572093299968308,-0.014021495916711145,-7.833175145905124E-4,5.504109507917237E-4,-0.09571078919235247
1.3452294476445746E-4,-0.0689338174365492,-0.03487828347835114,-0.0191847261942418,-0.022883040717194134,0.003609860474397526,-2.7330924139050696E-5,-0.10920999843901993
0.004176220436238819,-0.07133262936060963,-0.030193800367249418,-0.027659227120929383,-0.029273396202235638,0.006403567511971706,0.006152780956531639,-0.13941326349640318
0.0053639765163526676,-0.06245749505778447,-0.029107738295593384,-0.02528256637583994,-0.023310546135245736,0.008104093584374809,0.019788421707773212,-0.10933939916093169
0.006524244174513716,-0.06658355572123813,-0.034665214126119316,-0.019469501288181264,-0.012020472449450481,0.009630844487983015,0.009695494966601622,-0.1267156979917458
-0.0016690825220143182,-0.07341273815606217,-0.03329312804862516,-0.023848857686790886,-0.0208499210241765,0.016238901902767444,0.01176976201693996,-0.1361128947052253
-5.152773188352545E-6,-0.06326039927647195,-0.03218063253078285,-0.017420742567677328,-0.018584488282585118,-4.795854504063936E-4,0.015270826194611519,-0.1198399627170375
0.004534901356825098,-0.06501473429397027,-0.0331054667224907,-0.011535907529894456,-0.02036043192797681,0.014073297666640608,0.01980515408043996,-0.12395451560614631
0.0010247748009337232,-0.06746947734288443,-0.03303558423163229,-0.02231475348318566,-0.008117878238715128,0.013512787712114963,0.014019475125612335,-0.12828693146415973
0.0023391801601864185,-0.08617519828339067,-0.030863132891117424,-0.01985902820990166,-0.010880220631665796,0.00818766651540833,0.018611943329349668,-0.12945256365291316
-0.001850942146249846,-0.05596655453176165,-0.02826473803075533,-0.008762403067801966,-0.03355831291147681,0.010373456099099353,0.007548102533610366,-0.11193505497874601
0.002016500101097917,-0.07130915928904244,-0.02965511407654098,-0.022689903457947063,-0.017129340042044833,0.005200809927573902,0.020796730508074405,-0.09506428233560697
2.0167289516031465E-4,-0.07392263940398061,-0.032423661471535185,-0.01812886026766561,-0.006230691778764737,0.00982994967045725,0.01932070046739299,-0.10045923302821935
0.0021037080079987698,-0.067130823413433,-0.026589293910492213,-0.015675829638425558,-0.022112185070985706,0.008238863345449368,0.01881439129057976,-0.1317163042352557
0.002947988866110179,-0.059939243851654875,-0.02685499518295687,-0.02084669042453277,-0.02235425513483884,0.004786086349621999,0.03332958436916383,-0.11130502280887451
0.0012261466140989564,-0.05765534840649158,-0.028788442621565248,-0.01625006155595148,-0.025002302859139753,0.01828353897277132,0.01717033927195618,-0.10913129170656984
0.004059140744849625,-0.07805952517986223,-0.03089155760692043,-0.01530917754537645,-0.020480841113936974,0.017636952046571987,0.02160287606847364,-0.12323398025425404
0.003992924879648724,-0.06112155871476151,-0.024935035738812502,-0.01832608809768557,-0.024587347767138702,0.004146504009271985,0.02258219803550037,-0.12780695047628018
-0.002052114069954813,-0.05909382787919958,-0.029574770480642314,-0.015918750176994557,-0.01568597541840012,0.013757434997753244,0.021070246982455607,-0.11969489143292505
-0.0026329004605930013,-0.07409414009162978,-0.024475920140043492,-0.02117495239962665,-0.005019058421982804,0.018050315248235256,0.010623549888272264,-0.12913030536501838
5.977022684731558E-4,-0.0739318498060307,-0.030194999721517683,-0.02567413320388054,-0.026571037034399277,0.004109969079568932,0.011937618080546912,-0.12200753709029061
0.002610871128916043,-0.054131614035340864,-0.02497310252328053,-0.022755277243015775,-0.011669297294613693,0.004473444673437679,0.024991358518342343,-0.10125536243395206
0.0027865840615302257,-0.07084947322286873,-0.025514926967654828,-0.01975372392225437,-0.014722242950539352,0.010854974074775182,0.005704590163454241,-0.1176117982306225
4.7730937633385013E-4,-0.07139704842893167,-0.030932067635724977,-0.019754232165204683,-0.0063491767857677675,0.008679819079686985,0.015453730526713531,-0.11478029061789745
0.0037385038989938947,-0.06675323784306808,-0.02567628609841558,-0.012251059047254131,-0.021706731616119104,0.014871905335826744,0.020195278825969797,-0.11129596942559504
0.007518432001732108,-0.04600517412617501,-0.025930732471687507,-0.03017289761420765,-0.016760244401238182,0.02243252475077417,0.006542641992404499,-0.09530104246778333
0.007612588587315859,-0.06183964683182655,-0.032345103889591095,-0.01840191915441626,-0.012109600726666534,0.02179209855253256,0.016619962368627075,-0.0928882050815081
-0.0017494203850196572,-0.06245166399436665,-0.03344925549570259,-0.02957108810108714,-0.02104154372767621,0.007786758908954437,0.024972791081521513,-0.13508778133492508
0.0035030618086347356,-0.046739967425582,-0.026572134146051033,-0.025764287443630685,-0.0201562714490511,0.011077544336281263,0.017525644417951507,-0.10291594186526336
0.002201439260258924,-0.054168028436834034,-0.030404311267627666,-0.0418929196517507,-0.015311230180982814,0.008378854873342282,0.0048164740723085995,-0.11426083990048896
2.464651945183386E-4,-0.06539496013025457,-0.035755360805935506,-0.0299722242754624,-0.022077871365774174,-0.01000929829010353,0.007057037911363388,-0.13431849019945152
0.007384969339728585,-0.059077967195301624,-0.03377904903792596,-0.03412842268175785,-0.026421896602534477,-0.005969684718050042,-0.012726820713689042,-0.13195797568886017
0.010979639821010261,-0.05623804177476716,-0.03626704886103869,-0.04057437583598736,-0.01623946434374471,0.0030990278809970777,-1.6888477387137277E-6,-0.09667828095189276
0.004016113050516141,-0.05178902441684035,-0.03453905483516511,-0.03882786254726175,-0.013598082274760923,-0.006096052706356608,-0.004413257410397187,-0.11657478499460346
0.005329319608991206,-0.05941251816544233,-0.038457202309589704,-0.038246898451947016,-0.02327843523554007,-0.0065532304074746835,0.009410380246216194,-0.11053716078826692
0.0037720587697986844,-0.0526084726828669,-0.03942003647966283,-0.03787924188600906,-0.017271315111040422,-0.0060621827622530005,-5.215594162057958E-4,-0.09827032810298104
9.319924838481171E-4,-0.048963640644315236,-0.039697259318807424,-0.05456304679810306,-0.006326720625311278,-0.008902908149801252,-0.003902344252913086,-0.09450545852216478
0.0033659710017244758,-0.05669396703538117,-0.041795319678951774,-0.04868676765874392,-0.018343214901750966,-0.007456744562253407,-0.00809338695705579,-0.11976927722087824
0.010260000798055063,-0.056816566227062576,-0.048629887208218155,-0.05442646018502497,-0.030682362230434312,-0.012490057017465084,-0.018392596625872074,-0.11638568753273941
-0.0024371017357750734,-0.04897109622627211,-0.045430129479008416,-0.059416692996117945,-0.02330721040826665,-0.008962787034343011,-0.007319851179087948,-0.11019767755546961
-0.003424632923718449,-0.04996206926025969,-0.04976660261444938,-0.06074547430293194,-0.01710829160801499,-5.200282799157124E-4,-0.01770503683248583,-0.11747270033631171
-0.004013449696032008,-0.05601511767664698,-0.05689008168016776,-0.062477657704325014,-0.00974972426313403,-0.00990548313601555,-0.01197287328167834,-0.1048687062248113
0.006566266027956482,-0.06052890671836558,-0.05410984793108554,-0.0662567892250197,-0.008080149585156833,-0.016391116560624478,-0.02143207439177262,-0.10387680792250926
0.004569109751747978,-0.048246610464745696,-0.054466774367907325,-0.06586224228568786,-0.01397068080288944,-0.01379518074280751,-0.0072497993105070276,-0.1022908185306052
-0.001889118460101345,-0.05992883087702492,-0.05642979019763903,-0.05951060250850228,-0.009243298115504785,-0.013061870573333,-0.029848966536199627,-0.11603815633816801
-0.006856393623122313,-0.05799589309176594,-0.06483490249464047,-0.06542006959908482,-0.014444449275249065,-0.021953267381292087,-0.01334286028917597,-0.1235403953015921
3.9533690501710123E-4,-0.06232136965392612,-0.06033874672350001,-0.06495397764878297,-0.01668177447166766,-0.019982268897548183,-0.025579275702145587,-0.12866034002505258
-0.006541770913441849,-0.050916284406224054,-0.058966616205698194,-0.07203724218734606,-0.012164366355633553,-0.0253676226838142,-0.016822796983981377,-0.07581642069242868
-3.3156577379048565E-4,-0.05300186514227495,-0.05825965468048039,-0.07473594721158738,-0.0232659629553724,-0.025292343264975505,-0.018023180066163994,-0.0847000275179748
-0.009210787113489573,-0.06724854526789657,-0.0636549724000857,-0.07259739324486289,-0.009068170612826656,-0.010518661129048106,-0.02474131156258279,-0.09151646642654308
-0.00358394402755641,-0.054444814598291584,-0.059848779680084285,-0.07208048254529993,-0.025584211570660945,-0.01118716554797005,-0.01542748163580274,-0.1119689957290868
-0.00388151682731073,-0.06095545732461502,-0.05736434996809451,-0.06578383788914965,-0.015138044710065794,-0.01700573637128977,-0.013017698086565176,-0.09741196839868432
5.268134949625015E-5,-0.049367677919644956,-0.057161452599958903,-0.06692849722172801,-0.005362714489740195,-0.0032472421494621722,-0.008687291932547359,-0.101128912272368
-0.0062315663131224785,-0.06313578297217576,-0.05557537674504287,-0.06767135607061336,-0.014220259733875645,-1.94792884605971E-4,-0.01024541645084401,-0.10567160077769715
0.0014664403384163594,-0.05103369127664829,-0.05025719782867347,-0.06636828805126471,-0.02771955791763848,-0.008932081300003334,-0.02870210357740252,-0.10594204736028047
0.004484679958951538,-0.05861903762826361,-0.05047716726913212,-0.06219370803338621,-0.016248956859299637,-0.002138295200429879,-0.006945197688372328,-0.094966232666576
-0.0012340243328390252,-0.06773862798193982,-0.050739207636689626,-0.05849977047333444,-0.008523368047944313,0.00541089683860565,-0.004385324838825872,-0.0752567051369758
-0.006499811647734176,-0.06990109781299911,-0.059087239088725506,-0.05269265854085416,-0.011086998751755147,0.0035748512003386293,0.0023751984700306258,-0.11012102894880783
0.006333109894629439,-0.05906693004783989,-0.04164703172097237,-0.0603001219427468,-0.009613607855672779,7.440333288941445E-4,0.003664214257409258,-0.1038606664110859
-0.0013143917332098167,-0.05270565521858608,-0.042592577174499706,-0.05544431691296492,-0.00927075010926392,0.016539561656597892,0.020411267614630905,-0.09036274061003517
-0.007801621563641853,-0.04898665098231129,-0.044489570925019435,-0.0554159857065121,-0.00855510916773345,0.015466161622439982,0.026771976128000585,-0.08667368000868392
-0.0037881959440570863,-0.06402828737237301,-0.0438445999516572,-0.055152496463539175,-0.0064338967757384775,0.010974208805396523,0.011215978766513488,-0.1287836266762784
-0.0030941132315971376,-0.052851301142829356,-0.04030806464763893,-0.03462317536073018,-0.01494696751212204,0.0012534429217164007,0.024447193998366243,-0.09106792170778528
-0.0026882600047385555,-0.047517396936134784,-0.03873922595180067,-0.04408295361403034,-0.01745785348038984,0.015309515764651642,0.022968822319931304,-0.08727440429499561
4.762502353639208E-5,-0.05968450509671581,-0.043886494087424725,-0.04044150617394161,-0.014556713538693334,0.015113086796570592,0.02355820774898074,-0.06861207489683555
0.0013379153573338585,-0.07382030034401103,-0.04624823029351104,-0.05102159396391051,-0.0016918487309231123,0.02115678576986873,0.021957971885482788,-0.12282481257415406
-9.126672012706439E-4,-0.06202993155840426,-0.04046318231822578,-0.04407884589464304,-0.003266825278997769,0.0036682639831514506,0.030593022566635104,-0.13475866417623164
-9.716804099730138E-4,-0.0655332867310577,-0.03830924663708638,-0.040817907843926034,-2.4691896476272473E-4,0.025323349139373414,0.030658618629136207,-0.08918597858655039
0.007002519201005353,-0.056486601656610055,-0.04151923915196621,-0.03313697372861596,-0.012602306982678578,0.018403760876047077,0.02961030184936033,-0.10039580643847967
-0.004665717271686062,-0.0742532216463152,-0.043847297606821545,-0.0400296196827727,-0.01575505943200693,0.012060138875535214,0.013719038708521952,-0.12001127423413295
-0.0016827725632970701,-0.06841405251795402,-0.03712613832929834,-0.03933181085966175,-0.012442262167796625,0.011939081116220912,0.0361479054589499,-0.09854034534745197
-0.0019652514044826356,-0.06306480586613863,-0.038206589408586844,-0.04053565166060009,-0.013766410655783547,0.01661968176377146,0.034191689925337054,-0.0968615474563784
0.0020889523758210833,-0.06293006786353118,-0.038920790410601494,-0.036201406327423594,-0.007016737347556308,0.016069226503489534,0.019580383293697243,-0.11255398672768012
-8.974854805870788E-4,-0.07247729302666017,-0.03638279461419014,-0.03655210517229644,-0.008364832331682654,0.01458909054619341,0.02971612896329075,-0.11543751498372182
0.009078228559096181,-0.06215891647338151,-0.03496006320793051,-0.028599490318880115,-0.010704654656271283,0.02017889125046044,0.011699779538176124,-0.09953280250962301
-0.005399582194102688,-0.06472461521680668,-0.0381044906199459,-0.040110039211407565,0.0017471838562198392,0.013200471866884745,0.02771619732122045,-0.09212588385672879
3.6257975764311955E-4,-0.07830293091415653,-0.032156012919844705,-0.031210568788817734,0.004618606993861138,0.019921344726481174,0.02561430648475824,-0.10372531967608795
5.435563268356294E-4,-0.08111801553860953,-0.039499025696175916,-0.031371050990640595,-0.014246870544382997,0.023188963561003972,0.03394262035269779,-0.138515455510981
0.002392563801337897,-0.045544803313068746,-0.03383761216533571,-0.03354404039322787,-0.019103935777574743,0.012432473597370647,0.015248547762809617,-0.0816280419332414
0.0012100250288204534,-0.05966520530287155,-0.03756526852971741,-0.03668036159072968,-0.007450784534651598,0.01644453708751487,0.027123014291801098,-0.07293433391810818
-0.00421292876889798,-0.07182167294516517,-0.04241221197322246,-0.03808095691392937,-0.013870365871740035,0.027714526560581668,0.029275134163322523,-0.11110125472304
0.004464610181604256,-0.06933711436968892,-0.04050035702412267,-0.03815645276050644,-0.01341584081319813,0.013031716890110137,0.024255492396144464,-0.11692396854946299
-3.761129172865374E-4,-0.05731454143148949,-0.035303917798108604,-0.02596956525205948,-0.009933682174203694,0.016333701348876756,0.03407651924110218,-0.09056646198143306
-1.9424560131630136E-6,-0.05520248189085559,-0.03966153946737455,-0.03672400131539243,-0.016659440975404425,0.017020392078879384,0.01801281710861192,-0.09802340148939254
-0.002252346792817498,-0.0662915068081175,-0.0370673083972002,-0.04989149969640249,4.424348645189845E-4,0.012501466014507875,0.019402606668843213,-0.09475746169091089
0.001953535168612056,-0.06484354802053553,-0.039550989031126034,-0.03492718687728248,-0.012448395913835807,0.01336415707025911,0.012499628874631474,-0.11372930454497317
0.0038264923447730256,-0.046153029700640946,-0.03690824655974798,-0.04676223425408834,-0.0015556335659209191,0.0038981638395376703,0.007793038425368622,-0.1065232336592413
0.0027791942942716227,-0.07030607940647186,-0.03525519794501878,-0.05068590072460843,3.7172886414437795E-4,0.018748344417579915,0.023009859469921432,-0.09441793852379268
0.0012955796013096705,-0.06299461333013893,-0.04624895552528112,-0.039020363892299466,-0.016081853417003446,0.007897435949022516,0.03307434516683157,-0.12188884796059515
0.011382238507790939,-0.06194780126956671,-0.041379841817542756,-0.04052811644198115,-0.027688552985038112,0.010727762317521343,0.010249014458137582,-0.1334554209158614
-1.4396536887500283E-4,-0.06212960380903583,-0.04147844874621947,-0.040541891490473575,-0.006994371593889497,0.015538017782454108,0.008920901768425195,-0.09941101831285301
-0.005488525643851123,-0.06693578053630696,-0.04103252503759279,-0.0463661356317589,-0.0112943254350216,0.017927837242385586,0.0018363978480603648,-0.11227497885823018
0.0047415687833827335,-0.0615854455253269,-0.04611194693743567,-0.044879111872504034,-0.008790658854219974,-0.001484340607010801,0.004638066478694926,-0.11800674192337526
0.004048517241554678,-0.052378441388976106,-0.04254325055374957,-0.035560144060661394,-0.01130257576171104,0.0033318359100210694,0.006930140653048553,-0.10965824325163691
-8.951957236036075E-4,-0.05285199736104473,-0.040727368337928845,-0.04517141793096741,-0.011337180643572755,0.006694582032185777,0.0025220345776045274,-0.12527795355196863
0.004124935967133993,-0.06129394205618357,-0.04644612823271412,-0.05116764536405477,-0.005008148307877486,0.010526175895526457,0.0067514528769115284,-0.09905960555263241
-0.0018005621319622063,-0.0698254403357672,-0.04713535550767173,-0.06238022965434424,-0.014441044202059463,0.0011032616126284557,-0.015067620517624126,-0.1019699022296775
-9.83352222685729E-4,-0.04779877623477213,-0.03801295704096412,-0.042373247707257054,-0.025737627263334385,-0.004063001248228591,0.002191443800632726,-0.07318778748187432
-0.003141031606383255,-0.06436511804518089,-0.048399034452760274,-0.043889847401892924,-0.009417424390620953,0.004512494531728474,0.008728003595280717,-0.09934843831739068
-8.204068961972667E-4,-0.06511692285684773,-0.04821522440048205,-0.05093666387093325,-0.010726547054534477,0.0023840375002826524,0.00660367523305191,-0.12160154742950673
2.859096708825512E-4,-0.05376209209660726,-0.046398899498912544,-0.05349713297357142,-0.020316493763585162,0.002820745906217849,-0.00467568149268209,-0.10375160644496897
-7.432015650508806E-4,-0.048877403074199265,-0.05313209661730812,-0.05143762250865747,-0.018420985266067086,-0.004659468578496288,-0.0025839632425423615,-0.10454055909861072
0.002652561346709748,-0.05374285997446097,-0.04681104829591077,-0.05683733396892344,-0.011369307417798652,0.009821976513457066,-0.011940585348434112,-0.09536185757061183
-0.004116183065426839,-0.06415741349515779,-0.05415483347945377,-0.05741021100053561,-0.015581923045818551,-0.006973019152162184,-0.0131321804720906,-0.10133394729894392
0.005218752041821303,-0.06085774893394592,-0.047311601677918154,-0.04670046535576495,-0.02561681543666275,-0.007287288128287137,0.0039808718609734535,-0.08320852669817265
0.0024275000672400425,-0.04451432994717204,-0.0483729041565135,-0.05089332321300021,-0.015142501405395773,-2.489851668345031E-4,-0.014568158708463948,-0.09800105376948509
-8.453753130662188E-4,-0.06121065713769635,-0.050451582048044,-0.0485793950333453,-0.020140408794328914,-0.007031970056513939,-0.007186791987530768,-0.08159852617728695
0.0012038563841556096,-0.06191641455066132,-0.049714196913727304,-0.052517588889278134,-0.014890117880981218,-0.01796505077398796,0.0036219114117744164,-0.09236215929397402
0.0071298318317619125,-0.051317591227640735,-0.04511233119488805,-0.051881528498676735,-0.023990226474232743,-0.004991913834661377,-0.0042871903529767014,-0.08741669181491378
0.003670540251657234,-0.0397159626142321,-0.046302745603334854,-0.0632756448316009,-0.016705222623638254,-0.0060969415237614975,-0.005955108905821819,-0.06636917483025753
0.008000491700708016,-0.0480449902929881,-0.050070915191981286,-0.055968029953889116,-0.012087357754016842,-0.0023362490916159686,-0.009416385046819905,-0.0749950649538882
0.010290248257331228,-0.05091746622945881,-0.04820177491039287,-0.049712142081054636,-0.006503056885633716,-4.200022308116226E-4,-0.024588224794300884,-0.10049861979594066
0.00748205527226301,-0.04425746920196204,-0.039455206871856816,-0.04677820089240388,-0.017140142504769397,-0.0015253192309090094,-0.017319099631893604,-0.07836746675796434
0.00872305948565998,-0.05746186787740108,-0.039550295987695216,-0.0472806511831845,-0.006067921081378407,0.005882351206342592,-0.0047545924786396325,-0.08207363863093196
0.005981235214123746,-0.05192258887330868,-0.04860780128270439,-0.03998479550971714,-0.0037860447396145676,0.006354256503060212,-0.015530201972342308,-0.09245879710837818
0.007773155221531016,-0.05795997580928829,-0.041979144567169356,-0.0414161765361996,4.888572046060766E-5,5.752731541735234E-4,-0.0026119834002624647,-0.10704841261442945
0.004620101164178086,-0.04559790809031859,-0.039417631938437184,-0.04419267508333347,-0.007499627344605278,-5.237380339114776E-4,-0.0028354116722122407,-0.07803972141710726
0.006762203946434097,-0.04633167060919475,-0.04449537270738491,-0.047253918111273725,-0.003186811729085705,-0.009218888284287009,0.0027489126059998237,-0.0861327461555676
9.95487977135997E-4,-0.04943544740847262,-0.04358770456402992,-0.04164713886795234,-0.004220678779633123,-0.0024940306916017324,0.0036870866341495137,-0.12722649751474233
0.010553563325628103,-0.05706572286867589,-0.04375517620032978,-0.041626543840202736,-0.01772426401835394,0.009128213721003031,-0.002538316082296587,-0.11386602838714766
-5.781230759637228E-4,-0.03972846216739857,-0.040702295584771356,-0.029969269773251858,-0.0073426622701597355,0.006265093736605021,0.010417143708016495,-0.08603303526993468
0.007392036373515456,-0.0545726186756042,-0.04396720197010348,-0.03971827630819867,-0.0011045045999583242,0.0018022714774978802,-0.008709543438837229,-0.105375134345023
0.008532668259106367,-0.05771728072880566,-0.043039668639358014,-0.04652895495874622,-0.008126251935855068,-0.007540145312689683,-0.0026529637721744077,-0.09567484546007132
0.002104351073014792,-0.05089461327276064,-0.04447340220001045,-0.04110383988640594,-0.008632661864513015,-0.011601252641211056,-0.008608700907878209,-0.10074418735134157
0.004663572872165318,-0.04281796755790079,-0.04464846425162505,-0.04711103875021926,-0.0025474545879581277,-0.006390776973708385,0.01191876868290055,-0.0852793766929355
0.0024314802614139163,-0.05276899828793215,-0.04629922640188284,-0.04797796479610814,-0.004922478376511215,0.002278406210456425,-0.006391960011782979,-0.09094943137430915
0.004835350264233908,-0.06215016014687062,-0.047298221623055914,-0.0519428531087295,8.426897173573363E-4,4.7372845255403713E-4,0.009326227281479242,-0.10109664702406694
0.012558328117434073,-0.05125735188160151,-0.05030567458863004,-0.05219362379606719,-0.01240468801362333,-0.012837018656402839,-0.0013957877147194892,-0.10351856058403229
0.0053207270738057765,-0.048197060197763285,-0.048249251807711196,-0.048850072582893624,-0.006868498253772121,-0.004999681539443048,-0.007387722120560333,-0.0936894693244262
0.006669556070038211,-0.06481002549069913,-0.047003251431781995,-0.056901952393744085,0.0013790421801016708,-0.005062664801563093,-0.0042402848790326925,-0.0880531973522278
0.002718356814288069,-0.06630426797855273,-0.05371320240432509,-0.055893051797405925,-0.017506193382904395,-0.012223598958606826,-0.006354936949185762,-0.09693713919962532
5.793542528953428E-4,-0.0506377234188797,-0.05200508035132747,-0.04759206504663094,-0.009126699958457715,-0.006340290341352182,-0.013773117118038027,-0.09149865794494165
0.001142671789032449,-0.05387106662735139,-0.04831060967495006,-0.06543701855810642,-0.004723911273961243,-0.005858919910511298,-0.02057160663023771,-0.10432981173560914
0.004407269404733264,-0.07374225206541966,-0.05360912939385214,-0.056352722250863345,-0.0016752989929575282,-0.016044793334387988,-0.004380779592720874,-0.09348716186084723
0.005304056918138869,-0.0681960401661092,-0.06228277033052389,-0.06118285558428437,-0.0077002751551896636,-0.014101366400824909,-0.020172158296995604,-0.11314181511881832
0.0062412108495533474,-0.05217656058824374,-0.05818743871122803,-0.06505199524315274,-0.019168194570965892,-0.01273418243494854,-0.031189652727819987,-0.09600154532848573
-0.0013458152705845222,-0.06037471425188863,-0.0615623315622945,-0.07390084371115398,0.0013707301004283717,-0.0076659171089366145,-0.022645785655891097,-0.11822232650921784
-0.0026796413090536433,-0.0646824683337235,-0.06154542383437861,-0.0720559244297938,-0.017333312550041956,4.77803483703212E-4,-0.034414524384782506,-0.09867220891977822
-0.0019034896080020209,-0.07257357954269537,-0.06753811489632754,-0.07177332443566926,-0.02205269835865937,-0.017645557758886453,-0.0337621364109788,-0.09281604114169172
0.0015482012562511986,-0.06187755981050998,-0.06555192332097602,-0.07820907794220659,-0.010544178425149963,-0.027255968817309673,-0.00891018387008233,-0.08965482568743323
-0.0018201042331492537,-0.05920261200692657,-0.06529423783936951,-0.07695238572314825,-0.007144833375273368,-0.03338042039706647,-0.03770572075653628,-0.11096489958628168
-0.006039720287527652,-0.0719034356927727,-0.0729912199204574,-0.07923633488209327,-0.013069912557968551,-0.022442262394492613,-0.02569486499487298,-0.11645543129257264
0.0016792663982339246,-0.07074503186210167,-0.06957648191796428,-0.07805622680541487,-0.020660335225940806,-0.026081530144847775,-0.03513207865378544,-0.10192139346054248
-0.003162693350973275,-0.07013774856832022,-0.06613173656264357,-0.07649628850398917,-0.015215807014928567,-0.019756897673956893,-0.03344174077420632,-0.10471273101656478
-0.0012093971832177236,-0.0733952317255686,-0.06698195730233696,-0.07415832015745308,-0.01614047381301681,-0.009938537285807502,-0.03388227279960375,-0.1270191378975111
-0.005054067763847236,-0.0775840120145778,-0.07238707325765908,-0.08440492574709806,-0.019585228340086212,-0.02745146323659607,-0.035881122150687825,-0.1022767786833146
0.001025798809999182,-0.055767782905139125,-0.06558392797890317,-0.08317254047533591,-0.025042220354690902,-0.02297520754466419,-0.032130973901979075,-0.11991191790624571
-0.0027204141695465916,-0.062306939313254026,-0.07246206899172988,-0.08682414294675574,-0.021351677541140045,-0.020035112396640724,-0.035800339965336554,-0.1121174156158844
-0.003008206791534975,-0.07354753949236972,-0.0725660184012213,-0.08065677674823739,-0.01863201076602609,-0.02190446134949602,-0.04015489352378625,-0.08334526492768242
0.0012920516951274383,-0.07086172776084969,-0.06751711888475556,-0.08355819944506608,-0.016572361661432666,-0.028347673259413456,-0.04291010982637136,-0.1266925650574002
9.963485613412775E-4,-0.05845753332033904,-0.07174266451034116,-0.08307626413257498,-0.02054511137921905,-0.02381343177549865,-0.04286187662964723,-0.10176010768378314
-0.0033847817423981468,-0.06549461305549574,-0.07155912686069306,-0.08661227256842982,-0.015471867690921848,-0.018724886654159997,-0.037301024844315286,-0.0867675952695581
-0.0030766027818855497,-0.07803984201381717,-0.0716878195155156,-0.09049054615727188,-0.018565919314703208,-0.03045332309826184,-0.03539105739026642,-0.11946027406846908
-0.0028932760348557495,-0.05857751037945848,-0.06899784327272873,-0.0779429233361469,-0.029525463536309256,-0.034385344354217307,-0.06247106838128163,-0.0810268062370229
-0.003986149258383805,-0.04694764335402978,-0.0676709739405636,-0.09116674967975534,-0.024594055294290023,-0.02899436501834587,-0.0409888638667063,-0.12701955768708104
-0.0064976012328617876,-0.05704190073712221,-0.07381619589233927,-0.08867806165648298,-0.015898356951063557,-0.03509022147239098,-0.051126746452328044,-0.09910832999600062
0.0016093663135840854,-0.06872377008371133,-0.07456316634723478,-0.08939522928325783,-0.013712598951432616,-0.04198938268977896,-0.0586312699186657,-0.11127810923819055
0.007444473830873818,-0.06054835426652085,-0.07173869264313534,-0.08600798716086559,-0.01759983773476751,-0.04548578989228085,-0.04860784892949548,-0.08625151991906448
-0.008746110331032883,-0.05434606998865663,-0.07497698110981744,-0.08927509188933151,-0.030055366743246048,-0.03820696235505226,-0.05429225404053198,-0.07875605075957406
-6.869459908587057E-4,-0.058307465360938227,-0.08122770788317288,-0.09071959378208967,-0.02954900270571091,-0.04832271849928795,-0.06351712312211119,-0.10722809142957271
-0.007080020156860796,-0.053946904141313534,-0.07755611136036956,-0.09407112342043632,-0.033941038704547954,-0.039987309547962625,-0.06357711651039524,-0.11748456231052413
-0.006129767513401156,-0.05189503634949318,-0.06936985516503072,-0.09189794008401674,-0.02318720610575765,-0.03374809602562428,-0.0509699493102277,-0.10182568569327824
-0.005406047896544623,-0.06073070984389195,-0.078890304355294,-0.09157741657682801,-0.013675115334590345,-0.038718352327511495,-0.050367456459079876,-0.08765791515918513
-0.007681166655308155,-0.06759298208281052,-0.0788710593891561,-0.09818516700626917,-0.01487831895007756,-0.04118001822026861,-0.07035032210886978,-0.11353364150057561
-0.008524376697448524,-0.07520433138546931,-0.07500662910062685,-0.09541800930911991,-0.02457386433388574,-0.05187460561399027,-0.05734032946570153,-0.1355806901006543
-0.004664083180712279,-0.05739324064824848,-0.06995226699031355,-0.09391975293582512,-0.02012433265100121,-0.03715776131795272,-0.057021661859592544,-0.08767074916109524
-0.0052288682100717805,-0.0628538214119396,-0.07681719374962648,-0.09341798607352665,-0.022139595335399616,-0.04576011597293058,-0.04155332837374163,-0.0987995487922015
-0.006090157266946072,-0.056314336749653776,-0.07331827633716673,-0.09848429060163758,-0.021535225567195154,-0.051214944957915745,-0.059968110834525974,-0.10393948595097532
-0.006948756563623732,-0.06781723357236039,-0.07041724824674905,-0.10159764192825622,-0.02578189813267713,-0.04601921557666225,-0.058043736426515675,-0.14754918242563642
-0.004083322731218756,-0.061275980256143815,-0.06812746750092537,-0.09387009502567138,-0.042725380834568415,-0.054758794801709254,-0.06819331715810575,-0.12489181656511539
-0.007760244421530728,-0.06558412700427589,-0.07344311952818743,-0.08668452022944982,-0.02591301189693204,-0.0492920193761545,-0.0514412439234195,-0.13145821627086446
-0.007522981415885087,-0.06332902416294905,-0.06869912550193517,-0.08503398011590949,-0.036255200350606656,-0.0432544651631343,-0.06522130569985743,-0.12430308695011404
-2.953076320311551E-4,-0.07948629061597351,-0.06945660575281705,-0.08065209157355314,-0.04196716851697904,-0.04968405067588374,-0.0607011209870544,-0.163774782235331
-0.007300314971887409,-0.060787092905954535,-0.06149579859433987,-0.07013745756047807,-0.0258211190320916,-0.04459806270585405,-0.05576919989576998,-0.14479171318005127
-0.0012470307797137364,-0.060477501588309335,-0.06790334397699418,-0.07385676134084868,-0.028306566667777512,-0.044652359562143404,-0.04380424419928354,-0.14006198801162972
-0.01293740269815938,-0.0742151225086345,-0.06475829978071047,-0.06582035358640065,-0.0307401835645036,-0.035876007689304,-0.04806723492798484,-0.14111425455361493
-0.00934780126775747,-0.07772872539282685,-0.06061947715405727,-0.058707383525439326,-0.03954804736386878,-0.034882889765688076,-0.05488665406369161,-0.12871605706294748
-2.774450276540862E-4,-0.06282787848070483,-0.05700368947016228,-0.05563999057918179,-0.029740774660149686,-0.02985151263949858,-0.043936546683472154,-0.12546276367344308
0.001996571503565394,-0.05451679237025481,-0.058161351671596875,-0.07220512563551988,-0.02293501146431756,-0.031085793531861288,-0.037572056413837734,-0.13384367207786418
-0.005772709680695491,-0.07063740139832124,-0.06215409865000044,-0.05775663121448237,-0.025049996587487307,-0.03123717649544116,-0.037468056445936086,-0.125000074655764
-0.002025600914076155,-0.06872505716409391,-0.055627407272026023,-0.05668903898391229,-0.03278489798884176,-0.040326250281035,-0.03864869136329444,-0.1436790532940792
0.0023371668043035165,-0.04994518230289445,-0.04892686330683357,-0.05534810535465789,-0.03231856155179862,-0.033323479409954844,-0.03823264980998672,-0.1115097209571808
0.0064493963251420075,-0.05571828981325463,-0.05237508405197467,-0.05127049942452247,-0.018369181590595966,-0.03203640035266922,-0.04411004431516673,-0.10554660249436167
-4.551872166481491E-4,-0.06808201027887903,-0.04712307174375097,-0.05238425181123889,-0.01810467984485106,-0.03924692821461105,-0.030653332772430934,-0.12811820741448415
9.511781553034624E-4,-0.06552432881153146,-0.04793730531283596,-0.05302298624131357,-0.036848829103959174,-0.023865449144541483,-0.04420958720332033,-0.1376495813941201
6.829279399246127E-4,-0.06127055477840033,-0.04272401182172623,-0.05460917628180885,-0.025210744496379105,-0.02885028203377367,-0.04851297851383311,-0.11212049802445809
-9.090493655404689E-4,-0.06503714808868774,-0.04984762128740668,-0.05353787234104572,-0.019160518661929266,-0.04123559730002753,-0.04247599023079414,-0.1313863036129582
-0.0037269321645231382,-0.07565662848840025,-0.04967442741541961,-0.05270379106052515,-0.019809552869280895,-0.0269042187395575,-0.03604779621687645,-0.1348478430099822
-0.002405197168706696,-0.06232765819564797,-0.04838161023224627,-0.04998223960173692,-0.03382071513111335,-0.04559830016052429,-0.03494702343771926,-0.17276245805394977
0.002304490186719577,-0.06973798092798222,-0.047434421056025855,-0.05063945816735668,-0.03826378284127841,-0.03112371458311451,-0.04437911982404217,-0.1367487445981317
-0.0065049006543862215,-0.06083997763904233,-0.04600557744639159,-0.04976936777297864,-0.02185492401506576,-0.027584419651621332,-0.044118854502270786,-0.1254586340339208
-0.0028354270770930817,-0.08290614124365775,-0.055788114919429276,-0.05609332816182472,-0.02949813535918917,-0.028308263241301472,-0.035007838882189724,-0.14235009546321933
0.001512303428022405,-0.05544389614351949,-0.051199708557786966,-0.0558707669291743,-0.03170492677652696,-0.04068323722255467,-0.042125724994768896,-0.11976059716942589
9.026258524776659E-5,-0.06877594345557095,-0.0513968450044022,-0.04296353295548288,-0.02927126544732715,-0.029337016838846458,-0.03893039627845975,-0.11265139361953314
-0.00152427108491503,-0.07265050580279775,-0.052709487119565905,-0.061726237391742385,-0.03627427971009299,-0.02394447923048097,-0.03916366612515575,-0.13050110556741007
-0.0057703505308616026,-0.07274414361477845,-0.0527664808411356,-0.04380961769413724,-0.026797490516559722,-0.029950486709371556,-0.03182797219082417,-0.1251691294100516
-9.762612868778125E-4,-0.0691385320229223,-0.04830073549809048,-0.05722733901232864,-0.02184944436067454,-0.02635292704057667,-0.02742433561470681,-0.12980643099953218
8.726887558507799E-4,-0.06939525174945697,-0.05462604951039972,-0.05727687205758708,-0.02628154034644031,-0.016544083040236225,-0.02639974315105274,-0.15934555750967505
-0.0033531134075556615,-0.08928595664708691,-0.04866052066459508,-0.06118603884853164,-0.017721069718127657,-0.01900314885950384,-0.031818288576343466,-0.14397247870303062
-0.0018682898334982409,-0.06417924543636358,-0.04949746223940345,-0.04455697809578834,-0.026875632271280397,-0.03127047549825719,-0.037495412634409454,-0.1116727335166669
-0.0020882021173159286,-0.06445499938736204,-0.052619558980385193,-0.05131310669984958,-0.02612905414881791,-0.012069492255151477,-0.03222287272638941,-0.13242458565350118
-0.002687625920123158,-0.0844953140159636,-0.05259834508693207,-0.05234368292250678,-0.006365925409968906,-0.02912857040809871,-0.015278867084399971,-0.13757014642027715
-7.784542405824884E-4,-0.07590569641453974,-0.04567715242851482,-0.04894855577012331,-0.01853899926716954,-0.017543206419995235,-0.023242547098817318,-0.11751698186405239
3.87820080513525E-4,-0.07091799394467521,-0.05049217140395309,-0.05496447465735485,-0.02362794609792335,-0.007734343235105707,-0.016651103179020157,-0.10026587894084146
-0.0018385234018203794,-0.06859335237442259,-0.04917462821068617,-0.05381023825115775,-0.022630478879938108,-0.013331610544057267,-0.012740348951188172,-0.13772505958869505
-0.008623578311301797,-0.0766943716896538,-0.047398260511571845,-0.05338501928838865,-0.0238547434003557,-0.005798377985623175,-0.009747763512910073,-0.13310313055347311
0.0016438379711212515,-0.058223528414519575,-0.05132233287280257,-0.04337723614257679,-0.01475387841357613,-0.014312714397484405,-0.01692933780018656,-0.12239589085243423
-4.3792357976667965E-4,-0.06522400610323192,-0.0527280072458843,-0.05549815705799581,-0.014366369590050714,-0.006060955083322242,-0.014048988824983776,-0.10428687058296925
-0.00117968401951705,-0.07822257465312663,-0.0568910782462705,-0.05822230206109729,-0.02765468551945214,-4.3287813770712406E-4,-0.01274305212615819,-0.1097868610860878
0.0043713516601558465,-0.05955684958749923,-0.0500707090535512,-0.04558017025538845,-0.024022869808371244,-0.010949075050775501,-0.010660813467124422,-0.11887635751928795
0.002551531600449062,-0.06628499602150824,-0.055039360136930074,-0.04263269374313365,-0.007091755266226904,-0.003853154189037183,-0.009451549889846856,-0.09631070683908692
-0.0022804800990070405,-0.0703842045790289,-0.05254569735710907,-0.05707011055916568,-0.005990924284945079,-0.005328824777580678,0.0036345813600959726,-0.11391513370389504
-0.0011601373798539477,-0.07235334925628636,-0.05231407262890825,-0.04591295327339516,-0.00773372534976637,0.0022319376048068333,0.00851231687687093,-0.11658091540409606
-0.0026638302876437654,-0.052662235689827516,-0.04803646605046582,-0.046186065677906944,-0.007164425509962189,0.005663010462671955,0.009898443096950186,-0.1064556275182926
-0.0028829581059214553,-0.06117278251371353,-0.04916664682776535,-0.04705794682645905,-0.007745555295184543,0.015001725150752727,0.01414068082768777,-0.09607445240422956
-2.565184326114463E-4,-0.06547557732281614,-0.05155165326439477,-0.05010147642491356,-0.011597602756325723,0.004615349142678037,0.01773114860961292,-0.10257206940253157
5.579689972823157E-4,-0.06164668648159059,-0.04808358730040896,-0.04685197477065611,-0.018689367495831725,-2.207889698964808E-4,0.017433951955208703,-0.10611313322939984
0.005201508762368803,-0.05058789336329513,-0.04047221358534418,-0.044209963001884504,-0.010811161259216858,0.0030483614559165197,0.012679737294374516,-0.0777905468170325
-0.0023538185945636645,-0.06247489782150298,-0.044100050585584326,-0.037990233595120104,-0.003210456258597182,0.008784250737278704,0.012265514742119659,-0.0843544845629163
0.0068503154079749325,-0.058669702602562025,-0.04675765985638009,-0.05288277020397282,-0.023287617532876424,0.008039271047315274,0.02095842261777234,-0.11927956434479692
0.013229183164180688,-0.0531370017607506,-0.041391792202565926,-0.04584502315196419,9.451618795930821E-4,0.01752823750147419,0.003960111814066217,-0.08720038891301662
0.006406979140414201,-0.057831973320716865,-0.04283410915309612,-0.042321537849042024,-0.002590606030579049,0.01594267606945519,0.017723702240824698,-0.09438754145509988
0.0029583595286124744,-0.059402383046399485,-0.04117427795906013,-0.048608482319870173,-0.007761119960146497,0.008533877234422898,0.01907697518557689,-0.09814663693804462
0.010048710598238041,-0.05665365604268727,-0.043046181638831775,-0.04482052720834242,-0.010429720957876453,0.01310006273327032,-6.55787070809356E-4,-0.08957767803575101
0.006334625435317256,-0.05204829655691577,-0.04544702215183701,-0.05454254374886117,-0.016387294757569046,0.01310055585072737,0.006690415385002511,-0.07309371982752642
-0.004467835517743795,-0.04865283841784481,-0.0463975827944597,-0.05206849617122207,-0.012511015202853635,0.0050517419642660735,0.02299350026158045,-0.09915269975404394
-0.002909752427885736,-0.061688157647524576,-0.04361950514103363,-0.053171280224244076,-0.0033646576686799665,0.005228480818421405,-0.00804110500702118,-0.11039808131314488
0.007759424601981066,-0.05818812447502401,-0.04954556605975807,-0.05407625484126345,-0.018483526911302013,0.010588624211510729,0.0055708082785819275,-0.10380198527945861
0.010982014848660772,-0.044990482359533616,-0.047572492437389244,-0.051853116858721654,-0.014282713048808354,0.018192076870556247,0.0077860687559869945,-0.0910757579472768
0.011416743037076798,-0.06692513561465997,-0.046416840014359646,-0.05142856171299636,-0.007000606727057681,0.017046450556218232,0.0274057077276897,-0.0915757347008517
0.003359883021489637,-0.06272007872250024,-0.04687939125233989,-0.05887785437495382,-0.0032918904592543537,0.006096775972550748,0.007186463482997744,-0.11341980176048254
0.0040705769934801786,-0.04866654189550047,-0.0417443485653994,-0.050644654312228976,-0.01736697482229563,-0.0017989130808663547,-0.0027716483586632083,-0.10982306155869288
0.0036446730701478777,-0.043654959861011956,-0.0422069674827468,-0.04397215393590572,-0.005480401473367306,0.008618387820445043,-0.0068287957078088015,-0.10339554544357381
0.011078992240215517,-0.05456421513555547,-0.039475953916396696,-0.05446665093685136,-0.004088885156740748,0.00880662548770364,0.00418039676168468,-0.08152181408865021
0.0021343526933862,-0.06817523820806662,-0.04452981836562815,-0.04913286018067995,-0.012880169768131928,0.006900041311965586,-6.69313638614069E-5,-0.11281543538378276
-4.2559268184697355E-4,-0.053778956435651476,-0.04254885360352091,-0.0430295026394172,-0.022253585022941766,-2.6246953620169403E-4,-0.0018808988623600417,-0.11350871253095869
-0.0040935505437320035,-0.05125363847175617,-0.03667419668835712,-0.040979604426127095,-0.0055141998208432545,0.007630619172039971,0.01092296741660382,-0.07838646550746549
-0.0014715609406271818,-0.06503733235114505,-0.039637262021654296,-0.04218872648234139,-0.015676967485558746,0.00221697566550758,0.01703927736508133,-0.12070924624414033
-0.0023938186488139165,-0.07481177755405116,-0.03683162400773498,-0.02957271134136499,-0.024209775443865635,0.002436954706867625,0.01424988766904003,-0.13061971104581224
-0.0041424082604877835,-0.056019073763603586,-0.037249476369156174,-0.03146935892253512,-0.014695501956508566,0.010751819854222524,0.014775394459398884,-0.10975607911071543
0.007048876305546211,-0.052726316704667056,-0.03785857682136834,-0.031542550475957325,-0.021065910618288792,0.0033677303448213553,0.022163406400513005,-0.0883368332077257
-0.004641171130643599,-0.05737724046003504,-0.038166927486331714,-0.02742533414104153,-0.00884135481094693,0.007886774733602366,0.014230971478946284,-0.12410635829287898
-0.004032846019577569,-0.06078115836884944,-0.03645389304805832,-0.026408237561780703,-0.015300431861112712,0.011856299372093131,0.017406725380080836,-0.11817201407873465
0.013842293653266098,-0.055243016770386816,-0.032994886731418066,-0.02033375531247354,-0.006253851026884973,0.019863184297065985,0.01842065896636246,-0.10767771540661428
0.004388842320295801,-0.058268588201242144,-0.030535882851198837,-0.017888641249810055,-0.019585204978160322,0.013715241561132177,0.019112255146002236,-0.09092942947556794
-0.001476343295977686,-0.06342728972075082,-0.0336207919762751,-0.020609241538479005,-0.0031334536491481203,0.02049091739994599,0.01612409677933574,-0.10469392019093252
0.001908405178359914,-0.05449378209756213,-0.02676117389791605,-0.0030167527424768484,-0.023828354395185214,0.011707769603257978,0.021787958338224413,-0.10633394445433127
5.394070876906865E-5,-0.05311482042313086,-0.02853959323580164,-0.006515102404188767,-0.023169014871407736,0.019325595599194553,0.028972163672439454,-0.0891394531729168
0.007042804335837391,-0.05654229605821551,-0.03163238307037011,-0.018147423892753478,-0.003961748150839953,0.020743237445294535,0.02592484034572121,-0.11233022343728678
-0.002980848889326132,-0.07124490183014558,-0.029049302406476015,-0.003671622834974523,-0.011224699454524317,0.01808901846055748,0.01589696447361103,-0.11750677479793555
-0.002747760389808447,-0.05542462003914259,-0.028006311832439897,-0.011178260301826067,-0.02461720301103744,0.003474375492152789,0.037941256427619925,-0.1292163702980196
0.0054163149988137255,-0.06690028513916692,-0.02584854293752499,-0.0076608667508419595,-0.0029558666793392035,0.019563798663374415,0.03126377480571745,-0.10090590929422906
0.006072879333942571,-0.07936165361858899,-0.027185929348171857,-1.3154567366343563E-5,-0.01382399312170634,0.03296431258900158,0.03036724618931416,-0.1371077238393584
0.001348886579499518,-0.06270318272250569,-0.02473202640178726,-0.009020053162653958,-0.009687026882839246,0.013901114119435962,0.03197581557143356,-0.11938303218642195
0.001207973649231865,-0.054330949869616604,-0.01947887245911093,-0.003960761110211752,-0.013450736638567967,0.016342766096015638,0.03710113810335483,-0.1020235919602232
0.001022337339122313,-0.06499479469555797,-0.02733724103262462,-0.009000335716231602,-0.005433849209396168,0.02334253484881917,0.04178874722721538,-0.14455452545063527
0.0041434411702432694,-0.07115340847503283,-0.02577057508004746,-0.0025589135680463546,-0.016358342045888298,0.027933284229966687,0.027913918603144305,-0.13615380035610433
0.0055682737787370274,-0.0656396309780879,-0.029194712316484604,-0.006458911208034927,-0.02939829085069306,0.01869802949149003,0.03207138051563783,-0.12552548919399414
0.003233340041942599,-0.06344199048242738,-0.02125086302822986,-0.002404779251432822,-0.011120850954946578,0.019830361068920343,0.03676478771580886,-0.09943043109314587
0.0035075214679520738,-0.06695410004238055,-0.02935545409354072,-0.0047242218681352085,-0.015500343660888944,0.019306683852820545,0.03751533945119655,-0.12947479217035499
0.005669404580568767,-0.0811133217563086,-0.025063293225595664,-0.008521090405024257,-0.023917174055869746,0.01853966052601018,0.025546704676660353,-0.12564790616331778
0.0045461427375341,-0.05337036194225826,-0.02620124541054823,-0.005651633568365377,-0.01819792975386816,0.03927876884780375,0.029719487414207532,-0.11200760462954043
-9.30094845431194E-5,-0.06823721303289183,-0.024419398655756416,-0.0036365022939737544,-0.01427514251148511,0.022745142096847415,0.042531028303811946,-0.14134304045502957
0.003347092156692154,-0.07035963041378061,-0.026226918188218176,-0.006960903518475525,-0.015817003372686145,0.032564149284434706,0.04826291193252397,-0.11980314094519784
0.005117675343332922,-0.06307442323408319,-0.0234391809730347,0.00274672039595008,-0.016911219418869628,0.02328032310376958,0.0512752824197963,-0.09968167775122719
0.010477866040196543,-0.06041701070280763,-0.028115501838085567,-0.00787255542777331,-0.01236590739627695,0.031038041249281837,0.04965971030701276,-0.12105436570412215
8.468223847886424E-4,-0.06498150343036636,-0.02733423620319245,-0.013944694665061907,-0.008015273178683596,0.03155878770031525,0.05513546318052053,-0.09663390879584066
0.0031660973900793804,-0.06666865234175093,-0.027605724374258823,-0.008309723108573468,-0.015379054669918776,0.0298967567279083,0.06155505024171794,-0.13494302965026378
0.00425321841573172,-0.06444789830267965,-0.025598499990741316,-0.010211910724715095,-0.014312744384926364,0.03264780103373868,0.053636862287613246,-0.11943938155758843
0.005899287563088662,-0.06150298228622142,-0.028809939865230026,-0.017469624285052204,-0.009454232334919785,0.03559125519797814,0.04599041591635279,-0.12392970723337443
-0.004112171298335237,-0.06790065100016948,-0.031808257771369496,-0.020245910294145464,-0.003055949429511335,0.03524713161167766,0.059001283595059587,-0.12494945717697707
0.0022671893804285213,-0.05431821516752956,-0.02505674535405537,-0.014071969662594132,-0.0165726719312464,0.03998751876018161,0.042977224181743615,-0.11080393114371768
0.0037950164065072007,-0.06262647644957064,-0.03016737151571381,-0.013305299750252783,-0.00884777000617593,0.03377075008689897,0.05687649297215261,-0.09771842894756892
0.006475220155056464,-0.057935066474948727,-0.02808423325384757,-0.01920500379230814,-0.0038946778041367446,0.03289607576675475,0.05100550037767803,-0.11802202300054793
0.004358794901871529,-0.06024214467566963,-0.03287402236102462,-0.015280563867239595,-0.009465283042096553,0.033882291539611,0.04177764176673753,-0.11650783712381645
0.0072758025389588156,-0.049174992786004866,-0.029645576930877913,-0.009308910715671645,-0.009920140157205007,0.027849210323003346,0.043821295865937075,-0.10097070697501286
0.006972654107165201,-0.05602019393701223,-0.029940485368164987,-0.01946394144912489,-0.01640988254746167,0.030160391451242118,0.05397863529181403,-0.12439444383506339
0.0038062323716049214,-0.06563859411368989,-0.03291790332127785,-0.02869428552351656,-0.008559407674405259,0.02058005688396876,0.051047227919024094,-0.10505728798854448
0.013425528427547458,-0.058941266429429796,-0.03181817738982245,-0.01668517464505399,-0.012842101189720831,0.031574612688503714,0.03912695191736205,-0.0958750285373257
0.002899900481245022,-0.059866815844646745,-0.033468578754833986,-0.0258045769259177,0.0043740375706563615,0.03445636670527195,0.06642957666389064,-0.11105117496670217
-0.0010655321584659891,-0.05489064132838205,-0.03671349635585269,-0.022300891260037287,-0.01170794524544965,0.02783116044353041,0.04445223678153494,-0.1000781153264281
0.011330348585236565,-0.05791812139428268,-0.03045007835855106,-0.026340688292614902,-0.02567426297528819,0.02379997150101706,0.05223890428655998,-0.11782621696501186
-4.552215951677849E-5,-0.057444669058803986,-0.03228464612013777,-0.02396530494126878,-0.006253876780635399,0.03230625331140283,0.03356404117972532,-0.08717412679543711
0.0028929010765181874,-0.05980301398238188,-0.03629193660551215,-0.03196856912607895,-0.014971370423703265,0.02748542582488133,0.03460594958483662,-0.08207698036233453
0.006481554270525961,-0.06724502415216006,-0.038338699386532386,-0.025898874522454627,-0.004354670241597424,0.029876288716987907,0.031331701895326795,-0.09550663531381079
0.0124637055483859,-0.05666215571419986,-0.03390509053781026,-0.029295201767803525,-0.01926789858520738,0.021344433215127218,0.03487397136509291,-0.1033747122283685
-0.001787031291543022,-0.056149769598409616,-0.04071397730697175,-0.03435854275546836,-0.008262857894471549,0.016884035095075967,0.043601283793991,-0.09253742693935518
-0.00159878004233193,-0.061571174860834334,-0.04069658302434582,-0.03236416016986172,-0.010596826136967578,0.020633116701115246,0.038402358471800416,-0.10631359007783
0.009027416703452619,-0.06154394138283103,-0.04486520510384379,-0.029137281359072245,-0.015845640074404668,0.01449747865523532,0.015942072401614993,-0.10308151094188056
0.005224334750229449,-0.04418273018738467,-0.041792059810747934,-0.029641881391100074,-0.0169409181792874,0.009463377531782457,0.023385563336809283,-0.09027318300492958
1.997291325571E-4,-0.05847964964892676,-0.043803719776522546,-0.03274994488859173,-0.01731094161095833,0.019792091745536415,0.02678197664336148,-0.0984360367341245
0.003472535657314677,-0.06393687216224746,-0.04274748173794287,-0.048998371884623027,-0.01832468482450006,0.009856289618383484,0.014366537519457528,-0.1145673768712838
0.005349590586034333,-0.05970688419377927,-0.04842053164390487,-0.04080541216846776,-0.017155713013101526,0.012166028385983173,0.017930953380953994,-0.08212201520471815
-2.4082983974527445E-5,-0.059939004520643505,-0.050840801191287546,-0.04614022799980723,-0.011669946281420027,0.003778415408003614,0.017691444179152225,-0.080046362314079
8.843911366731927E-4,-0.06318965644171219,-0.04927857959070088,-0.04167717843396785,-0.0049092094441795,0.019253211776069364,0.00275150173424334,-0.10104025721005792
-1.0030293885881169E-4,-0.06459230960967087,-0.052563443219368115,-0.04607031441357714,-0.018354180735448686,0.015155658888758078,0.006047174166837136,-0.12845228683092605
0.0021447548958430113,-0.05421722612900596,-0.05371414611151011,-0.046413670914685075,-0.0069445449906827125,0.015830519720234974,0.01176439072852505,-0.08624254598600416
-0.0026929537039490415,-0.062424060994769,-0.05687691010097118,-0.05223449259829579,-0.0017001914751672994,0.010877685207692623,-0.006581657664338055,-0.1097011822828048
-0.004257090927811193,-0.07038253270375906,-0.05442513802924834,-0.05448862514033211,-0.012585167053590068,0.0041547032223688525,0.003994842972444455,-0.10370405171778312
4.944279680093745E-4,-0.06626324199481491,-0.05320734776583519,-0.049218549541035835,-0.019576779537965973,0.005009725712070814,-0.00434484980246694,-0.12023043411536956
-0.01041818008227209,-0.05989763653950857,-0.053244135054360854,-0.045143127614487195,-0.022284486464865756,0.003863962313300489,0.003839290799833607,-0.11242017397066995
-0.002606481906730516,-0.055929713586630785,-0.052487796419713025,-0.05478979185337497,-0.012219548541048564,0.009059446161407712,0.005407973845299901,-0.08661485350971494
-0.006471496745109148,-0.06449157464392208,-0.054369127345476734,-0.05120518633005449,-0.021108290257804974,-0.010975010583709288,0.01906915487657907,-0.11103913063364086
-0.003686788065471028,-0.061055504814839644,-0.052944361964635464,-0.04324649492212919,-0.023266192923752108,0.0015917910659801694,-0.00520203189209415,-0.11154692577037341
0.0021034842962237596,-0.06535263459064623,-0.050739999957561184,-0.0471629902191076,-0.011216010517430965,-0.002483413386995841,0.007919893718896318,-0.12184320248446613
-4.8032146645571474E-4,-0.07340115464726975,-0.05456648715482108,-0.04800545689051684,-0.012410556875847129,-0.002377419776592544,-0.00666524647067427,-0.10316803173618903
0.0038107429150817116,-0.06618606533138023,-0.05420589524292181,-0.041755604965929984,-0.01426004533085249,-0.0011202791543477306,-0.013302120762382828,-0.1220061771754306
-0.0017889931395830662,-0.07146231674146489,-0.04796748522359589,-0.04149117537061571,-0.022960625647288724,-0.008953583476604382,-0.008468370288818635,-0.09996655461686631
5.8593523049571536E-5,-0.058443588929697886,-0.04902135600769523,-0.04208185253393597,-0.023265962451187255,-0.0035179839262672514,-0.009902836938715963,-0.12430180037591713
0.0013193264162636254,-0.07592366190102022,-0.05114698868250996,-0.03895301762234796,-0.02664941335450112,-6.483561441181392E-4,9.665082307273684E-5,-0.0869007340059138
0.0043832907741900426,-0.07151580248699667,-0.05177696137655639,-0.039855918180932676,-0.016045394543086962,-0.0032807210618420518,-0.0016222533339546013,-0.11391871149411616
-4.892337688394728E-4,-0.06719188434652541,-0.051061016958976774,-0.03951573511195215,-0.024179909519106813,-0.012224866025883416,-0.015815902123589753,-0.09570885831307659
-5.122814532694641E-4,-0.06973466178956804,-0.053073683402069256,-0.03321728479917211,-0.011911379061152626,-0.005401581260082836,-0.0032725108398391654,-0.10953305491538882
-6.867154671450444E-5,-0.07314582342035762,-0.051721136616695605,-0.038039897467077324,-0.020967387125398602,6.096267851207022E-4,6.074057219203044E-4,-0.13395704286299345
-0.0047655791454031225,-0.07186109122896733,-0.05307386622749651,-0.049159541394717586,-0.020382336661431973,5.430202302444922E-4,0.0022123793883006334,-0.13194997233856084
6.240802962981582E-4,-0.06941751401426009,-0.049411707332361623,-0.04138063745527224,-0.03294556921674752,0.0011023684483720737,-5.8448849111113E-4,-0.12036814654038291
-0.008277083952990347,-0.07273675995532625,-0.04813779721652832,-0.03983360105311406,-0.013664439357078518,-0.001310960569024073,0.0049619716515211364,-0.1432114852770832
0.003684549488166648,-0.07719150405628203,-0.051187488221183006,-0.04244547112208554,-0.015590141469158056,-0.001146376159966481,-0.007322180055389414,-0.1361317491541154
3.3547340316781255E-5,-0.07345062582783884,-0.048608911167683726,-0.03830144304567085,-0.02222626685840367,-0.0071856578996399596,0.007063787953225795,-0.15413797062924597
1.1767697442749886E-4,-0.0624516106883923,-0.04925920250319408,-0.042530622168559545,-0.027195452479484374,-0.008158009864836759,-0.012256993895218442,-0.12201365128221814
-0.005190438973468149,-0.06637705891297153,-0.046420049158852644,-0.03418188132705703,-0.01063159982833297,-0.0034893490616303285,-0.011414853680744297,-0.13008413897224788
-0.008302986235287496,-0.08384273045197038,-0.04863383433613242,-0.03648996775641667,-0.019574666645850395,-0.010475275876226165,-0.008620010332121383,-0.1427551600687552
-0.0010286218195964421,-0.07053744359634606,-0.047301624640571055,-0.026652022872182917,-0.02759581290247834,-0.005705947230884827,-0.01388854242846272,-0.12555155078687372
-0.007406002105660365,-0.06859554498419423,-0.04416074538649041,-0.02871169234900058,-0.01686271953563756,-0.004344913637398895,0.009414091531497084,-0.10547524138674595
-0.0031309815804324804,-0.0745751161994441,-0.053474074554039526,-0.03843142993236345,-0.01593058828489244,-0.00919816721707937,-0.0023373896211698153,-0.13181520289029688
-0.011643712729490099,-0.07467732134499909,-0.04742782126098339,-0.03703306727119191,-0.0232988050500375,-0.007729699065477514,-0.0021547369843464954,-0.1650039230706112
-0.0011530308400567026,-0.060915637741379335,-0.04274955447132694,-0.03664716382505973,-0.03370195638187276,-0.003215774727621538,-0.009308193400538288,-0.10328566779191801
-0.007034450609150544,-0.07731356198528698,-0.04817926126167236,-0.03260768058183098,-0.02379107473309426,-0.003309759126355645,0.0061052728003353155,-0.13775317977887935
-0.004379087508486508,-0.08485644648226894,-0.05063924319494569,-0.03695632032317249,-0.02448786652673343,0.0012220138460874626,-0.006482518960831437,-0.10794702710162912
1.8441250969072225E-4,-0.08495235414820897,-0.04938464074007857,-0.033177719424836806,-0.027141515844220386,-0.018872171314293768,-0.0021691185462239908,-0.12931466233267638
-0.009730248443998394,-0.0600298549483762,-0.048708309327605864,-0.042277880907308205,-0.028701278993415895,0.002682005068189585,0.008102920713153591,-0.1284636688593567
-0.007624995315257965,-0.06740006943167998,-0.04984157192081332,-0.03520698375680084,-0.022915853309174613,0.010202588573783008,-3.255917716076979E-4,-0.11663440606491308
