-0.010155860468451247,0.042899040726864256,-0.03415631753971384,-0.030914341096935836,-0.011639532050586592,-0.027649109328132214,-0.018474861446294802,0.2177487522176722
-0.013661851821070062,0.02699175301941965,-0.021589920765799783,-0.02350293594810959,0.043249625962250356,0.01165547400531191,-0.011416684507436985,0.21778061054677755
-0.03160142710420213,0.04769401038176431,-0.03748050532667699,-0.06472515686610464,-0.03270980349862377,-0.035618039762912834,-0.027230799143090206,0.19794987328613659
-0.0720230936423657,0.02581790713054926,-0.08270715896259315,-0.09619459430127975,-0.0924442609242165,-0.1028661786388127,-0.09584183356153342,0.18927019279084098
-0.002778506679950836,0.059996176938611236,-0.012425019216851524,-0.022197953314670265,0.021308751688663335,0.016943688323261354,0.019445985793961083,0.2435253635859978
-0.012247244885119586,0.0610538523640171,-0.03842901050120428,-0.05188967065577154,-6.084324352520765E-4,-0.010427657153280447,-0.007842030818806661,0.26739899981821685
-0.03583379584793674,0.053019752797781955,-0.07282302794987014,-0.08347906833929201,-0.03207658742950215,-0.04846867533036789,-0.07140941789950896,0.2611629367429227
-0.03939062606837277,0.016187402873687,-0.060678636853636905,-0.07574477658269745,-0.04490712753057918,-0.0585744861781496,-0.024624245402944535,0.23625140756833807
0.002280658678873191,0.0684335181030358,-0.019045739788124755,-0.016868837180223993,0.07565754421938362,0.07185002172959974,0.07143339401214269,0.3286478945622413
-0.020293085805495357,0.041224492954205535,-0.016134745322295432,-0.04216753933126373,0.04282800797306886,0.011296453145880587,0.018967789817016738,0.24402821477436068
-0.028079263035453134,0.034923935667688234,-0.05278598248627592,-0.07517779516158075,-0.023467919417685196,-0.034637438844015926,-0.0377134234451753,0.2325755788307357
0.00563892068311049,0.06565067750817156,-0.003988634133732898,-0.003318289370777522,0.06423744599177676,0.030004942327171758,0.06615242132482556,0.18347594024345
0.02787572736236555,0.062205401776460494,0.017229053620111335,0.015208457874633307,0.10310252592561257,0.11057485204362709,0.09801072004776318,0.34662992491684835
0.011125957177699212,0.04759197651212576,0.012931906402307758,-0.029223679028112043,0.08694213712303488,0.058326492375542445,0.04186471423943891,0.2575559893441169
-0.011606806214213412,0.03216150721550114,-0.0224815804202873,-0.04496533974107232,0.011025010491251852,0.02204490132688801,0.007726293377264774,0.23098641197521982
0.048969158561681464,0.09553537968472851,0.0454791092196955,0.046641749623117144,0.14520184748160483,0.11560508025546029,0.12092963442759175,0.38262870240896035
0.03837892163098847,0.04585216999297161,0.02551859472068825,0.02291962159759467,0.1297548889232206,0.10595945457680049,0.10172713744443035,0.33321020268251483
0.008042574309147189,0.05191270672308014,0.0061615389194566855,-0.014442960226341313,0.06009068476258595,0.08779293262502334,0.07504040487590341,0.29497736732961294
0.01348669959805619,0.051689214009944,0.009709565106131546,-0.0019385115942921315,0.05177963336374558,0.06134256268982105,0.11048359165672085,0.23664184621859174
0.04180943274998043,0.07385858731522789,0.06007355810450854,0.053526842012520635,0.14983488251022054,0.14384457937599132,0.1250025313726002,0.3593465067593974
0.027987205451655825,0.04591426974345393,0.0330921859689396,0.009927916894181262,0.12616426878416367,0.11827179404137826,0.13543966342722016,0.41619076649745285
0.007964086577982438,0.03254763460322722,-0.004967062989879331,-0.03902058417765004,0.05899882509442733,0.07309773121438366,0.07446951554308082,0.429350160717926
0.02946708873737621,0.0565295397453573,0.027263759059524537,0.010170991458180335,0.08349347950164639,0.07074860643533747,0.08679068932526797,0.4416850378635351
0.04114719690532845,0.06716477745621285,0.038802390164435915,0.020972962323585594,0.15550724235757624,0.15164605006267776,0.1127220556651708,0.4672830005540334
0.02044007343414103,0.050771907425030946,0.018144146781184315,-0.012758416981139404,0.11316468295266977,0.09836670782135458,0.09086975912209334,0.4391593366536873
-0.0028352159530736255,0.0595428512184427,-0.017506781242836788,-0.04206838783556833,0.046873987316260565,0.04065196448862288,0.04956507573879734,0.5093839951283101
0.03763921716606139,0.09539390039028987,0.037879494644303076,0.008874042545180438,0.15504887670505216,0.09340130187339739,0.14524568547059105,0.5337205561334697
0.038716792540158675,0.07705802500998074,0.027144096811766293,0.008041659828450261,0.165631313419682,0.10000887151252442,0.10666302732814219,0.4495838455243748
0.0025773288503268665,0.06602290632525579,-0.009698085000606345,-0.03648361371075982,0.0793580287534658,0.05213260330355096,0.054908648208137,0.5082656372740636
0.011247096534190409,0.08116916073721303,0.012065024309326208,-0.0197060261604695,0.04849945634266282,0.07330064438981801,0.03781631383669558,0.5453055444172448
0.045030207862113106,0.07202871677934142,0.043497873652127206,0.01729933167032731,0.16647074666224773,0.10264690673351909,0.09873522085777103,0.5252092592231645
0.030684020553819483,0.0905859223079513,0.03071253013463132,1.2533906978509258E-4,0.11535936635833507,0.09013152780775557,0.06912964114536743,0.5349174382673809
-0.002280351807733231,0.0767598292791362,-0.007484804423080852,-0.03126079148956409,0.04838355934018017,0.05052670843397668,0.012524906721009206,0.49604762273434927
0.051579990693095774,0.08971770190510898,0.028093957003996802,0.02490795945174611,0.14064893451074603,0.12508193449246408,0.09172733799508213,0.56797907527129
0.041411959694050995,0.08920523431524378,0.04502855994937564,0.03497062111656192,0.1575524991162424,0.12329379625924863,0.1398286350309275,0.4750784518523701
0.013850992742825299,0.0856107774026699,0.02600432810975218,0.0034601048190684384,0.0898745468245192,0.07820995451257462,0.05640180520728747,0.485931621967077
-0.0025756249837399644,0.10401229128411962,-0.008239894875088279,-0.022298440643809193,0.06183504146509442,0.0431470399021152,0.03910466657266769,0.4387655799186798
0.053562478908980866,0.09379072066187917,0.061986837478527616,0.04886468536218859,0.19349796823319626,0.13343397000577314,0.11905336773232224,0.4223373334633105
0.03687775349462397,0.10712546669984858,0.03667134524212008,0.029536685627243577,0.12877023796153111,0.11435653213583656,0.09707813457537931,0.4468028887507955
0.003791567300530473,0.08546795821581718,-0.008633648479734109,-0.02193547007055296,0.0862991063958404,0.06388965075962193,0.0550546734764131,0.4149817178509895
0.014688742915377018,0.09738130601838532,0.011390605072248802,0.003222460577242594,0.08532225025824336,0.06260652699631883,0.06494734021497746,0.5259747543581456
0.029779024314075767,0.08094861994538723,0.04394018309386826,0.03007129915073218,0.15830488123199793,0.10310280175899657,0.10647135986337056,0.5089857863057135
0.016118723489157778,0.09272959052625229,-0.012907466886906792,-0.013608699372471738,0.09574093839963589,0.07103383746353271,0.08490785001430183,0.5496986196888252
-0.0332586656287081,0.0566387708817544,-0.05364582565538538,-0.07100791477082313,0.035027649761403414,0.011677081593250562,-0.009184154648263797,0.5162714043725523
0.018526315254281653,0.08196985684665994,0.008447654374111987,-0.00321347277789406,0.07524984603009478,0.07586275424132351,0.0643950143729426,0.4895857054417537
0.01753184429103385,0.09285269749429988,0.010645688778570445,-0.022200612051994664,0.10346017902638169,0.08986895820534763,0.06125851013418875,0.5720299007512454
-0.01767576642358023,0.08845123719457648,-0.020387174390855495,-0.06089664048396982,0.027972275159874667,0.03201903388388911,-0.00810343231933731,0.4821417294356394
-0.042081362077255595,0.08174306882062682,-0.04717574254200835,-0.08663370293312775,0.0018963834629353738,-0.05344744733610682,-0.049829085418712935,0.3876590269710117
0.007253633836994968,0.10203627469011065,6.291219913103219E-4,-0.031953686175003625,0.07908074065489644,0.06567746371038219,0.05424851525413568,0.42794901965350607
-0.02441792270854904,0.10311958837883328,-0.038435080757708254,-0.068664841393201,0.02995503092308299,0.02594194164029525,0.005610631537695527,0.46599018778456114
-0.06076386636802813,0.09395035014197631,-0.07850595203985974,-0.1221098968699021,-0.04557710054119081,-0.03159406107611657,-0.061826884189754135,0.37701797402658344
-0.031589698674457836,0.11170315167505515,-0.044347305444102494,-0.0764750575580808,5.346926276483463E-4,-0.005861082973016662,-0.0045899919118806785,0.45742591745107053
-0.012802861289667096,0.14243566001690933,-0.027195386628618878,-0.049620097910494126,0.061406053332374644,0.04582086115564807,0.0164634987470907,0.39177974776392444
-0.04247525127498032,0.09444769244387119,-0.05950278671508279,-0.08239846984238366,0.007569171490520509,-0.03607227492011369,-0.030958920506994975,0.41410353375715503
-0.07617896603373409,0.06071207185253114,-0.09300018091283306,-0.12800494730181847,-0.07911998717867723,-0.08533907076421554,-0.13471779992144534,0.4149528442380652
-0.008456860032521399,0.09814341936648935,-0.007431097968873162,-0.034793260456557014,0.05922590868587502,0.020244669790914518,0.0025710437273001076,0.4350933594319013
-0.05041301885414404,0.10198881619849223,-0.046374480358435145,-0.08160017758903704,0.011356587381540316,-0.017614500257096127,-0.022163155445870296,0.4064632205059829
-0.05863385900776481,0.09159879816959415,-0.07487783123604055,-0.10813985685957345,-0.018405445192883844,-0.07653426165843966,-0.09377085496520096,0.452563497881838
-0.06516248208399349,0.07345097685493403,-0.0812810622650665,-0.09902918186488949,-0.03915246263467188,-0.058739196179994485,-0.0999114015371917,0.3931354153657247
-0.02589857896259856,0.0997697574682786,-0.015753906500099706,-0.0478903699818785,0.06476132964237773,-0.0014306571676175137,8.670665847221315E-5,0.46616323092809464
-0.06135477931349411,0.10809377888252068,-0.05733064876900004,-0.0834472453830685,-0.010410497913088387,-0.036104149279818545,-0.049403085896949875,0.513332534849541
-0.0959319652042335,0.08611064380452249,-0.11193095584840373,-0.13375276324151325,-0.07415585053847415,-0.09940669529752338,-0.13925622282898445,0.4853082378781416
-0.04345014430666207,0.09320940027633162,-0.033473393526661205,-0.0638687200444178,0.02215433328834074,0.010729332644305027,-0.04252012677350405,0.46913222280658273
-0.05308722363854952,0.09399275441903697,-0.03858343510717635,-0.07752768504553222,0.0274094202642815,-0.019911661144190893,-0.037459368944335415,0.42484889777080737
-0.08710643531948896,0.06459130151502093,-0.08312343680093119,-0.11436937960488089,-0.03905938107551489,-0.057827020071314315,-0.07788380359512738,0.45543658895847444
-0.08845253126231027,0.07911198678216877,-0.09472526591001892,-0.12362052965868592,-0.06227624391841995,-0.10197520246694522,-0.1092086527989146,0.4127381647739964
-0.033553083573595543,0.120301128171518,-0.0318674220012243,-0.06913018880203146,0.02926262256469806,-0.006174972109257416,-0.008743436682963264,0.4576318681363168
-0.059779829359000294,0.06862731221635063,-0.06151759300725429,-0.10916187778736107,-0.01693121817526185,-0.02342490732112983,-0.05375183954063981,0.44133090862837204
-0.09795094249535538,0.07039026029944684,-0.10375088129408218,-0.14608699388317486,-0.09664105224841854,-0.1147595730093611,-0.11735041004925573,0.5108240632538674
-0.0636400970873565,0.10366913222096086,-0.05379304747598155,-0.07075392699769034,-0.01241308199816178,-0.047700680618406065,-0.045404552736158725,0.4656241727887193
-0.05850625137128232,0.08622896048374935,-0.042787393685329835,-0.09274668914155168,-0.01676829184991819,-0.03057322854961623,-0.04948311796511207,0.48007292341843033
-0.06910362869777632,0.11231709227497663,-0.06986245012354347,-0.10240827452450606,-0.06736745058128431,-0.05254959814087248,-0.09297969924332516,0.5031514692673813
-0.07817348350381845,0.10710910680282315,-0.08044511613615808,-0.11581545563732866,-0.0627217367758555,-0.09772499888812543,-0.08552022578261961,0.37865377254117316
-0.0379147415171342,0.10441318182914346,-0.01759084853497551,-0.049198355192634075,0.01735634024446267,0.016313035912329382,0.0032766617247674025,0.5060262812848789
-0.05899145775755126,0.09393580398645784,-0.043159820320336495,-0.06517964956037842,0.003446898711868089,-0.03446331244932479,-0.04501340727069358,0.44037304468733673
-0.07528852318786575,0.12292707957076204,-0.079601147668333,-0.09855524761382677,-0.07497851142893466,-0.07685493360775068,-0.10517642843445665,0.3875749699423061
-0.025059156606594878,0.08695526923524853,0.0012891966719806745,-0.001598010295971604,0.013834004542560726,-0.003519945141108412,-0.015419483987655655,0.3442363016156183
-0.015250539237634397,0.10321695664067675,0.008270108606223847,-0.009826630218665103,0.04875778647931561,0.006315530414118406,0.038778274272989494,0.5080760012077286
-0.0353650563961023,0.08174619674275943,-0.01621052032813089,-0.02753373783224588,-0.00521479849510892,-0.022812462859801083,-0.06343023539321292,0.4272512099021951
-0.023429423232704905,0.08839223513939548,0.004392716681206513,-0.015708306822441922,0.005722334277160582,-0.009532069305523104,-0.0284915911275252,0.4586633313571371
0.01821474640042378,0.09176731254466594,0.0637098669615804,0.03118340021960083,0.10414732681146492,0.06821857451664874,0.049844652083724864,0.47763416656888436
0.0038660488321381435,0.08999425393359713,0.030625923841697104,0.012086474472581467,0.068575863468376,0.048646925630057646,0.027959227017403387,0.4058136918890887
-0.013753300444683408,0.07969279272869524,0.019829616277775988,-0.007704292447788398,0.043408652475673534,0.02078226495554559,0.0012789789927243195,0.47049856386650546
0.06162159663520891,0.11697266101536138,0.07602473479510104,0.04265514953835487,0.12296469540481356,0.09282532773017736,0.1142456487598688,0.5322787062357034
0.033511629667336784,0.09557483113589081,0.06395783514735864,0.05461138784099198,0.14133142415890262,0.1102363044837672,0.07504176125248006,0.4887335828034461
0.0253850417935683,0.11577018712573939,0.04165869761551315,0.015352394234946283,0.06694269059652938,0.06652832015674306,0.031208052872749466,0.48134626456382457
0.02961308592009772,0.10841260920774316,0.05876317224206789,0.050672122609585826,0.09526725356159152,0.1044297919464675,0.0840288131972137,0.4767454710077137
0.048413553962665515,0.1186490262897297,0.07978347504216678,0.07084911405096399,0.14220257772331446,0.1264332964308157,0.12464416292709535,0.3807476038729865
0.04130637772919667,0.10669817391318626,0.05083526962728237,0.051055847374709,0.13217073787553188,0.09750400835983151,0.09164474175619547,0.6065324197152536
0.01735854631705984,0.09742063041601116,0.04441935075127726,0.023414351969907446,0.07260339258127245,0.04424960677029684,0.03254589933337815,0.49986256844483107
0.05296342997882958,0.12210966070389807,0.08445035673996042,0.07861637607785246,0.15924735003638335,0.13580570069947984,0.11554925422326139,0.5719586743896563
0.043390936574434144,0.11319266218981014,0.07227874125519312,0.06385950919200262,0.15296285470245452,0.14267509528453898,0.11667587992640883,0.5013700492595737
0.028618631774300077,0.08545421014074418,0.0655665630132892,0.0353120930582762,0.1343670463367464,0.08216443785167604,0.08556374157787172,0.5212941211340539
0.04003320798749872,0.10893702238065575,0.055418821074905866,0.05740346579122581,0.138618565404057,0.10983085286941763,0.10781451236115173,0.4605185702722993
0.059031961508047195,0.12495882357484672,0.09258244735356563,0.07583976970030376,0.20271422511281142,0.16385097125440407,0.14166027292742117,0.5264069437040125
0.051323826751335164,0.10342459506374023,0.08096707065108143,0.03464025202194628,0.1604303482650124,0.12653353914607118,0.13458949865252404,0.5251895983255805
0.026889523637673433,0.11095022923531309,0.0377332848937789,0.003158359560641387,0.12303355764677433,0.07254842019001496,0.06504255119625064,0.4359325313542129
0.06736506819143215,0.1013925376830264,0.0951720641704442,0.0602677550498183,0.18163041662745297,0.161689365220414,0.13413028506581987,0.5530450311739722
0.06862851012156924,0.08020564070890256,0.08795563506579274,0.06628848786570143,0.21698862613116995,0.15984096028986655,0.15653312315921028,0.4797150675182019
0.06770212001346623,0.08585132930535452,0.04267191060421738,0.04405549047045239,0.19753876322664607,0.1252606938212011,0.12199463910555011,0.5013435778452501
0.014706927630408448,0.08946384561765801,0.02680014045583068,0.002276351860015534,0.11430279348679263,0.08540137264141172,0.06009135714593111,0.45992658587679514
0.0661461758545417,0.12052033415362101,0.08603191132137869,0.07072558515132177,0.20959980985661117,0.17838227452816197,0.13971406729041488,0.5650587641165683
0.06300542707568624,0.09356140075889452,0.08601156061418261,0.05988151377766499,0.20386433523513786,0.16770481749681868,0.16486753846776778,0.5495574887123992
0.04125015827027197,0.12112409020692949,0.05777594101153125,0.022667578655615195,0.1356723228359672,0.11600289541973945,0.12620977711584974,0.5187978299502959
0.014148011900011264,0.09396785742763847,0.03249902783657838,-0.014102629481170581,0.09398758763922807,0.03563154780782971,0.033091328185076645,0.5317180343805796
0.05942256738896396,0.08611881844700622,0.07397265475033896,0.05258691393927573,0.21080080876354582,0.14522744469602594,0.14292113991676594,0.44414927735517423
0.06621790480585225,0.10406714325131144,0.06925083954036933,0.035266652668205015,0.19381928859281106,0.12750598353023507,0.11942283226836957,0.5398467239364361
0.028542864151338172,0.07960748742142687,0.02013090964495963,-0.005780799231544304,0.15058153375261588,0.08831855095367903,0.07034627456933744,0.4220558049392377
-9.582676581408364E-4,0.1179752551574568,-0.013756895366431363,-0.03884316131911951,0.06336606451632752,0.017144297397436167,0.0043288091758016565,0.40478743695318165
0.03585314000499598,0.08933758310359306,0.05454484823709184,0.032229374134380165,0.17852765180087157,0.10804901439707437,0.07605904050845377,0.4604591841417099
0.029383019986993147,0.09079468897813261,0.033357325472643445,0.0010625590784429997,0.15380309634070202,0.08204171751751688,0.058304475566665306,0.5099203762775677
0.009231372658958946,0.08363402265974534,-0.0014083205445471342,-0.027313856400439478,0.08812210794979132,0.041738660550298325,0.00478633616485619,0.4237369403972491
-0.010971678097620011,0.09720775942249733,-0.015805030042985894,-0.05178342085356931,0.05751568151351494,0.007678985007426002,-0.028335995671746862,0.4113306338510751
0.027631659308732112,0.11945655046982781,0.03755368253794276,-0.011490674322016822,0.13758361671717487,0.06940038683064627,0.0629624791998186,0.4520823561716496
0.007466379495601498,0.07599116119116403,0.022867732907664397,-0.01451378479728597,0.13077992763030052,0.020694405894179688,-0.0025981579931404417,0.4133671794339562
-0.01832080231994957,0.07562845906519658,-0.03608259165524717,-0.06857683244631352,0.05899089703482987,0.004588485200210234,-0.06221722961935545,0.41959499674076045
-0.014880851474402778,0.09137054580224732,-0.01630242987887677,-0.053471894367571604,0.0393095322305103,-0.005543799987986823,-0.039804388463393306,0.4832777186104458
0.01604299175665792,0.093666249453004,0.0287872841785655,-0.028838878084907302,0.12709521272745375,0.05705677525101362,0.02780817022621289,0.4684472633309126
0.008063778980118052,0.09319259543003705,-0.0022679954961534916,-0.04051926360200959,0.09193309329300978,0.03842720961388061,-0.004915034380706056,0.5026445524291152
-0.042834913466689176,0.08309895411177029,-0.03698948678945309,-0.10445757013943578,0.013012868579466099,-0.03256476376261811,-0.08723299388375622,0.3207103972179435
-0.005555461997571223,0.10178807102785623,-0.01754050794031995,-0.056333289685401466,0.07676948309708219,0.020902738413771178,-0.012014014281236753,0.48372401149864985
0.007759819024685924,0.09770796273818672,0.00492476787867676,-0.04158715353960082,0.13655197687675444,0.04324972988607709,-0.005202522761398133,0.42931642510618473
-0.02123564971992572,0.10161810472390986,-0.032224392558519936,-0.06809389112837085,0.06834978014699998,-0.006659539848852106,-0.0045841037060487325,0.47296478526848296
-0.04824431140692817,0.0931810560013221,-0.07266579341058209,-0.1058728849048509,0.02191706958697775,-0.06659457576877642,-0.10064701894408308,0.4301443116532641
-0.0012593430615997117,0.08437139935804987,3.624731930197316E-4,-0.06105846443425913,0.10796565307082331,0.020614771575644918,-0.022111005229527823,0.40412289338856977
-0.013080234724260112,0.09646918692792276,-0.029615757737832073,-0.060287164361173345,0.11198097426894217,0.018181963323388013,-0.03700067192347133,0.48407263018072344
-0.045694814974002344,0.0730730153986893,-0.06120390054569889,-0.1068043442154634,0.03845808674621895,-0.033445698663828974,-0.06287865978083895,0.4538871064646464
-0.05546356690106172,0.0748012810174252,-0.08324048000944188,-0.12500100229100286,-0.004984660174336008,-0.07677351260784943,-0.12461285366462749,0.46322071128081044
-0.02011924026745732,0.07779738684876102,-0.02308220466698551,-0.08351373472719788,0.07435381454094511,0.008394947100747261,-0.007692975762090354,0.4084517027044832
-0.03934244870473482,0.10798410515729207,-0.06652780637997288,-0.10708384406272584,0.026718241878683654,-0.04378224754215679,-0.07048300226229312,0.42739779974656206
-0.06479266288030347,0.07618221268284948,-0.0907957049680859,-0.1497868448879335,-0.058431024207094034,-0.11644484031544475,-0.14287256635223292,0.444951190688903
-0.0524154353817905,0.06862792074378057,-0.07264696046207413,-0.11281270706159802,0.003344280681738951,-0.069807269387721,-0.09609788568412361,0.43011373198768826
-0.05184462476883043,0.09534775873416035,-0.06864065933491569,-0.1143455601671281,0.025699732378963717,-0.04329065461068378,-0.09699546037326368,0.46022595040022685
-0.05921760674012668,0.07849940149402398,-0.08188561494535347,-0.1395209098231952,0.002821227701483106,-0.09048870864178743,-0.12486647970598741,0.4709746001040004
-0.08470077416960828,0.02691869807525613,-0.11176434085558318,-0.17840063131281847,-0.06569029074118753,-0.15292256688621797,-0.18119478337609068,0.35783783047581597
-0.02984560157257672,0.09856850975965824,-0.06347839400815014,-0.11006250191433653,0.06830595927284351,-0.03781480328474533,-0.10704545789162072,0.38275844677236187
-0.06155931786020231,0.05951196497091675,-0.09540698518729346,-0.15117069432937902,-0.020656136966135007,-0.08860006618407282,-0.13946520301737464,0.44604144068743923
-0.08993675405260075,0.07793188271128429,-0.1300075066910658,-0.19936031522139688,-0.06744651754686867,-0.14526673686310723,-0.1750372216314275,0.4992889218318887
-0.06043410771559767,0.08584683278798486,-0.0790611329774496,-0.14226605308097023,0.01921769666318763,-0.07404641719182103,-0.11291144915026645,0.4415595102559773
-0.04448551196651445,0.07173152093852227,-0.07994487741625314,-0.12803322893527577,0.022899564238041053,-0.06387601846721119,-0.0945151250348665,0.5756859736192794
-0.0781927437453454,0.07787571041373695,-0.11633530192605634,-0.16701134104470458,-0.009551472535228502,-0.10824102082182147,-0.1574541190100629,0.4280665219939345
-0.09221627947718172,0.09262286108086382,-0.13197852210597533,-0.17493416799380837,-0.07098060987211066,-0.11630811481241804,-0.16600449765340897,0.3552679251457297
-0.05310642582181804,0.08931510138686119,-0.07819306530578007,-0.12120807172033143,0.057965635382082575,-0.04294288502432084,-0.07539570338164925,0.43365617243378834
-0.06811267868555688,0.08561407710548272,-0.09062164076514213,-0.1375636582309567,-0.006531342110062156,-0.08075301455458289,-0.09972123340137126,0.4142515524520091
-0.08592145884681401,0.07959044795099621,-0.12030753384160428,-0.18361376026066428,-0.06658850591140272,-0.1378655947710719,-0.17342405535296984,0.3992255765004114
-0.055965781053845386,0.089231419160767,-0.07529177397682416,-0.10906837745175116,0.027925296967161978,-0.044915399443398986,-0.08275542030799271,0.4478112540776011
-0.0537456866332041,0.09317422821216922,-0.08021328810880314,-0.1212776372835055,0.02973995581217257,-0.06011145282571495,-0.10437558859364751,0.47297169488120827
-0.08355961361882991,0.08386648422234276,-0.1204164806587144,-0.17081184071647137,-0.023142561610532224,-0.10583341908993207,-0.16409813669221013,0.3801751850467384
-0.09888749024857317,0.0715180508296089,-0.12475032107450329,-0.16625090134146184,-0.03751155790454799,-0.11322681487126104,-0.1419217193724072,0.35248852748069404
-0.045771294915626225,0.09134501630816128,-0.06932319193523825,-0.11260774555536987,0.04291662788934466,-0.07369596353546184,-0.08292781329015358,0.44528186420226656
-0.06518895477610946,0.0943688799739279,-0.10246677658101055,-0.15948308408597262,0.0057763849698214435,-0.07713429578207828,-0.1196864002651089,0.3931423933327691
-0.09026531722764666,0.06734957435081323,-0.13496948409474155,-0.1876651106456142,-0.050743000565784874,-0.13989990109119863,-0.18367185643302644,0.41396080837908333
-0.051195871568184136,0.10250856758463843,-0.0821971960143104,-0.1365634413155017,0.03138837680211385,-0.05392316415719908,-0.08961069319195845,0.4618838235850322
-0.07120449654280937,0.06683822268339087,-0.10232366304989332,-0.1537171027399848,0.024117625667791055,-0.08095724056682418,-0.12511631971913903,0.4315887709651551
-0.08425228788079094,0.07622994774884821,-0.13075022662403116,-0.18112256332917923,-0.039534398699338946,-0.10656469613093299,-0.1784901622160538,0.40664065994062093
-0.07876477219177275,0.06063816300667534,-0.10935068659284607,-0.1380235697459464,-0.0029373171050207777,-0.06928954375387762,-0.12075357924897581,0.3672790277714209
-0.045419110710493496,0.10368489028593736,-0.07870899249507872,-0.12934241620125003,0.03333031920470129,-0.032040043444497575,-0.10571842711052111,0.4093117096798627
-0.07843750293483041,0.08831681508116933,-0.10265886792991716,-0.1287978074921708,-0.022789428305914024,-0.0887133761609149,-0.13795346372719328,0.44250627055174624
-0.09661972498545297,0.05691928431502663,-0.1170587477662866,-0.14923191236153993,-0.012894668233623816,-0.10455388645202865,-0.15870727091988346,0.3784550307576096
-0.05797608718477353,0.06287429956623981,-0.06759961861654913,-0.09486161119715927,0.07904352258442543,-0.03238188802925973,-0.0605685745482098,0.49864384177362775
-0.05395200673444222,0.08696780620526112,-0.09695279548474557,-0.1062802574994946,0.048889415361799776,-0.05009102837851344,-0.10156321858715883,0.5469342855088699
-0.07717019670025023,0.04069166884279895,-0.12901771919534397,-0.15050088507362025,-0.011358722016986254,-0.09172168576612885,-0.13257270350989808,0.38302827434986764
-0.032060891356391834,0.10168163824775794,-0.0583348088790526,-0.07687288705830855,0.06673743311911787,-0.004252520781880022,-0.03338542598119148,0.4419253532412499
-0.03419090794413149,0.10801864801259965,-0.06941484485472389,-0.0843107169486238,0.06658253905231988,-0.002126653174502769,-0.05456280725265888,0.4892318674340338
-0.0647443378224846,0.09218580634453273,-0.08950121996293801,-0.1318463337916524,0.015802877261454046,-0.046730660177140296,-0.07347638388361305,0.5715506919270047
-0.043141083553572296,0.10306712903527888,-0.07491163338107705,-0.09447319250064518,0.030931542532160204,-0.03874112061213949,-0.050131882953208376,0.5062238815751937
-0.018480064460456795,0.09946297106102331,-0.03483653703347639,-0.0693250904707216,0.10638741905356584,-4.8799448321549047E-4,-0.013976708545573705,0.4710563333873161
-0.040415379934959327,0.08945356590984838,-0.07518693696692103,-0.09508651211283595,0.04034164403651715,-0.026346565827698294,-0.05580314350917546,0.6250672782225397
-0.0717963860977464,0.08791624019284647,-0.10566188983693074,-0.12179960612593395,0.002493529262712277,-0.05889101017451213,-0.06978723115276549,0.5590333756463055
-0.04121416378246651,0.09255112533241149,-0.06181258203481577,-0.0759739798162605,0.1154144857789316,0.03966993548276042,-0.037040335824501384,0.4825656250504404
-0.021049741766574877,0.07122123289590604,-0.0766950682294794,-0.09823481066926786,0.06440688566991763,-0.012731348241509285,-0.04928330221052228,0.45686623092335243
-0.07420130229445485,0.08422424926574566,-0.11284926231251625,-0.12801944958812292,0.032128319450924196,-0.0573482214749436,-0.07716027323009438,0.44195761641926956
-0.03052036696555869,0.07836030271109007,-0.05124940905811146,-0.09095992995676339,0.05939297351861048,-5.079194301603977E-4,-0.037715405022530804,0.42626915199432347
-0.026734791315485628,0.07244809894271681,-0.07863149701643064,-0.09924534504362378,0.0747817052023544,-0.008401254069425284,-0.03671197893177179,0.446396897137445
-0.05359862835837166,0.08897207110792642,-0.08635241859974047,-0.1224670265187134,0.040437972763373506,-0.03141482798861503,-0.07679548369157049,0.4269123015966333
-0.057005644206005054,0.09217220407039359,-0.08469169785383976,-0.12164134894606277,0.04608149895298131,-0.020538199700720225,-0.06374440932782086,0.45410099176505736
-0.026221872643085585,0.07303021697779466,-0.05376792350214524,-0.10953538712174185,0.11706669403984539,0.012673300005594098,0.01552819783620566,0.5044965505391946
-0.054590224380167265,0.07768427564154437,-0.07120287906214043,-0.1025117474798933,0.05689919398170056,-0.018466371559036642,-0.07767355666540736,0.48808186872680187
-0.07195913548215098,0.05760284444846808,-0.09285804503197254,-0.15231755053545812,-0.0028942419272825785,-0.06706353042092154,-0.10583634761843543,0.4893623362057084
-0.018855032430578893,0.08519386579628993,-0.03668077752624113,-0.09469804883389295,0.104177364652741,0.023613090153639545,-0.011011897891078249,0.4175029825794384
-0.04462031452052311,0.0735254766378758,-0.059248682468968444,-0.10204264141901803,0.0883318982096621,-2.341565853517611E-4,-0.01012169527524211,0.5314969745196377
-0.06545239771969932,0.04975743889687679,-0.08270448275062423,-0.1450786162546151,0.05268837897728898,-0.01823023625520779,-0.08025450281164569,0.5228969997094697
-0.04369174288511139,0.09416665213893317,-0.07676068173083352,-0.10658659899913883,0.08244979115788062,0.011224256513819787,-0.048373596101570965,0.5120175139745295
-0.02969933332603546,0.09856299105003882,-0.04128258583919542,-0.08293618167483531,0.09108090666230541,0.056854218535959344,0.021551338799198447,0.515423079308594
-0.04946320521620127,0.09741357346597887,-0.05806965712752855,-0.11261865617440991,0.10282789659334651,0.016761006442894848,-0.044629453817449365,0.4545652896709582
-0.06017848074086523,0.07146909952153274,-0.09069361758392123,-0.1484106279964443,0.047900737811715485,-0.018824136182458623,-0.04719470109800922,0.5098098258888007
-0.03422480189972493,0.09298632368625068,-0.032257049850035684,-0.09458331933431387,0.11571811604098114,0.07966859770405174,0.019255617609754586,0.5431937982491704
-0.03741841158312584,0.0720922315091909,-0.06167073512103442,-0.12547837675976223,0.0836552163418764,0.015066700798601344,-0.01588399296673534,0.5619116201502077
-0.06852078808401306,0.0984555103131288,-0.09501413068548942,-0.15569807870637115,0.028135324724371524,-0.02150353479521004,-0.06501058549589574,0.45349433114162224
-0.03408750781592598,0.07391050414034747,-0.05577810280882338,-0.10082245711868981,0.07750086163743346,0.03372692218285526,-0.021115894027391367,0.4610556008786302
-0.04604475403189106,0.05853102232877275,-0.06675372252970445,-0.11622595805918104,0.07155227376664154,0.011370555361427729,-0.015506474055515515,0.5916007475675626
-0.06544114033932848,0.07042969669636429,-0.09556415637681248,-0.1391640531491538,0.053272932631737734,-0.02013763689130409,-0.05116989683831992,0.47417491483471175
-0.07530577926250832,0.0902049509678343,-0.08174842808103189,-0.1414059723989347,0.022940634392414904,-0.024895937619188693,-0.08717649642155967,0.5417891182123284
-0.05529994793772319,0.10310424854739875,-0.06512520633726943,-0.1153523327868321,0.07393955118246083,0.028008459514063222,-0.026503923403238337,0.46684801364192396
-0.07371847230665718,0.06853646399587851,-0.09929667824614853,-0.12367413339712736,0.04545619211176195,-0.012001559476983857,-0.037102457663201575,0.4978256373750275
-0.0992650147206612,0.06822479506865392,-0.10135149237665748,-0.16244173025019706,-0.042313064734352084,-0.04516321490039808,-0.11379393757548864,0.5022967769125739
-0.03841697612223751,0.06619083873941875,-0.05073496795118187,-0.0850741351607285,0.08331322666032742,0.0554362008485949,0.00871574162440606,0.5155072024309475
-0.05996256734526922,0.07997626259412569,-0.0691494234029282,-0.11914531477983163,0.05516196577812387,-0.009304904284186167,-0.014567001355766543,0.46852780606007516
-0.08220637783335923,0.08004523497172447,-0.11557283249093576,-0.1578423732300493,0.01572903775784478,-0.029897179500367268,-0.10183926344287436,0.5207345808854561
-0.06052721685562046,0.08479049350302778,-0.052977231314568454,-0.11282681625933715,0.05130926041307371,-0.011550500084140386,-0.023361074047228956,0.468024948141094
-0.045189524058845895,0.08263366960389637,-0.06686806554017032,-0.0997375028016572,0.06961924366980977,0.02052372829047597,-0.012115043438512677,0.5331346915043028
-0.08413851900328047,0.06755561847959125,-0.08051751511999151,-0.13462639737966442,0.03252598851656339,-0.022469172011017037,-0.05607328692514558,0.5305477088138666
-0.08950185904989949,0.08454787035226244,-0.08899347829867493,-0.13758284722155376,-0.02445426242838317,-0.04902018298882659,-0.08384811146576648,0.5419689174570946
-0.040889748917396315,0.06015661570018274,-0.048274843638736534,-0.10106072935714806,0.08313346617195974,0.05766619611540773,-0.008368656598619753,0.45146348551669435
-0.0727856022575566,0.08642229211617353,-0.07030780451033755,-0.117436530825896,0.04517959760369522,0.005549035083371626,-0.035973948023703795,0.5510700904916919
-0.10027725852081153,0.06214603673985099,-0.11846550217356534,-0.15020839567476002,-0.03032496348550698,-0.07261457224510294,-0.09322279994254426,0.4162730284969708
-0.0558124948043715,0.0641090093784851,-0.06434595358656926,-0.09991421896359676,0.05792533901502498,0.01953341156610334,-0.026138643877862407,0.5883721470290801
-0.08100318298798381,0.06711387023419285,-0.09052827273647121,-0.12375034476162043,0.014832189207554861,8.794549908318072E-4,-0.019510086901865106,0.39929828906188164
-0.08699028167022622,0.07630278622335715,-0.10666460794939814,-0.12807857009563922,-0.0077116325703257774,-0.05761535498425742,-0.09462816530322482,0.46053186210557906
-0.0706602689039359,0.043876706093521095,-0.08990186224961451,-0.13128967686839704,-0.010767957351038134,-0.0373686401462705,-0.0877969471346078,0.4289277642851263
-0.07065545677057995,0.07991784163531865,-0.07761218238220104,-0.10805568101476341,0.020112554688417897,-0.018225563875535592,-0.032832450465428493,0.4905356576631574
-0.07278568154282265,0.060496381308345976,-0.0972853882837362,-0.12361419247663448,0.022738224095012853,-0.041644402811977524,-0.11583246972405681,0.5305030051279144
-0.0969072672922123,0.06616489148755603,-0.10896076551673486,-0.13700329818311105,-0.04353374809933082,-0.07543300062881457,-0.1132979426348711,0.5068145986774364
-0.058319697206704726,0.07645163156677195,-0.059764621059680986,-0.09624737573515044,0.06923684753251881,0.01615714846869445,-0.0362828756201959,0.450553370124847
-0.06538538890213028,0.06388463911290819,-0.0887840253615429,-0.11415530693914455,0.020740596484444564,-0.035200105280127014,-0.07437491875040483,0.5656404514015967
-0.10662632096715235,0.0777826465646285,-0.11417144060509168,-0.16834915945855494,-0.022042393254068496,-0.09081090704336561,-0.10598535711332865,0.40828957307065106
-0.052806608692251775,0.09248612804437592,-0.06182850925679058,-0.08925312308491455,0.061471985260405156,0.009654410441310216,-0.03325628350198687,0.4354429107611848
-0.05338693641144755,0.07567014688417782,-0.06301960784546973,-0.09067165125903151,0.07184368877721437,-0.0010601400983886247,-0.015183291903877925,0.4808428531384732
-0.07885668217068341,0.08357101538088646,-0.09232126826351494,-0.1298116630196683,0.009265786445797522,-0.03321681070867877,-0.06488464266717034,0.4436884592778588
-0.06423973416762176,0.07183767147800595,-0.07745953388479707,-0.09119346024904967,0.013290836823121413,0.010909342795706052,-0.04643445413359429,0.5311511037697023
-0.03448847129728736,0.06375138567092703,-0.03494689354387187,-0.07233457319281639,0.0745740848508403,0.04233375212168633,0.012976214717555822,0.537310806501916
-0.05134819415458893,0.0802715010590204,-0.08049680734516716,-0.09971435899527045,0.050521659198787205,0.003506283942445537,-0.024444488394740678,0.44307147617154363
-0.0666392976850606,0.08516259156813091,-0.09076640293310553,-0.1187083847405208,-0.0029076245171028264,-0.024075707827906946,-0.057959482675914296,0.389489358742268
-0.02878318956924527,0.07134977436041279,-0.02931468937678399,-0.05562493511730046,0.11366970595230946,0.05647317388731363,0.04280247516084772,0.5191878049619786
-0.04938645307140052,0.05752968510621903,-0.07032987133073274,-0.08840200257434294,0.04654872911601529,0.02199671091292059,-0.013877064164971552,0.43373718820072654
-0.0721975378787245,0.08241265234994752,-0.09311161645345746,-0.1245840896192404,0.02627639561815818,-0.0030140559169435296,-0.03932540001050003,0.4508485576494399
-0.04400958595700681,0.07296292983717115,-0.053087425623152884,-0.083176967054569,0.07667068377412718,0.05068091711607096,0.016559876401398988,0.5191720490935887
-0.04468286145587598,0.08661607289370435,-0.04388657698565089,-0.08818994441962334,0.06550795313878896,0.02448424226061286,0.02407655706306747,0.4852195655224813
-0.06757833167880879,0.08278516116842993,-0.07265749643229136,-0.10839205328781523,0.05161273969094475,-0.012843893908947863,-0.01481462683151769,0.4494236645210225
-0.07450971206898922,0.1008138013742438,-0.08889503227561851,-0.13171210914778553,0.012136474903030622,0.013869058857888247,-0.0441502872883539,0.4430792572509623
-0.0355596492353868,0.08616693331082106,-0.054281283088071564,-0.06908692702013325,0.11375042242929781,0.07446281357759353,0.04470626555076006,0.5154104713123943
-0.06518315004473646,0.07909232888725828,-0.07811379188062385,-0.09019679038622364,0.07832878835432296,0.028681831219140676,0.013072011021247268,0.4720667357823831
-0.0876819288529435,0.06710183903916558,-0.11261650733604373,-0.1336303339097928,0.014431341188423982,-0.011860560794177652,-0.07136795734785786,0.4482453910702193
-0.02944356380262789,0.10096932543765914,-0.039131439042971984,-0.08125352380964664,0.0685081439620536,0.05931566834189567,0.03811671257420379,0.429995304765004
-0.038674051429829895,0.081868339684235,-0.05537834645652742,-0.07904258837739407,0.10051062883342063,0.09422325036827907,0.023761160492685895,0.4553995873771124
-0.07171211393244196,0.08154230340134355,-0.09156667391718122,-0.12006929583341447,0.05993152560451596,0.010071214949287432,-0.040774031277713986,0.4453087277412443
-0.055827108750624105,0.08388904335983402,-0.05953790772593918,-0.09151653637772106,0.06115624424339674,0.04403410986296172,0.009340684269905171,0.45406769886036324
-0.034045499898821066,0.08573168880287058,-0.04248931610715513,-0.06822858971677324,0.12803114810813723,0.09514362376224385,0.04589379945029137,0.45998570460342164
-0.044352820507084126,0.09296024082901563,-0.07626024825110335,-0.07731418143074434,0.06148129436753573,0.041970107577165024,0.01617578393954965,0.5287646142522443
-0.08333757435363309,0.07533780878555639,-0.09203578876551904,-0.1239016178495096,0.023987845629885526,0.008698197092294439,-0.05059884425667591,0.5165964484475939
-0.032741536981664245,0.10509862329584502,-0.03655155227003137,-0.06282154540615004,0.12837311423900144,0.11321075015016174,0.047231320423559285,0.4254979175652254
-0.035315109603998744,0.09322674893130448,-0.06699627732913517,-0.0654273374608887,0.08134902118044715,0.06483676270440134,0.038433170769244844,0.4605945305087315
-0.06940916887110427,0.09212409604762448,-0.09522437278080673,-0.11116168703377485,0.01700331324681993,0.009505766018381368,-0.038600178669357964,0.513124051678739
-0.0540451196832067,0.0737264164934252,-0.05589566904899604,-0.10776668897749837,0.032989039629236556,0.03220982246421507,-0.0036765065413984256,0.5374134620388463
-0.03747093951165125,0.09320451101813484,-0.04068540661692292,-0.06932524017924449,0.08624417559715303,0.07669215614971614,0.023744518894449812,0.4994519496172417
-0.05658188999227343,0.11950707955148179,-0.07918835530127079,-0.10042767107245293,0.04410049306264282,0.035826035494298934,-0.02007573591250398,0.4112923934832633
-0.09932265818301383,0.09467236022094383,-0.10477610552801928,-0.1343990428960713,-0.0240969496943478,-0.005405715082314574,-0.07877725519644536,0.5066162901150503
-0.05467920119297426,0.13191753219456276,-0.06281807873952905,-0.08913622578450082,0.10361730822236609,0.08592716012556909,0.00382431812641602,0.4871061674936153
-0.06460405639519515,0.09401206924617052,-0.07167866689923509,-0.10422560288579946,0.044113964949519635,0.0038839672062055443,-0.011462403927031795,0.49338363953104647
-0.06956030357097195,0.09058898061202479,-0.12699452531515687,-0.15553202347873643,-0.0037461644365882965,-0.029939200395853235,-0.0849664446009934,0.37018018079613935
-0.06922855011156169,0.08936419788237583,-0.0843638776505449,-0.11346504911046829,0.026425316874485363,0.013028156149056386,-0.04814062983967421,0.5438981596734432
-0.06076906998374703,0.09521636458733576,-0.08978556583821934,-0.10342001606322952,0.046232823323296396,0.02815532353896245,-0.037220061471631094,0.4785685915678417
-0.08793968301960867,0.08664815221524663,-0.12059008183145065,-0.13895557368018457,0.003116641427659943,-0.030752634465740628,-0.08626981995497024,0.45022585300897844
-0.0917069407957617,0.09370615437966487,-0.124715196216856,-0.15906151938472973,-0.04881120018390588,-0.07250311004849555,-0.13099973320676842,0.3775539171324755
-0.05317371945077434,0.10786154873474181,-0.06949873804939888,-0.10721689781172127,0.06312993896916952,0.032091534374705674,-0.03971021148994831,0.41194334933699506
-0.07310659725241095,0.06539211039011153,-0.10677321997963762,-0.1464556284914999,-0.010220417428225218,-0.012142253207231106,-0.09585100670130828,0.4540416157681622
-0.10717477278229359,0.11428345694910631,-0.14104451893511571,-0.18864647329922402,-0.05934412985376918,-0.0956881409612948,-0.12614189196718215,0.4374335543658477
-0.08502469781442772,0.11817990068775525,-0.10833298721528233,-0.13853177959302052,0.015275546170393896,-0.05760015792640074,-0.07948925224870484,0.49678939658142907
-0.07887376188997809,0.11630883193380859,-0.08897567940901271,-0.13560483842202645,0.038693017324480515,0.008398613563264108,-0.03476051696784506,0.43703710389216793
-0.10151857898940717,0.08663277532635849,-0.1258437498916402,-0.1515484761720549,-0.028545604014761493,-0.04756465380822567,-0.1265157384687669,0.4405680424490092
-0.13129803580381158,0.12005357393593785,-0.139619575304998,-0.1849896876573541,-0.06837634989268632,-0.09773170718070585,-0.15768112106236487,0.4853497104946324
-0.08936778703709028,0.11113568218415602,-0.0870048193219478,-0.1328219768128572,0.03122753903478376,0.00273358480145304,-0.05065845893726963,0.4238454870850929
-0.09905009110353058,0.07855252289702809,-0.13209696567750698,-0.15576288965485308,-0.024909390380902178,-0.04828442870037832,-0.08425765923275581,0.4950382136629074
-0.1351428157999273,0.08631837898875958,-0.16441218522106582,-0.21186617041809364,-0.08188193205388511,-0.08685044841664342,-0.18066431436837446,0.4033648060214755
-0.10995736627538981,0.07517515706477329,-0.11107998338916772,-0.1641257017962522,-0.02348526914874288,-0.0580565510443347,-0.11351163168476254,0.4780383206168572
-0.09736170706141208,0.10247819636264059,-0.11372656632681617,-0.1708211641566826,0.001178094631793514,-0.037988989491397396,-0.08798828096002131,0.5145301191640143
-0.12275928703355224,0.07867985638202656,-0.14136967685207397,-0.2024954926834832,-0.03410915079336705,-0.07141012477058378,-0.1277743141703559,0.423971860781059
-0.134983465634712,0.061804204603570514,-0.1673022552817016,-0.21399121593834622,-0.1019199081398444,-0.09719465136783556,-0.16056760353306146,0.42202409175341205
-0.09092655776862955,0.12637868808330943,-0.11495434426625671,-0.15475165003758778,0.004567931723906928,-0.01564963497403493,-0.06819666862596369,0.5098577054564268
-0.11480505312135317,0.11132862505350963,-0.13675751734276861,-0.18281594159007644,-0.011259292248880334,-0.061429869603888534,-0.13182180703779836,0.43000221848863573
-0.15077518021580927,0.07641128580053327,-0.19350450256495658,-0.24628236735991044,-0.08958075254801096,-0.12265277089491286,-0.16065734111420377,0.4892672060322674
-0.10325369047639538,0.11183736965911661,-0.12939396367688036,-0.1633477937821025,-0.024657646431672346,-0.04532871556078649,-0.10930842688416081,0.5239819879369121
-0.09354565588750233,0.08404515303349405,-0.13993366301395405,-0.17559475818823198,0.008608185763498522,-0.05144650236409892,-0.09134957550558491,0.5524629964693669
-0.12037514533384873,0.09071345467560574,-0.16416363747819568,-0.20707318872073044,-0.051792865332551515,-0.08192433561611906,-0.14045771111214175,0.5119287596794635
-0.12342035894739987,0.072375115991249,-0.16068919346620247,-0.21364431489922558,-0.05285338007496092,-0.07879310071145879,-0.14272515275576653,0.4849376477647396
-0.0874138270239063,0.07607310657044634,-0.10702876835910358,-0.13970969428499252,0.036533238774495075,-0.042669347821058475,-0.07239057401786625,0.42900758103103087
-0.11569360800639408,0.07529501029819038,-0.13526154159566622,-0.16293120690413404,-0.030334390908311384,-0.06923560506664857,-0.09644799787218852,0.3232636523775208
-0.13111922401547896,0.07054783004876546,-0.16937076593588657,-0.20173798859652609,-0.09062388030834152,-0.12740416664010243,-0.15707751460827227,0.43300961674083555
-0.0848456441013783,0.09569269663085143,-0.10999587000032815,-0.14849897410555918,0.022094352923460948,-0.007778454383281227,-0.06672737417256581,0.4630007269016352
-0.09568563287730968,0.07454893094690412,-0.1203389276843233,-0.1502366202994219,-0.004677263208792263,-0.05618901276480884,-0.078753968371148,0.5457218535116705
-0.1178100410690377,0.0653374587411509,-0.13842712700174858,-0.18032083792200504,-0.02751764322204025,-0.09493048881035981,-0.13227062260001848,0.4338580598786401
-0.10724329769652316,0.06505114278670983,-0.15603434510327027,-0.16863583136213026,-0.06835267316854611,-0.08563708408683941,-0.1303968883297275,0.48859741243166865
-0.08520897941959966,0.0874962306742476,-0.10850842702450464,-0.13210539120673964,0.0342732814148235,-0.011287740062768835,-0.06452895927145322,0.4317451119852217
-0.11138700413209449,0.06190848124915445,-0.12795677251690046,-0.1559425173662449,-0.019686940687600168,-0.06688613856939796,-0.11445032869860373,0.4244268165350075
-0.12446562199233197,0.07297187769779108,-0.15310596927763243,-0.19914945786314042,-0.08035998089887579,-0.11669582546030784,-0.16287543842101937,0.42145107776418467
-0.0776182189530274,0.08959938984802086,-0.11288587657048395,-0.12364866572351794,0.01940863544472215,-0.03577788709366096,-0.07426162393849897,0.4970739695106125
-0.09222143925695224,0.07365542303098271,-0.11283389776881614,-0.14480010866528314,-0.0035954467011777578,-0.04445764320487922,-0.09171351836513825,0.4706004656752507
-0.11692279130296845,0.0997541922001208,-0.1432993082078992,-0.18920833206584142,-0.06929395603457912,-0.09534576732952646,-0.1130004862598982,0.3829689307096783
-0.0815284699635245,0.08313459474210408,-0.13863233666390506,-0.13129257925953247,-0.059664100497810346,-0.08649256078299723,-0.13043633136062566,0.45808503429303243
-0.07260639298768769,0.08420153080004253,-0.11702161592126849,-0.12912257032033939,-0.004331798051471297,-0.02588078865348056,-0.07335112192205395,0.4037491141048313
-0.09689440851681921,0.07796284854388884,-0.12789190958545274,-0.1449543758787981,-0.0334423919547385,-0.08156443207643493,-0.10878648977841554,0.40688373766820796
-0.10874322234775023,0.06320173855080138,-0.15080050039299142,-0.16146493360277886,-0.0725016435854018,-0.10095947177332695,-0.16128743858987804,0.4380317509786149
-0.06173452055896352,0.0643150589478207,-0.08039516432950652,-0.09785728498344538,0.05928057905358938,-0.036823793811372726,-0.06570459147305474,0.5165280676753524
-0.0718802904753114,0.04876696431724294,-0.0873149797291761,-0.13048902122731443,0.01462732501499784,-0.0418979116113541,-0.05988866302287106,0.4882261157688037
-0.09761462289862868,0.05229420459826871,-0.12914091294787772,-0.15869970187753074,-0.03358280248370177,-0.08457023551334084,-0.13069795862476574,0.47375502563849803
-0.0747696970080658,0.0757662940536016,-0.08077334406534903,-0.10507949389361715,0.015333406882808976,-0.005918748799743561,-0.05202917459818661,0.43869648521928273
-0.04514666516023927,0.0657052532854788,-0.0678385980987116,-0.1050373898286067,0.04435772681223611,-0.0024426535646380095,-0.020320807365383647,0.520139728124031
-0.06606076995725496,0.08373201453111095,-0.0914556897852551,-0.1285384507308961,0.022784218076231544,-0.04379550518398896,-0.06064003283820845,0.4600817580760904
-0.07699988418688182,0.05966505103452559,-0.12282344824444572,-0.13685252863068825,-0.007865824872417045,-0.06892463753557779,-0.11068352449495741,0.36197938428948245
-0.035556858354186587,0.06433203107462966,-0.058807620206836796,-0.06727317349537923,0.06194667837225755,0.04188661537470054,-0.005785879524153676,0.43484200075260543
-0.04949809366075516,0.07552457917847594,-0.05688063403757983,-0.08755615737007509,0.04043572181347952,0.003991304572251608,-0.025084682355755204,0.4684841362530733
-0.0746741130337105,0.0693104345494661,-0.11254504497649745,-0.1366704978834613,-0.01731442778750786,-0.029384622956534996,-0.06213723874792645,0.36401628408189785
-0.0517748861384117,0.08412173706485938,-0.08061994776449205,-0.10774264394659007,0.02804918373778975,-0.010963234363055602,-0.06377790796181695,0.4672705401613123
-0.029572329064562423,0.08124832220219042,-0.06833181679739563,-0.09318617207933612,0.08667718441653803,0.06249187026262503,0.0035283038699853234,0.4653067045431706
-0.05615303459573877,0.08406328136656732,-0.08422416862190377,-0.11686340034160733,0.036292532605383135,0.017156106682185854,-0.05776354906040053,0.43861298777804714
-0.07964046004717659,0.0808271814355135,-0.13279541242832754,-0.1534948435026056,-0.03498462637806724,-0.06245457417270786,-0.12842005658909728,0.39086536391995624
-0.04245045772709756,0.05477217958337575,-0.07723676220103945,-0.08809198532822216,0.06321268028350437,0.012427096669121012,-0.0022181825316074343,0.4163894439193508
-0.04067493901634189,0.05180693201579975,-0.07372459914023047,-0.09850218771340083,0.044064088777550595,0.023605758405413294,-0.025230984186137798,0.5273327206188483
-0.06917714878287926,0.06651276536938211,-0.10987687912268472,-0.14854599515022127,-0.0022778033027761914,-0.021687138229055877,-0.08472259498765376,0.5438386707702327
-0.09016407153563058,0.0611610834266126,-0.13635419947240685,-0.1752445459787722,-0.04351801000295328,-0.09677814737494556,-0.14363196109503085,0.4897129606242546
-0.04198683922220642,0.06890872137053354,-0.09162433735610467,-0.1207609333191781,0.03839755876409622,0.008147982676435496,-0.02005927410151995,0.488609778421642
-0.0686610305948391,0.0780750893672042,-0.1262897990379137,-0.15670446107150787,0.024286569201672888,-0.03094576895228824,-0.08821793459046515,0.40824567036232934
-0.0867493977028722,0.07412039537765237,-0.1417717819892649,-0.19220182932786922,-0.06884963476536742,-0.0764252556843995,-0.1265885820988276,0.434673634650575
-0.07887878773686158,0.04535773855987538,-0.12022078852818906,-0.15982998532718512,-0.046315886414791375,-0.09305307811350394,-0.13071241042603354,0.39874143019074076
-0.05620035470558583,0.06286214895183156,-0.13194725587691905,-0.15686867823569392,0.011231209143408315,-0.05812551069362268,-0.11184776708253527,0.5003140266411881
-0.07161211652143168,0.08135278728509748,-0.14302387124373733,-0.17367224162128753,-0.025862654703153812,-0.08844547965569902,-0.10781912735638362,0.3790806179018585
-0.11096360384366308,0.05708550696368782,-0.17265870354757096,-0.22527770935908856,-0.132782033897761,-0.187185491227817,-0.2001459746969734,0.48284821199476186
-0.06465870039622211,0.10781034959727293,-0.10476540795770646,-0.1517104499554156,-0.022082554125270833,-0.056567763143723915,-0.11331800844526352,0.3882891927235983
-0.06544556042487618,0.07282600552712057,-0.11485641847512806,-0.15196784478236952,0.008465837213891707,-0.08973643244482556,-0.12011389646384048,0.5017410273810436
-0.08604350075010926,0.07636934949568888,-0.14723077720188038,-0.17789120103350425,-0.0803756631727554,-0.1220019566351744,-0.1853262550888378,0.37387085220264255
-0.10943666625737006,0.07862248979469601,-0.15318918238944587,-0.20382245962156068,-0.12434689660655454,-0.16467639359437125,-0.20841979303735872,0.4554822902121818
-0.04932909140588133,0.07182057131117878,-0.09034344084060658,-0.13735818510541548,4.1181570086423064E-4,-0.060628810272399386,-0.08096814132861659,0.49704179062457854
-0.06511911283842789,0.08296346048456159,-0.12172614448808118,-0.15245806474420934,-0.04696842811147994,-0.07889524195850982,-0.1423703661674645,0.4902277111039411
-0.10773528481035187,0.09950603442501031,-0.15270764610638377,-0.20787394746969268,-0.12304368730711719,-0.15389078263718428,-0.18293863753075293,0.4138433659206644
-0.08547853989352631,0.07898771297062228,-0.13384961770881224,-0.1675389595450811,-0.07770436448557175,-0.1402602408054099,-0.19450039965250907,0.48934876351013057
-0.07484426089285194,0.07325281064588854,-0.11204481950039007,-0.15639557745169458,-0.007482169283378665,-0.08472827064011595,-0.1113538812272998,0.5600823954848921
-0.09425328822456044,0.09216841529027144,-0.1377980055657596,-0.16969730747713302,-0.06316021358680113,-0.1206324563641527,-0.1767234648165807,0.5342235183171746
-0.12780059189652765,0.06643550543327216,-0.18203331726987876,-0.2100331312038036,-0.1511395607366392,-0.19072243421392546,-0.22848335166173225,0.468055966339125
-0.06172756739931917,0.06189102752614781,-0.11786974092822143,-0.14882600896594292,-0.026403029856590238,-0.08559217647061731,-0.1395425832611515,0.46241312835962617
-0.07175926846549958,0.05768115730109201,-0.14440012410978054,-0.1713305449931723,-0.052180860442151276,-0.10435001191637096,-0.15612235037283922,0.4216990600436341
-0.11477938416020242,0.07369274137427677,-0.15990011383803793,-0.20086506971801843,-0.09387565053653232,-0.14315946822698486,-0.2130757021082375,0.4599726295375976
-0.11455357591195825,0.05895104258868382,-0.15119443111525474,-0.18772028129937152,-0.10537300246839235,-0.12794959579132584,-0.20717760719473138,0.3896145847028334
-0.065823219040652,0.10831339797728694,-0.12898445721281535,-0.1619033663602301,-0.02835886442758212,-0.07564043046595126,-0.12659570885192498,0.5642001670034482
-0.09654502343666148,0.09746124673275391,-0.14775655426313616,-0.1653167504544966,-0.04703649866306875,-0.07393709352965094,-0.16234271002246234,0.5064916958249489
-0.10205479145611254,0.09447836802269469,-0.16503718532774364,-0.2123723651974862,-0.1040700957772746,-0.13128460375629838,-0.19959466639967466,0.4014118842100042
-0.06345021537495825,0.09366186711032644,-0.10825815302046751,-0.14787416817227803,0.028733815855368414,-0.04862151453701379,-0.09588092511072721,0.5543474140306757
-0.06995055451972208,0.07533047435763711,-0.12197931096285716,-0.15773262058750853,0.008912224584579062,-0.06416959115665591,-0.12171740441288084,0.5186065401664972
-0.08806407598001731,0.08636006550064207,-0.14296930468172764,-0.196633482423621,-0.037259397663405816,-0.08090875957860375,-0.1303833444213378,0.46971528683080155
-0.07047257197424238,0.10549859935880591,-0.12331555825893974,-0.1557954092812482,-0.01920797910300029,-0.07105667985640565,-0.11809126111891956,0.5005367343530914
-0.04757593990200202,0.07539330708883654,-0.08262392698728968,-0.11789741580336617,0.07563134145664761,0.009091407375390985,-0.04044702721542104,0.5235424365504505
-0.0645739758254012,0.07033034769293556,-0.10065315769377714,-0.1417878601071993,0.023652084772639644,-0.026143724879591046,-0.07702111068329287,0.5362343244433818
-0.08266570735349382,0.09083255686655392,-0.138367241531763,-0.16869133008660545,-0.04058636483052882,-0.05404795136367597,-0.1184712874607948,0.42475063821644365
-0.03162573058826678,0.12491286229133498,-0.047657579550579254,-0.09919087549446996,0.07850196608835674,0.047452345332586236,0.01282642923921011,0.466575103564415
-0.03664068500627338,0.10249974330712724,-0.07142889749962028,-0.09841842433923588,0.06287607767622395,0.028742648999176335,-0.03434950982476115,0.5136650175127444
-0.05019466893512286,0.11987220188750475,-0.10073940847426492,-0.12569698542179766,-0.003665364725574237,-0.03571202722434215,-0.1018813777263372,0.5043204698911029
-0.04676551637823647,0.0832707289424837,-0.08709766500032232,-0.1191192190179943,-0.02354019012459505,-0.04434685009759164,-0.07642859919361841,0.4991022951964903
-0.014410841752611848,0.120188541545798,-0.028373159560063244,-0.061065366394558195,0.080063214550775,0.055428844818655676,0.03836576931327347,0.5606190465614709
-0.03166052990618171,0.12061188369738732,-0.05463718622636617,-0.08879335489891849,0.08626953780511205,0.015839205926277168,0.00423125391950391,0.4872830594355567
-0.05747601765662505,0.07105477471426924,-0.10096653842490066,-0.11979204537570207,-0.004205859136202063,-0.012001487964506933,-0.08463693109032808,0.5610183954592654
-0.032302830107395666,0.10540703878910565,-0.06295690485199468,-0.08162450090911576,0.0382834959306907,0.026419426487205626,9.706284170395811E-4,0.4683034203300256
-0.019036729348605876,0.10994053406250531,-0.03696497147485714,-0.07765063533962359,0.08179075652782347,0.07020406018001735,0.028309833408936537,0.5402839783082559
-0.02580840486396254,0.09525948745447269,-0.06597322825685858,-0.09177723360181149,0.06613693524613531,0.05172985026131458,-0.023623575008762603,0.48664401825954895
-0.06243794305332276,0.11822539001183774,-0.10404180583252681,-0.1326423969485466,0.022505178872397988,0.0026988258824425146,-0.07385811277917505,0.47189879607339624
-0.005463710850130549,0.11610124110258652,-0.042571250195830926,-0.08457140594738342,0.08899094984030494,0.06978977965026313,0.046375198319151094,0.49756703551362946
-0.015929133354834812,0.11338128148534057,-0.060366033469353285,-0.09910499035751918,0.09326277254345768,0.08580522008384098,0.0384717583328277,0.5132534847776273
-0.03437761962054598,0.09778115755439562,-0.08914455039739097,-0.12532656891596416,0.02625933610048346,0.03191797835874251,-0.006430781083341854,0.4943837141007327
-0.03729819233195403,0.09461053928766222,-0.07738117538307886,-0.12466044557391075,0.021454361717898558,0.014333216239815327,-0.019247865097608854,0.574960132614381
-0.01487778433577767,0.09651897530979578,-0.0541003378540128,-0.09048931025664153,0.09784764051555445,0.10276975277470266,0.03419014891477902,0.5826782534045035
-0.016090158937602635,0.1206342774263258,-0.07017797608419005,-0.09576628332087908,0.08230276154914114,0.08668890146197096,0.01347348733117654,0.47336223252731147
-0.059225166672356264,0.0991630248139884,-0.09180928719120572,-0.14608420088019797,0.04408188876399728,-0.01576988700323591,-0.039007548710062456,0.4846434706583039
-0.04824388352394436,0.07556048232738234,-0.0649933214930834,-0.09804254793000264,0.03176391180798706,0.05687746433453552,-0.019317953586124342,0.5282652539814916
-0.021070719690904967,0.1264305192624644,-0.036037536171449176,-0.08239967890736599,0.09038724531504784,0.09852768036152436,0.045336312764661074,0.5901777067965615
-0.029463124443611915,0.09981067850006353,-0.060690228777196424,-0.09669157196519707,0.08696820456310249,0.07960132347390304,0.01325923679054063,0.504127853373455
-0.06651951622321271,0.08118303951247995,-0.12704248734440454,-0.14371882673261988,-0.02423828398038308,-0.02086444112530101,-0.0706481636433094,0.4432238422074023
-0.031380099362649426,0.09791585844801785,-0.0732550089131502,-0.09847960730615703,0.06202786038750598,0.057697046936089645,0.012316265502667196,0.4511685505001457
-0.03299411620591372,0.13309458394780968,-0.04111264953437217,-0.08052401069957096,0.09053713250702179,0.07672122421624168,0.038714185084991866,0.5732657509515684
-0.04289713914009367,0.11660427504199034,-0.07997048867982594,-0.12042063728820217,0.041029279684894435,0.03568856850375378,-0.007635769417020234,0.4933559545107745
-0.07992825276061503,0.08009211122819052,-0.11909876787626303,-0.16324140700900897,-0.02158336922330116,-0.032385610361590204,-0.08080265097098203,0.567040931198835
-0.036536898705193305,0.12506894414696434,-0.06111918004864769,-0.09729048370558926,0.05467531669066154,0.01666162233017396,0.012136132013528072,0.5700654392750797
-0.03838522464376481,0.1202397869925294,-0.06979747648475525,-0.09639894890983317,0.08105234235026351,0.03480988664095875,0.006985203247129106,0.6159193874165557
-0.07062893426457072,0.08254191041064127,-0.08714250134274966,-0.14723072918427926,0.05196653032233704,0.007554084037099062,-0.03419197157557841,0.5392747062997456
-0.09211191457148694,0.09503590043706552,-0.12633287725073505,-0.1726344272515432,-0.06413084809348972,-0.08547900493717218,-0.13314790487459183,0.4175911216022584
-0.04238310488684466,0.103244959469999,-0.06631538155890446,-0.12026496199561482,0.06540715160453572,0.031195130066144064,-0.015281296668268215,0.5793150779548071
-0.055115582319074964,0.1001088087673447,-0.08878230346243343,-0.13577064502673317,0.01298861312024092,0.007884293415348824,-0.07107699310182405,0.41669407112416973
-0.07377793659911759,0.07771377270591795,-0.12137023722041959,-0.16999317348317114,-9.49905711362567E-4,-0.04584346323080024,-0.09855800496065929,0.42158219963209675
-0.09135610510382836,0.08443492658496743,-0.13056153573840595,-0.19269654445674722,-0.04322712013054849,-0.10088050350134933,-0.13333756772960684,0.5260350784922966
-0.05330606156317104,0.1065011400844845,-0.09303861885241671,-0.1442987751342298,0.05815281894960611,0.003316746448093666,-0.03353387840851353,0.5039838240556567
-0.08180006434906809,0.08852590551344507,-0.11976521129928197,-0.17407898090149146,-0.015978495557032967,-0.03543233240675893,-0.08232678738885134,0.48172662000913097
-0.11517050914643162,0.08436915577697895,-0.15330077375751713,-0.21634407799702934,-0.07124614677815409,-0.10779625740525062,-0.171566095085118,0.4853036375524737
-0.08227377423744209,0.08488114006684486,-0.11230061572439085,-0.15832585792258924,-0.03236480616112612,-0.029851130950430616,-0.104201243622265,0.46481670998724905
-0.06649068437426514,0.09859770683197942,-0.10697919007077858,-0.15954208618851745,0.01290804255849061,-0.03219993102195847,-0.06252677591582004,0.56591541450547
-0.09614030618940703,0.08867786424991932,-0.1343450266841395,-0.1861123810347804,-0.048320061098283434,-0.05981015990374883,-0.11693556680376171,0.5077111901660564
-0.11580959940857122,0.10136636464422609,-0.17320943119099594,-0.22761386208716966,-0.10833870338059742,-0.1362904058783164,-0.18421214865363314,0.42206913692453585
-0.05316993983861863,0.09253309599298513,-0.08826248830175658,-0.13146938698949434,0.04619276886607627,-0.00800719110933754,-0.06084577214401496,0.475132490209615
-0.07554999275476981,0.11240462780979488,-0.10843338190304426,-0.1569480933384822,-0.012299686355567628,-0.024222350352710996,-0.06326126498276058,0.4119199370498357
-0.10384015058775724,0.08423310461474226,-0.1459132830589701,-0.19294573097341533,-0.06635473369743765,-0.07370933784761817,-0.1285444572046026,0.3956118309410534
-0.09858712703942528,0.061330421080507166,-0.14796217068288947,-0.18661174272924916,-0.09445749204045152,-0.08820380070065187,-0.14014140686919324,0.4823511148295826
-0.04610831514825029,0.0879322399875579,-0.0843737116921075,-0.13945473316777732,0.034465540821371154,0.00923035007660921,-0.05652213453197088,0.48812108651743175
-0.07493976096349077,0.08410648558583986,-0.11995663478274562,-0.1526874000416669,-0.003355217431963351,-0.020707065236156282,-0.053003609633151726,0.4315753512036021
-0.10407829128696858,0.07869478774353139,-0.13922605180676095,-0.19305093200090256,-0.07153610592292334,-0.07837077211044075,-0.14140774403139164,0.4379666464501861
-0.06547731092287737,0.09622766956326498,-0.08903510737189196,-0.1346993159946005,-0.017441479696969426,0.0018196466160783696,-0.07951182569707621,0.49529037452416
-0.05846223105843195,0.09722319233408255,-0.07635420217526041,-0.10760714749939346,0.039392373604191955,0.020281018252884805,-0.050255357953093396,0.534782551886585
-0.07419536394268429,0.12189558561082335,-0.1099771948262197,-0.15192725899884324,-0.04746654531465859,-0.03639349173189282,-0.1111702000700282,0.5085388122416934
-0.11871129249390049,0.0921835478891528,-0.14646422359482916,-0.18127916328781374,-0.09349654684198941,-0.0796673892326772,-0.14567393069031848,0.4419444860576948
-0.059155090825537444,0.08129282579704261,-0.06335366018677595,-0.0976044654758229,0.01713267007409315,0.005749302847213196,-0.04480001002337412,0.43524725228730343
-0.07569422348885453,0.11979289637121575,-0.08495335013768346,-0.11807202860072907,0.018308308016867926,-3.0147928328464954E-4,-0.06022918957109776,0.5079693077272763
-0.09073450760866278,0.11457183414977525,-0.10641569461252336,-0.1460357055156993,-0.06899213773216825,-0.05277686128991881,-0.1447667458559366,0.4649350036893684
-0.07922837192920994,0.11199896073387658,-0.10983087056156901,-0.15253989795044495,-0.0346777188319899,-0.056151827272856086,-0.09835608506126386,0.4257253321489475
-0.05873698085577771,0.09290142716223608,-0.05944985273532258,-0.10136598526381094,0.011730943089140196,0.03241340742882957,-0.014377956503124614,0.4391782148376468
-0.057262032936500416,0.10868612534975466,-0.0804458127459799,-0.1072092364381476,0.01196785544693052,-2.8182469951454694E-4,-0.07551452307696417,0.4436507262694406
-0.06434980335958625,0.06552635832342056,-0.08791622864978253,-0.14532754118631042,-0.07281744651125717,-0.04418177016622049,-0.11305597668824821,0.5555009287954839
-0.027354490262626478,0.08285812136233392,-0.034944478848768265,-0.06670946772953984,0.01476960282326982,0.04745811465475633,-0.01648445287864355,0.4290233758804776
-0.026146997747568117,0.10194155066382547,-0.04051043592074045,-0.06029293733948413,0.012574220298836813,-0.006452481492737349,-0.050520537941280225,0.49070049641278624
-0.05129482565633669,0.10266303439321058,-0.06759902381241706,-0.08582346723752027,-0.03577622923738799,-0.019829667260720107,-0.10182628162713418,0.49839345881272756
-0.05264248464708175,0.09672857755017444,-0.03705453446153282,-0.06425858132613155,-0.032924022439900294,-0.00983442569816767,-0.053090353273317126,0.4985293359621231
-0.005716380998633365,0.14698698768492602,0.00653247516893269,-0.023596411455017535,0.07408244716322383,0.05296674653679863,0.03145583340767457,0.48040019523082444
-0.02158107407530756,0.11275950186861208,-0.01698783118299497,-0.024807699819072195,0.05200345352143623,0.0490738333663815,-2.914152906011375E-4,0.4798235112851708
-0.05129123520642324,0.1064647061594877,-0.04349797217378623,-0.06822289329600773,-0.019216242462466736,0.017155353097184432,-0.04265636762238259,0.4248265818364665
0.023223965197956813,0.12252349556652994,0.03305551839604762,-7.228696494037748E-4,0.07200190052138027,0.10625029760634591,0.05962317440686056,0.5081291362363785
0.01052822813429462,0.12281835679442363,0.028889843741738988,0.01280483051272735,0.08761212535860127,0.12532228101613535,0.08138466475899273,0.536887860287269
0.00596026447856189,0.11303467821518538,0.013821770278273714,-0.023246254485237986,0.08512887296331478,0.0835960794211909,0.06233278830378515,0.5704379059157253
0.002093773022857931,0.11676656003956976,0.011633845956946942,-0.0016877171727751467,0.06033297191859498,0.06601762094552824,0.032384190067869786,0.5070318943659108
0.049772964516019896,0.13948786030555124,0.06253710762039305,0.05667164904824888,0.1693386156207093,0.16624743042075707,0.13656710939915603,0.5654691083524637
0.0411914750815421,0.14198836911463592,0.05934740676710907,0.06380626627738425,0.15001828051230107,0.143828386107877,0.11482016593747901,0.5904084213757541
0.0196068557632019,0.11032562625850274,0.021144379456678304,8.079376292627546E-4,0.10184431533324452,0.09589632848524741,0.06669406401434458,0.5066852912258086
0.014512491993020033,0.12488193225306524,0.03533564656892716,0.017592647758792074,0.08719441730870812,0.12035532908618804,0.08624737804927332,0.5115917997480981
0.04213560429425334,0.12862060824354765,0.06655484931619064,0.05089219348437117,0.1670216733447366,0.18319903650433186,0.1621934392175106,0.6073737151940577
0.03206605563501044,0.1372251589570689,0.04648328168988381,0.03731940213462591,0.12915585616584824,0.14217287592767405,0.12146879444876242,0.6465249457661901
0.016861111950629015,0.12519827303033704,0.02472563073224783,0.001998335437594659,0.06831267952027459,0.10838137703953463,0.05238720566867759,0.5603513101486645
0.026037321430721495,0.1308742257016214,0.046143505421027436,0.026013520444793325,0.1030289155452211,0.1244172518459467,0.0910603597953514,0.6217771705588956
0.040393802654847905,0.12213981882266087,0.05548166612737043,0.036765297391519625,0.1494287813470769,0.18483012334919446,0.11132837818811528,0.49036850643135454
0.02715285543591598,0.1150971342912746,0.041678996385017,0.022750615928871912,0.1355565669914478,0.13830256418457798,0.09867857345468803,0.48331887073739865
-0.002158299076490902,0.13228001719178806,-0.0013424180064818478,-0.020587511624307213,0.06456089608834013,0.08379289930681597,0.05064956444339168,0.4549310743524916
0.03298023777042304,0.11954988840862205,0.05789714512493832,0.044117784602170404,0.14547325628530478,0.15297155591506129,0.11461791878027858,0.5920735685633997
0.029630321112247726,0.1567680470749036,0.04818484381553,0.04124152075567086,0.15608869788907986,0.1753055718677046,0.13172363120527478,0.5332196744312399
0.006867805739508935,0.11767012823622673,0.021649173854851905,-3.8188789882237506E-5,0.12909207646295134,0.14911143890939754,0.0915135240762713,0.5851718358362552
-0.0121920663284373,0.09989941289525064,-0.018730951712526103,-0.027335539994935938,0.05337327575983807,0.05714912419165088,0.011571452642260652,0.5287031465373117
0.03590258111424843,0.10501170515667438,0.05105343342083263,0.030865985001032964,0.17258909657381602,0.15200106531001908,0.12355312371062954,0.5475735420493824
0.030028406362549557,0.14922422615717928,0.04157478172237365,0.03393177366844835,0.16692668425654597,0.16091198823973293,0.10856935775163151,0.5596066681758399
0.004694805009496813,0.14958230986271198,0.005934697046904615,-0.0076548659314986875,0.13298625906919068,0.11095498701359253,0.07118585324882751,0.4796481292345717
-0.021658040702719376,0.13252357485622426,-0.02507204917586004,-0.05560283383768822,0.05626569005887322,0.06633632570979502,0.0019844365219601986,0.5618972241885393
0.004394167501405719,0.1471633498389394,0.025244198925910587,0.007382285456141481,0.127011472943454,0.12963239896781478,0.07006863336377052,0.560902068056194
0.024939272263417744,0.1318246133466757,0.023592519112946693,0.01609110444758753,0.16336218962178264,0.18427042513834402,0.10742693370032222,0.5479865744806186
0.007375812841402666,0.09261583103727833,0.0016320623631567235,-0.011894786649158634,0.13236879167573945,0.10891985929516247,0.06286941518086964,0.5178889322528945
-0.03277217318295484,0.11021899692491446,-0.05185494694915277,-0.06947023546113394,0.0588846234572901,0.05558503756590634,0.012522066107566905,0.6319470054222437
-0.008445473322222704,0.1221662631742593,0.006642809610258912,-0.01846682326105639,0.07918444280476486,0.1000698645162888,0.048376176912711885,0.5207965642672058
0.02309561546469814,0.10624182100080494,0.018842889106165425,0.0027699448470375476,0.14310356226090754,0.15248965694258704,0.10550827011448904,0.5728026940035902
-0.0026862894566162614,0.14135684350676309,0.0016183021924390736,-0.02708917770475018,0.11717460040468822,0.1330607582303264,0.0529625717115525,0.47441180401707206
-0.048027729851574684,0.1233546391354967,-0.050477397077998885,-0.0724453015119226,0.03228052179285779,0.04063902239993047,-0.00830328655042634,0.5987809517336797
-0.02424697833922586,0.108011176267481,-0.02138343231447455,-0.04743769670778809,0.02395334808038423,0.08007089823671971,0.03311530025972057,0.6411639614098884
1.2041263945037684E-4,0.13483319536893068,0.002304199152666851,-0.007828934718350243,0.1327812211931071,0.11574231703129398,0.06953959721903763,0.5839927798888349
-0.026245081713762507,0.13445043395587591,-0.010114839537997605,-0.04898306566924668,0.0772441203195399,0.07096156893970708,0.02372340368231247,0.5465362910082442
-0.05245768825562591,0.12976330527801083,-0.05832301264178983,-0.1068956852220184,0.02348341561837498,0.01598131847361296,-0.027028921525872808,0.567631266723613
-0.03903777901461497,0.12192071038557467,-0.044158667160978486,-0.06394213749351996,0.047556519895076296,0.06379849948993285,-0.031218614636239025,0.5004798884174949
-0.019526418048928386,0.13112130824151175,-0.015877017889979878,-0.051886109779302275,0.09577816957356697,0.08870477532101739,0.04656278892524935,0.5639137545196493
-0.04368177912558579,0.1199484917397702,-0.043022035943758745,-0.07885814461074259,0.02343170874874021,0.057822520054879256,0.012178060289715385,0.5747904917277452
-0.09155262316577932,0.11060233256716684,-0.10451094654822242,-0.13410611883275467,-0.04283994395169831,-7.149935718227425E-4,-0.06710541001635603,0.4910926362100475
-0.040933189035572914,0.130594422039046,-0.038902893850938404,-0.07173832636335031,0.0370091929603515,0.06013181588295423,0.02818139407444336,0.5018485541983122
-0.02811640572848258,0.1310293847298919,-0.033942216756341875,-0.06706332155901838,0.05066447598440948,0.1005321980970481,0.010716521715354022,0.5286237463659639
-0.051124606453833786,0.1468689036283301,-0.07722566940542376,-0.096612585587669,0.010340739173495456,0.030231062615955033,-0.010380653280909879,0.5233045195566195
-0.09530405789254459,0.12501692543490214,-0.11474367643843517,-0.13565851225857795,-0.06383166781354851,-0.034315752306206926,-0.11475636961709493,0.5546808251149955
-0.02961745897824433,0.09937446365203485,-0.027537797216801746,-0.05201119015213773,0.07411405898850944,0.08539221124827177,0.0584734297574244,0.5128558953854939
-0.03754935433217665,0.12243004377258165,-0.025788501982476175,-0.053164465530158966,0.049714275584052406,0.11001092902026999,0.03133213405056424,0.44352931531045164
-0.05476146690168987,0.11950946277930441,-0.05161874722822013,-0.08936495918986877,0.010732572777900047,0.05090511405657862,-0.014705999927371184,0.5002180481830522
-0.07876819705031303,0.1122750607056903,-0.09075738714726536,-0.12230446416047003,-0.06194847346351497,-0.013534146444464299,-0.07693152739273551,0.501061096348587
-0.007807979108582525,0.12577372118018376,-0.006161891911334372,-0.029745029931979555,0.09618353922693273,0.12517022219953897,0.0657647534307193,0.5491673975068755
-0.022996739371025986,0.12355881231216731,-0.009997452387830008,-0.0383464768798375,0.06521140746668254,0.10697834916368727,0.03226307527766804,0.521723803766609
-0.04434911852994565,0.11820549960728811,-0.0512001583504993,-0.0748038001954096,0.006346441302675342,0.07442433221262078,0.005711931879318037,0.45816577861308844
-0.06202084617479985,0.09116735493837942,-0.06305905307762413,-0.08384703348294212,5.156710125794363E-5,0.013555010403608077,-0.023029532306653038,0.475465962726845
-4.463314869488015E-4,0.12841868089150463,5.994830574526724E-4,-0.012874509603103788,0.09894580461387584,0.14825477914631727,0.08433772561973839,0.5790596861712389
-0.03486744079847513,0.1719004075240535,-0.022938433835145045,-0.03191257183320658,0.06225350249110153,0.08939147572410641,0.054272329639693306,0.5300281879740385
-0.049962191826567394,0.08664227331135078,-0.05023772923259899,-0.09396044336641904,0.04106302166634703,0.0560005882493632,-0.014313066959531488,0.5745284654641534
-0.04836469035094852,0.11073979404064314,-0.0362050738594355,-0.06568596209553822,0.00253112516260701,0.03761585539352495,0.020528611753626136,0.5984758699703986
0.0010070966608309608,0.1739778190866006,0.005084658005824645,-0.028582780367568367,0.0854590912228781,0.1392047333847538,0.08518216377125853,0.5363190199844208
-0.027436253775551908,0.13794248553473082,-0.023893787032713457,-0.05862273160647301,0.06557271957786182,0.09730401564661974,0.056685659439869016,0.5474820542590388
-0.06400849253003672,0.10323047875179658,-0.05329318779946732,-0.10234445315951354,-0.01694861306564581,0.06616490267063332,-0.012718307782625657,0.5164060438198712
-0.01083987788490957,0.10372462986801728,8.343309613889904E-4,-0.013846220033106638,0.04751311225514572,0.10424973245075161,0.06080400507512843,0.5075909807243272
-0.014758537722528955,0.10307195076224165,-6.466013198751508E-4,-0.01077519796171212,0.08779931892190962,0.12747979868286471,0.08922240385440078,0.6470452336396011
-0.022661839423373287,0.12027303558850994,-0.003994306409810668,-0.03556388782772598,0.04320135299074519,0.10685768210548376,0.02941195174435542,0.47718360851989783
-0.04643797905752546,0.10601923362086184,-0.039384945822107206,-0.07277604218163196,-0.003111255457488117,0.049378917070282864,0.001367707797284028,0.46244279376917763
0.00928496455384274,0.1411515040424498,0.015065682939996876,0.016124074616921835,0.12296390735307246,0.1759565131204768,0.13596868329360817,0.47304442365394955
0.0036369673336179445,0.15721798127255251,0.029952273062213604,-0.010255198826914183,0.08254520781920249,0.15530649135002222,0.09498315985848502,0.545748173801317
-0.021170465098921107,0.1199240668967993,-0.009611290450316334,-0.040610307323377975,0.04812933613211833,0.10795698187473166,0.06671742897315924,0.582108784537533
-0.009395756439518078,0.11385271330520946,0.015919841839673578,-0.0032737837129854647,0.06878272131033623,0.11689053631500022,0.09423535414308269,0.5610893090484169
0.030782553049916173,0.14611096025491632,0.06775010077123869,0.042236550309881264,0.15744735303745644,0.23382687724786408,0.1550503057521336,0.6031296990758257
0.035371177612877246,0.1243455760930422,0.040080984498496945,0.023975736110386177,0.11538352485401981,0.19722245921069895,0.16058052345154977,0.5631563453240933
-0.006637460199397858,0.13455812935457107,0.014361286891835301,-0.028573692506193998,0.0773162179776328,0.1448652595750726,0.0875934475211407,0.5357994865200286
0.04274284375118476,0.1412997435802664,0.06918293186396379,0.06144749022423237,0.15750428973552488,0.1997319174567012,0.14688598592227783,0.5144367670261025
0.05358960513684129,0.11724796746240802,0.08240249848245554,0.08135695417275954,0.15638482661545922,0.23868693025164672,0.20965967985822542,0.6058047119823525
0.03128794312269682,0.13332200894928048,0.06143480722613975,0.04722742468202274,0.1312783373889468,0.22214414304110042,0.14609371738211457,0.5007523877096095
0.018717821840060336,0.11003431220828941,0.013599119285265943,-7.952514485973922E-4,0.07347027769834494,0.14219539759515235,0.09092810660653727,0.50600576254883
0.05980159488792389,0.1485983798955763,0.08200822756986761,0.08010269222289589,0.16711601225980954,0.23509069093860946,0.2134170535365919,0.5473112669111554
0.07008295294193044,0.11152635765474284,0.08841332969832083,0.08110674694308619,0.17406528028171997,0.2542229669048651,0.1931096248121917,0.49647660734801247
0.04882768777214082,0.10905955594757251,0.05321430409306632,0.05097442283092906,0.15803571323915744,0.21226451102659147,0.1636819431661063,0.5178044902277414
0.015231456705815612,0.10325945231234115,0.01999571906372393,0.00964232852607387,0.08026719076903766,0.1410215805456773,0.11190716460233906,0.5074778003766726
0.07251778375732433,0.13568347791809637,0.0851775839212468,0.08211319040031133,0.1964202170606667,0.24344421279507222,0.23263166057404983,0.5597698678883101
0.07627336836426635,0.1473600784191837,0.08360037464377329,0.07317146762002925,0.1943352795001642,0.23896192354048312,0.21153142920459236,0.5906449659867034
0.055367996600294754,0.13579766644901664,0.05862109692491455,0.022299219615155602,0.1294560422477347,0.17744362073105555,0.1484846047003474,0.522781866390271
0.029327590893037377,0.11588014730790203,0.01746439809368698,0.005524413175861276,0.0625615855092844,0.10732776321698145,0.09927720538797695,0.5201393362378463
0.07492582353905337,0.12985159418475933,0.07589430814080597,0.07431172557193899,0.17656139219363365,0.24780161919527385,0.22593549091908455,0.567852644719857
0.061566415142719724,0.11938038667373274,0.07298259252245773,0.054192096272088645,0.15414068271730014,0.2317088349250936,0.16851794229421416,0.5604497840798217
0.04883524242581416,0.10456414574300474,0.024313059342663167,0.013690118917452802,0.12604514784504,0.18638322578333644,0.1531079618568834,0.6634136736481202
0.029398234812050242,0.11890431922702951,0.019410347649778205,-0.001184790446633742,0.0864768242818191,0.13014104403779125,0.10900460794730406,0.571485778063117
0.0664174197843176,0.12339974875110223,0.07438654827091423,0.0694459244736508,0.1778286561835751,0.23226010931344893,0.21056281039112495,0.5778884879757918
0.0401715952638701,0.11448663958698091,0.05014263997909976,0.02350543595463457,0.1443468911713138,0.20262537574636788,0.17569960507966126,0.6096690470703715
0.026547254225688453,0.13210177635813747,-0.008912252447753434,-0.01871011044718077,0.09574049022361172,0.169593562889966,0.1115727084262418,0.5382076090798233
0.041400212851616575,0.11375004359680545,0.033188021707275916,-0.006357417951771686,0.08914117271610766,0.1769688239494598,0.13909118831468292,0.571958364954669
0.05491003796433709,0.1012154226808116,0.0564444683742439,0.04771915774159841,0.1897840281461707,0.26923355798478443,0.20119386524844962,0.5856860654579056
0.045314808057655996,0.099637316853646,0.03289322225493325,0.02249914825259932,0.13897999228647706,0.1942213144356735,0.16552691171735412,0.5385409098047472
-0.006357596215520244,0.09825011825974002,-0.01833827777117402,-0.03496401493634367,0.0579303506614082,0.1420818253226039,0.09686565357966148,0.4987562941240815
0.04096019177961144,0.11105046901996272,0.04471374458566585,0.015172000754628073,0.1339596262479247,0.20199586387900245,0.16009280403027673,0.5811388845549686
0.052839826962886145,0.12243766620301816,0.04877764112777151,0.04584978373153222,0.18568097650356158,0.2673619748230346,0.20903070178060118,0.5635837273396375
0.035120481074489465,0.13940592187411044,0.011752378881923514,0.03137257170118356,0.13137714936131503,0.22775951654108148,0.1667254460876,0.5645928207224942
0.008239378099983825,0.1064347501545715,-0.017446166756217803,-0.013800731630018895,0.06826430790567556,0.1491147441444771,0.11121864043625242,0.42515531825820463
0.05405374825307821,0.12049653577793454,0.0662918298169021,0.07267297034773453,0.15519811250895182,0.24399534350947144,0.21085813102230475,0.5778742827437204
0.05316219567817292,0.13850681382069616,0.045930450671388234,0.06766070685187968,0.17158425891167967,0.2708563924901345,0.23379119628366224,0.6666700260343601
0.025966252541793515,0.1415652079977362,0.029165039356809516,0.02211502049357445,0.13115042206376681,0.23625903321624644,0.17551661137677949,0.5447156477613235
0.0029981559880982293,0.10534308421236857,0.00803100378163163,-0.004050225422915103,0.0778857983829259,0.16396650400060778,0.0990183084443594,0.539574806637569
0.06501610891935844,0.13587561438919388,0.06463492673783774,0.06276980850891943,0.20823371078922268,0.277592036625921,0.24093964480274332,0.5768635039738075
0.03603923422251682,0.1200117141935509,0.05428570640915295,0.03722152954229219,0.15517704762570242,0.2224710517062604,0.21231857832536974,0.632798990807477
0.021538228123243082,0.101456902927155,-0.0011839275876903907,0.015880085072390637,0.12261071055507976,0.17373684312583237,0.14906337768605643,0.5165503417190584
0.008585376496231756,0.1085015968391607,0.005398676861842519,0.0018481502505556108,0.10761924699354442,0.15348661417289275,0.1315772489961542,0.45238033681676415
0.04346796525150967,0.1247474056753312,0.0531804973479342,0.06230566892437757,0.16831832101737815,0.2775615329240742,0.20056399155698906,0.56850046487767
0.03239668380028702,0.07952540907240711,0.02771938649626797,0.026129721325429206,0.14904524770053978,0.23500960371587581,0.1684577203402009,0.5789177945466705
-4.922414527933393E-4,0.08909502671550999,0.0018742856507167754,-0.019410753781501686,0.08338675418042511,0.1696448735022366,0.08997960768857988,0.5617444121347978
0.010746929065267283,0.11104133959229422,0.019123310614227687,0.0070908560175275,0.09164532507851322,0.17650125325999455,0.10241174039548064,0.49941539167457477
0.029516348006338764,0.12217498119722256,0.03943556553587044,0.03705279202358912,0.1442925475304392,0.21613302180731603,0.14001711697440394,0.5686430443330835
0.01868255667743014,0.1016838439823609,0.009085919465931083,2.827946434350581E-4,0.11471376543464665,0.17545651628625666,0.12118526756431804,0.620925039875861
-0.01156033088077835,0.10070135834482781,-0.021671026644964293,-0.03788330902882373,0.07547218698831129,0.12577526290157232,0.06645031869441634,0.4184396088823283
0.04487921084563174,0.10221629933016346,0.0471697754116573,0.031125545405343444,0.15379598040751907,0.22174209591130276,0.17243205577289686,0.6347589340004671
0.03340684150824853,0.09244343674926174,0.04782446334256729,0.036787493229945276,0.1455294312796698,0.20750460348790953,0.17113000219778707,0.57169967305909
0.0017093649447579209,0.10076865745763702,0.0074536213109998445,-0.008355337316083622,0.10204873477187408,0.17436071578820186,0.1004338604998495,0.4679138901410667
0.00859158824815667,0.10745391432910652,-0.001052839994418478,9.513327616586936E-4,0.09056836451153691,0.15675041348948177,0.08451049598739274,0.5730235604315851
0.054809106494470045,0.12309595330085682,0.07012091698223803,0.05959443623520151,0.20390354632199303,0.2726520632720178,0.22745919496596528,0.5815767986591135
0.045209767040311905,0.11674386490838022,0.07026169248366516,0.05426196781273032,0.17623246582750912,0.24377269833075726,0.18527035770672878,0.5450838127354435
0.015564963116785024,0.1201379272922801,0.009251872833984945,0.0017867894430981246,0.1384793008034918,0.19694300764222086,0.124482342867784,0.579318751419926
0.05748283117372432,0.10731234261480245,0.07637070700992901,0.07682688820315105,0.2041721158952034,0.26257663898628875,0.22450825237812994,0.5078381023093949
0.08070247076996633,0.10729864496564298,0.09573373144462391,0.10437110271840404,0.23954958543380703,0.30997179403287944,0.2623547031204954,0.7277996228307536
0.06536874517951183,0.11121670384023735,0.07953430558946363,0.07842144347154476,0.20159900083207943,0.290844366729926,0.2544684277324385,0.6052523518403321
0.04222021290700191,0.11172010372945163,0.0621988945354397,0.055422012168427015,0.16037647591677193,0.2438061642156506,0.1770880381865036,0.5701872047470384
0.09365023426576904,0.13641829735396138,0.11660804213439491,0.13521419995857503,0.269607536929684,0.34265848824835166,0.28297252560508634,0.5997680653356939
0.09621380161224098,0.12705928777450642,0.1234330613686709,0.1340731116704285,0.27260370711832704,0.3492358850205953,0.28960202214703135,0.5551568899031873
0.08845868520379538,0.11098171459197301,0.10149634032789134,0.11343005829980736,0.25970919801081205,0.28077250586156877,0.2427138502939656,0.6110090173664188
0.06279924846660322,0.09081843801771347,0.07918206352182501,0.0896332733275929,0.19459690548544703,0.2362201662665878,0.19649659237789832,0.6001171850022764
0.12159268498232867,0.11912532481481555,0.14277768099986396,0.17276410155730654,0.2786335999159601,0.32875156338960887,0.3090552871194395,0.6420233111891428
0.10097420512663086,0.125287567147275,0.1336087363681146,0.13862523633922114,0.27176591061846594,0.3236394977359845,0.2648693423684273,0.552195470435575
0.08698288632388722,0.1395907522165637,0.10091538634672657,0.10133216240698328,0.19647003282225223,0.27000142769161856,0.24047658139426237,0.6232723793800233
0.04908013143483765,0.11643710326383253,0.04737412702711878,0.05140843705166891,0.16602683407990781,0.21729844092516543,0.1313106871711795,0.6180229289005498
0.10080403676930534,0.10603702525689811,0.10973911537901727,0.12465942337555987,0.24898773513432043,0.29847129614608303,0.2548293490643562,0.5482956617423071
0.09126555469205676,0.11833086894439293,0.11281354311063899,0.116117478342383,0.26193493549711894,0.2955893486379639,0.2303257325895546,0.554834799212609
0.06480334357380999,0.0921753815182284,0.07827069796472583,0.07239931929053683,0.20960793920311804,0.2736926475122939,0.18349234185117835,0.5215155344832649
0.029981490935932074,0.10630781194089531,0.029340297715489405,0.027591329181235122,0.10960434508205615,0.15630737397234037,0.10724347926341746,0.5864976880886232
0.05620715117376536,0.09891566982801142,0.07512504122976364,0.09068429843301938,0.1992573122243787,0.224301813925943,0.18961050309447267,0.5676757121556668
0.07848822451600417,0.10885309899940614,0.08439018474716191,0.08322226991895644,0.1661165284009334,0.2037311965709528,0.13657385269070377,0.6077179371171648
0.05626252403827821,0.12019055641070295,0.03867715415750306,0.03533463477777421,0.12166058182874005,0.1415773913451197,0.11007588599552967,0.4649893012662756
0.015120239960277082,0.11491240886773796,0.0029539096309214863,-0.008589181206936955,0.0552451589670753,0.07023163147662592,0.04831850271502441,0.5829642455335473
0.06092447477210605,0.1266610000972661,0.07678147939204436,0.06388638074748446,0.15704351029892755,0.17741341713704473,0.14250238826941874,0.6321930498435108
0.045920178958998095,0.09029357935799687,0.0517343542866468,0.04889424396081521,0.14692574264918193,0.16723150366098388,0.09448466718787847,0.5901217538625017
0.027586068273799273,0.11922846817315859,0.013456490409237631,-0.00393586906491207,0.11843309167150955,0.09794578934525935,0.07371794561140557,0.5370136079340343
0.013375199239092058,0.10129542639652689,-0.008411764201304649,-0.017520183694781602,0.05666479196653199,0.07177290382909363,0.03105306557386695,0.4844866283824287
0.06573239408514837,0.12328644720796718,0.06926117261288832,0.041792548607020745,0.16576798974865292,0.18630025177468099,0.1386185235648132,0.5616266088890322
0.054184629697764206,0.11167579492537386,0.0414491363241104,0.04601621223643222,0.11803857738754767,0.14546698733535382,0.09699823428749013,0.5682508648470095
0.02775146575662971,0.10922811736507089,0.016658302954960326,-0.003587178516908013,0.08560016509747878,0.08599860260299769,0.045260714119163915,0.48733846630394384
0.017841898700381262,0.10572659538379386,0.006968364699964681,-0.014010861698026685,0.06843116123568097,0.06619118633992999,0.027611684966476195,0.4961749537491133
0.06568186254925004,0.09654100913999271,0.054050584351255024,0.04829182993553003,0.14252070150052515,0.1607534103969996,0.12876643094459583,0.5274683928626857
0.045783806379869126,0.1128172221876276,0.04472553725223168,0.022632792016816575,0.10787732951093498,0.13955277816668887,0.11005235236768189,0.4557894816844501
0.0160669840866705,0.0982607039969298,-0.007541583651055138,-0.017461781910020874,0.06849784552571625,0.06763130874859502,0.019996667984700494,0.4921532730907539
0.010111724529332577,0.11482210391676871,0.00632810547662542,-0.020324234091654902,0.043965286856627386,0.048080288456226805,0.025293578602517464,0.550623740690078
0.04410822912014063,0.15106283335548978,0.02458176009818539,0.03449994106862024,0.16551689368581426,0.1589728859127001,0.11431328198008721,0.48972590953046724
0.017559417936748877,0.11159623033619076,0.017981183101973934,0.0037810117873210702,0.09697518252631164,0.11168904983154786,0.08783385373314699,0.5576291434830932
-0.021692431287406715,0.0887129356987399,-0.040742117930900185,-0.040008829005098806,0.030888058269452314,0.01986624542677093,0.0011936480966991056,0.491711135203449
-0.0019158882319444412,0.09866957161050208,-0.01400083219832382,-0.014401004732976237,0.059573975679701,0.09081937201259088,0.03752996694188136,0.626541159929236
0.01427882041872192,0.12341358340548098,5.903260202220553E-4,0.0038465529912175833,0.1310467334655063,0.08493375855771729,0.08520473315733304,0.5822148117684159
-0.0021951907000141,0.06893916093855892,-0.03570353630145433,-0.05520209053102813,0.06804914804022952,0.03996364983203956,0.026537641932579993,0.4876933056906365
-0.03227675863918526,0.07862360994970485,-0.05616819992813361,-0.09045431446163688,-0.020851517712528418,-0.009432341695523164,-0.04310544188401663,0.4721582778131075
-0.003828980940619453,0.08797857186126021,0.010113230327562235,-0.025681655523604553,0.09933889787684812,0.08050443144578481,0.0182543473581038,0.4688837768714569
-0.012738001931500776,0.09358493160743511,-0.03334920284856383,-0.06705597094027045,0.07472219508221929,0.035498444540790444,0.007780546647715297,0.44779645553540137
-0.03454281325883546,0.10327183745919116,-0.06350572313875223,-0.09000442487985025,0.02358385757942099,-0.01203919223706155,-0.052669865877498015,0.4511322630981532
-0.0336607267960894,0.10939695385153884,-0.055243489256936985,-0.08462447455120559,-0.004437720750823031,-0.017396654837527913,-0.06069985764377507,0.40542016892715477
0.01658569864741287,0.09451451459279739,-0.024744174694133245,-0.04851425793084725,0.0849757939045428,0.06640614571409117,0.030359326252927327,0.5184047860209549
-0.020772797109300266,0.08529050635061448,-0.053675003700648906,-0.07145449190025172,0.04037644546116598,0.023829848455185224,-0.03191348819676744,0.6176500350314219
-0.060731025053109795,0.10416178973656451,-0.10538935261976348,-0.12589719969323018,-0.03419766133496327,-0.0463013091302842,-0.07186104277888333,0.4473212807094895
-0.009056361656050584,0.08458993791701286,-0.023134860110594405,-0.04891000208743969,0.09242105502839272,0.048162637694940946,0.013030870696482177,0.47967347962402546
-0.005562861733553592,0.08205656900644545,-0.031121734728975458,-0.05653967474287396,0.07396483990913297,0.044753292810466624,0.02786040901585022,0.5181079573862784
-0.03584072385291279,0.11263829531262594,-0.058571814372600436,-0.07958217611730974,0.015364128863625018,0.021742920525704926,-0.04694482958453551,0.49933535348554586
-0.03201124325188916,0.09878033210657859,-0.06516131230679367,-0.08530595057590312,0.005737770380146171,3.6576987577730674E-4,-0.07576777029623274,0.4605420348540515
0.009640279677587458,0.10919764653730094,-0.005089289986831974,-0.02101708102221061,0.11123883266884005,0.08239198559307187,0.045144322979263005,0.444499712248725
-0.004747880423042159,0.08012669874544513,-0.03134580405038709,-0.043062077720044535,0.08889977181792463,0.048727446206615316,0.005607274631027396,0.5713013985774714
-0.0360332851072899,0.09718998936973887,-0.06931341678495383,-0.08260102127823787,0.012559103964860669,-0.004992175369453987,-0.029374519491002234,0.48216746529940846
0.0036666810151962733,0.07142631394413346,-0.00533917414001079,-0.021310539491335163,0.08056084228195524,0.0733669382024413,0.023914549315157796,0.5314624065160647
-0.005106706832337489,0.0705864004440924,-0.014422591125741985,-0.032340486603732094,0.10369440258566129,0.06561861998147517,0.03129996096240286,0.49481559623126026
-0.018078882385880318,0.11500350939275336,-0.038489488194666355,-0.05612522024895833,0.06286931071026328,0.03160567948084737,-0.011674636237500886,0.4625036020677431
-0.022160504240605103,0.06757130605131823,-0.03938978054416134,-0.054074998326802515,0.04396659441384308,0.017240205408740862,-0.01581067983167226,0.4623178249251251
0.009770015671542794,0.0940944649633167,0.0017572245863389235,-0.03938025302669142,0.08955895699584156,0.05558621651999663,0.04663213557208534,0.47679804561365535
0.00165457192389212,0.09274819845528322,-0.02112237607244609,-0.041413518436498264,0.06529754250712472,0.03449697807884751,0.0038512686926692173,0.4934898831223802
-0.03606173525480606,0.089621948194784,-0.039147205495900846,-0.0787531460476811,0.02267260896684031,-0.012648482047668561,-0.06989844620495858,0.47671761379627536
0.016641357106902916,0.08682386776874641,-0.002762904916045285,-0.008687560404737255,0.11607960610897382,0.08712674489695604,0.027716580583608895,0.5048964874220024
0.011874245257325017,0.10303701222446471,-0.007291199369865012,-0.035063825814437906,0.10589621045351576,0.05156684060375685,0.007845051926964237,0.5075699137519645
-0.01276284769338537,0.0900653059475113,-0.03127418855718504,-0.058137637645384065,0.05806266238061339,0.020714666398120783,-0.0381444166454982,0.4481903387315736
0.002695368060578042,0.10186221172286568,0.0016796177048306535,-0.026877770316248918,0.061831757236875326,0.04996970615120868,-0.013426379207475567,0.5546424320221996
0.02986080326825992,0.06764996120541203,0.013290471339522852,0.010129396782399616,0.15818262208083816,0.10555337143688205,0.05488859257663906,0.48846963157995654
0.020676688199913973,0.11319055857442048,-0.0036930486323543954,-0.013413987355186296,0.11205342870679583,0.07803111562609615,0.0446136629481759,0.4872025633252225
-0.012404496945130175,0.0797965150244,-0.027715630294001266,-0.044997036887588014,0.08954442208071374,0.019081947443097713,-0.029948406794051034,0.585994421209699
0.03848674913468008,0.11015010963414223,0.030634413307656656,0.03202697052103767,0.14993792599390413,0.11838962243093709,0.06751471738237003,0.5131512873073123
0.04290268210751954,0.13074396400057386,0.0333158561029912,0.022319180509572073,0.17032981602923544,0.10214884650364274,0.07481773595850948,0.5822666751171751
0.0349659758470747,0.12061794036449346,0.0017420453307145228,-0.0048988254678215895,0.1191628792559741,0.10167144390741635,0.0284282196398917,0.5247696491836504
0.018217482853794,0.09319059293621942,-0.004918077197150907,-0.008531695034270786,0.08236734169184266,0.032040633114328386,0.020394077879943146,0.4811038666866817
0.053235077509517975,0.14087345282208363,0.054812854298831586,0.05638918997590022,0.19210724005618657,0.13211979043335306,0.09242834704690829,0.5034143253914701
0.0539242400320602,0.09057608058195596,0.04065452671712093,0.03825207271678718,0.13636857754058795,0.14339630503686998,0.06038092848363316,0.5580439997709632
0.02108862350682484,0.09657840893212061,0.007403522480411748,0.00866968329942025,0.1319450565091122,0.06640491571270449,0.029309271811199966,0.5420247956687246
0.02896106459648352,0.09973572565811722,0.021515923763377826,0.013545392646786239,0.10387531571988151,0.04943678632000817,5.563777165862168E-4,0.5095493210867784
0.05452522294043655,0.10357113760517173,0.05841588951051013,0.04534015035828386,0.18106457290141498,0.14323003577165966,0.09400650914349691,0.5805737417882302
0.04752638316276953,0.13155521668743003,0.030137120152261727,0.019944894225774397,0.15970107106075657,0.09888630170438653,0.04298015993623056,0.5495566089667341
0.02111779610379548,0.10758754302479337,-0.014498534675218909,-0.02217500197696968,0.08599506233125637,0.06671119099663657,0.0011122291633751,0.5705166184486853
0.02759974080251365,0.11036770237520614,1.912050192490189E-4,-0.014110348723872845,0.07939503318491324,0.07516622888007046,0.011295341358942052,0.4952169705959886
0.039663778852712474,0.11458401196398574,0.027933262286200897,0.016046314461078286,0.13666535621384523,0.12859892019161162,0.047193789145521914,0.552637468868982
0.024041120351147433,0.09463327715530283,0.003963506600440217,-0.005871490045524327,0.1235371922323068,0.06974703258777412,0.003404057218660685,0.4254934898558502
0.003514965510776651,0.10634037295737514,-0.03417563941872654,-0.04118761478235948,0.061535176824589255,0.018417969878860237,-0.026024423547006265,0.5248825759723428
0.025391742125516852,0.0940554463391301,0.02174728975905163,0.0019261492950536224,0.12917663516571448,0.07880574968873193,-2.5450994093632905E-4,0.5508112288005695
0.02789666096005225,0.11334516990860935,-0.0027915564038053856,-0.005018662552646769,0.11629991145262633,0.08025063169225202,0.0032976242526508654,0.4369392125742569
0.010754003339184363,0.08907964396583277,-0.01695182883649936,-0.016879080169755742,0.08379627475322796,0.033921196981494685,-0.04607189000455662,0.5584211210194554
-0.022138590283964782,0.11634995514816665,-0.05476650729116861,-0.06700268736801575,0.034513568343453885,-0.033153545759439386,-0.07626673810526025,0.5405299946923728
0.03144650256923602,0.09068168093069161,0.013388758154020186,-0.012117543379417159,0.12138454476292512,0.09347625920018444,-0.013493804648109481,0.535187444106498
0.005408461598157486,0.11242093720734243,-0.018763429819522583,-0.028777855853878563,0.1203422873910137,0.0836875146378168,-0.0028486393138675813,0.5051544302401103
5.634939768761294E-4,0.08208987529046885,-0.04841615715321806,-0.06021348077883631,0.06538139402638564,0.01651204787812538,-0.0549756179752722,0.5579545412124465
-0.011243803608781747,0.08202140167755813,-0.03941581625073568,-0.08348509361314449,0.029807830818699532,-0.005997786059129331,-0.06167205750179788,0.4971627131047298
0.01747046154508046,0.1056424346283549,-0.0017372960902301143,-0.03612281458735926,0.12263164836424995,0.08451720560606402,0.012578170974153454,0.5598513145552725
-2.497968909340436E-4,0.10100370114143625,-0.03516459159551555,-0.05461426725275566,0.10068011102068863,0.030043799026794875,-0.04095024478714315,0.4694628343397702
-0.016124908057616773,0.08336047085353054,-0.06372512933752487,-0.09723839245692781,0.014615559524205969,-0.025871538585318606,-0.07887642096675013,0.44029097943139506
0.0012429898882446873,0.1000206558717079,-0.0468822719385407,-0.0680215125083016,0.06752939348072273,0.019685502191543282,-0.04212230606999104,0.48116883248916503
0.013842123176587276,0.0913096187659445,-0.02311453494950927,-0.043343293691223264,0.10823594877662923,0.07377092579118202,0.0018921494803221459,0.47373767866959315
-0.007072943328196548,0.08204869702485984,-0.04793817831961032,-0.06331469192888622,0.0672144345267085,0.008864061069646071,-0.06000410554722614,0.4841511591183139
-0.0350417094639876,0.11261935049380138,-0.09712428064685767,-0.12278321756975681,-0.01848618807285739,-0.04045801929922529,-0.11065927359258032,0.4207431316050361
-0.003055494518393375,0.08373258350924084,-0.032442252008107714,-0.059113641136156546,0.08736165428959117,0.038029884102930914,-0.01551088300299494,0.597423698775863
-0.016771140158010445,0.12497448136782167,-0.045818336478911176,-0.08419956115042417,0.08418635343174438,-0.00267100002994421,-0.045532019786857746,0.4794976666336943
-0.04133978177269095,0.11951855091817454,-0.08466611800854079,-0.1170695691174973,0.02751831806812493,-0.0446150425709787,-0.0922004588892797,0.5448126292476346
-0.03884130970869908,0.06831508081629928,-0.08724544211842485,-0.11885261229768782,-0.02341308792584758,-0.05409524728145614,-0.09807567815156143,0.47781790308816036
-0.012298515711160567,0.09436994665994904,-0.06534362310218161,-0.07506309680940218,0.07471169523344064,0.023604716264674884,-0.06828970911847602,0.5079244281991655
-0.023657744842038027,0.1064220555962215,-0.06979053229728947,-0.11866421893022117,0.030225910649377092,-0.02715916195663701,-0.07800780720349745,0.6159294391399087
-0.06609906511503212,0.08664366070125591,-0.11244761458423125,-0.14681292311849384,-0.015855328347580726,-0.09279341484191264,-0.1680359485572167,0.5306854046849839
-0.04051234446956618,0.1029040209916728,-0.0715259042982324,-0.11302137230655954,0.04516045282900044,-0.03880929197591222,-0.07942238428900333,0.5071837103060024
-0.02023375242582393,0.07896683404939303,-0.07737228915965651,-0.10728203068967529,0.04812343678220973,-0.0038740390358716695,-0.06632878323839494,0.4854206852417994
-0.03477740130872864,0.10860321362370397,-0.09202224528070542,-0.13212597682838553,0.01336634235889093,-0.04531327294877467,-0.12584892720088126,0.5249761673186938
-0.07499701452515127,0.09906103807590592,-0.1309395011532072,-0.15127716344008424,-0.023555851115203842,-0.08950085614987908,-0.1456869539084792,0.4466773733262064
-0.005534156983013774,0.09117774891146217,-0.05207013878078748,-0.08654095826605301,0.06765488949429428,-0.0136020376798189,-0.049681404447510374,0.5309800659639852
-0.03573070533795511,0.10287893202118444,-0.07868965215973964,-0.10661857557131224,0.03184569753483646,-0.004524775850787255,-0.07880244240484878,0.6118418146517095
-0.057114985253652016,0.09290798526657439,-0.11823763106112212,-0.1557749469848472,-0.015002962250940133,-0.07687416558664462,-0.13883005437071158,0.4950748939747126
-0.04252836795128665,0.10364741207312175,-0.08729973861709953,-0.1073042035040847,-0.00569435231960886,-0.03135265526386398,-0.1089647529982747,0.4517273770485827
-0.025151762819449933,0.09191840935911072,-0.06265188030652469,-0.0936390902021519,0.06422093534763404,-0.007535836653544053,-0.04483093282062403,0.575633497053269
-0.02649999882625581,0.08698503575016057,-0.08844339676496181,-0.11910497062265016,0.019706166500071017,-0.03611744427385178,-0.09703842982358285,0.4558560210328536
-0.06361316668610664,0.07320106482864466,-0.10383310555973924,-0.14411776767642742,-0.03687073051349138,-0.07753700877878214,-0.1431694201042258,0.5282414443373302
-0.013530757749251235,0.11381089442877339,-0.04725089600257994,-0.08793805468363036,0.08230825119081239,0.026216201963471995,-0.046278452512934554,0.5920018878698121
-0.023672832392598927,0.10726444236133131,-0.06448519947996266,-0.09794822429906357,0.03205405927596145,0.0011633592343946522,-0.05087745963152718,0.6017633005211471
-0.042535122222441865,0.10052401630863372,-0.09044991752103373,-0.12367352274574693,-0.019287116878616395,-0.04504753572030503,-0.09763311902007128,0.5285679720457489
-0.02333507998386339,0.09177178807652815,-0.06930598080678035,-0.10470463905968234,0.025544231094676486,-0.009915626807136334,-0.06884286021976181,0.5182324523803565
-0.01957328085169443,0.09823771101524145,-0.053718535957199776,-0.07522471618402282,0.06618177182144756,0.02111492697082399,-0.06056488661709594,0.48951743340640813
-0.021712072479800282,0.08939938798513766,-0.07386449110053205,-0.1028154949923605,0.014551965390741326,-0.022386557622820887,-0.09246335258595528,0.5382963881513152
-0.038009565148810404,0.0785265694657897,-0.07558096899770828,-0.11037232737228479,-0.02479927419217523,-0.06054667028372355,-0.1091445144201996,0.48780358500868454
-0.010093692667683674,0.10952411299206144,-0.036331996244226686,-0.06579863883748588,0.08024422055561671,0.03702839260234721,-0.014009247926857024,0.5234076336652584
-0.021232680800158766,0.092981849909667,-0.053918574412782014,-0.08816613846112209,0.07439695245045541,0.004998158455365453,-0.05852654033780991,0.5834886750029392
-0.042359406395934066,0.09692548105716497,-0.08756355627368453,-0.11310018184355893,0.0036244720407920383,-0.054055467526575876,-0.1257759025905858,0.44343622458975934
-0.015043846975794407,0.110157892647537,-0.039837471826356934,-0.0702410498379894,0.04359301761180628,0.03802642850390505,-0.023746952065806883,0.4422914911890797
0.002601704675743635,0.10706330950334932,-0.027868286173327417,-0.05019840255891142,0.07475030987859725,0.03967642200106002,-0.037282676224937764,0.5732643203024979
-0.017629524964556886,0.07926617538995816,-0.04009983383455362,-0.0924888409942212,0.05459434664322225,0.016780429955966854,-0.057577276647105546,0.4860863435876238
-0.023545737380277106,0.08320460274176386,-0.0734082610914824,-0.08533349952997613,0.024818791568086588,0.0064486076630590645,-0.0626054875691483,0.5408395198707233
0.01423022128028638,0.1064902182647808,-0.011785406302901272,-0.028717591314357492,0.12642580701471956,0.05539032248616501,0.025480354617477958,0.5271987453130264
-0.0029662832713377918,0.09700862805252888,-0.00900689894232522,-0.041362207773360374,0.09897790880720898,0.06341533894746076,-0.002751761438224587,0.4345733286390187
-0.027264390339237974,0.1064823988172409,-0.04038015333811724,-0.08061684503733674,0.04541099049429222,-9.462700975623982E-4,-0.0645522052858103,0.44838349026151014
0.02572831127470889,0.11848668175734153,-0.001797488787637802,-0.012418767284774635,0.11475146512092288,0.0803893222935203,0.009270577917505005,0.5487399904665744
0.030551466549233346,0.11014423673563331,0.028055490708398287,-0.006262660694905983,0.11802996627029692,0.09649246095735771,0.03826253173799793,0.5481308850862079
0.022108273282816445,0.09625893785547168,-0.011107516992967616,-0.045788290633820936,0.06930347312518463,0.055338952487092016,0.02908724438675824,0.5598824778322817
0.010774541400352885,0.09722189057010508,-0.008335227043342767,-0.03552754706277322,0.07576531227972824,0.04771545515854039,0.006282339089090634,0.5340169262600333
0.04478947382174436,0.09705967119201547,0.030374258843828536,0.005721967672425946,0.16744318900696117,0.14058707767988557,0.07182669290675517,0.5550273254832926
0.019286931198834515,0.1243709935610035,0.01661739876457924,-0.0060571100414935145,0.14686932809064066,0.10258821694715856,0.03917386813623258,0.5346343288205518
0.01209286930659838,0.1021045943909621,-0.03047356841788563,-0.02620657691448277,0.10384085875399053,0.05653809884753415,0.007969746122875696,0.5398355436721263
0.03168480171039735,0.1063046884199841,0.031502387158222754,-0.002651520031502534,0.12738103111451957,0.11664290701483551,0.0783636173260745,0.5215434939994381
0.03715916757858099,0.11471089311189113,0.021505149347526967,0.01360608191528244,0.16735208589007167,0.1393733588800226,0.06310954927642819,0.4754745034577834
0.020823440268656762,0.09406503642213725,0.013260470840984626,-0.009741933061342994,0.1260979485142015,0.09502967289237294,0.04628988529617396,0.5206190742457015
0.0038786364619204303,0.11199772473125187,-0.005144292918593883,-0.031017194939656458,0.08251776205171023,0.056063011412516836,-0.0013666994632744092,0.5988592519177316
0.039296887949861595,0.07818328460514923,0.04700307039486229,0.016255278101558295,0.17338013452092038,0.14614609509636564,0.08683419317737871,0.5240207582529204
0.039657773170749124,0.10119357535305376,0.018495318558321275,0.0014078758327148028,0.1207653386592907,0.10636697628274754,0.059375541267585145,0.6047423561049148
0.005269467218624241,0.06923191345179973,-0.011328527256358127,-0.034909029643531195,0.0860225628725255,0.08431238926989239,0.007172849628084725,0.4980785942468328
-0.0024657980037705272,0.09443873390850625,-0.014609868569047349,-0.023225400067209488,0.0877492830675436,0.06120520446667138,0.018764718565127368,0.5166591651030649
0.031716050827949836,0.09705347814048042,0.02758993134242172,0.018824514353598408,0.16516330598592915,0.13263750620736,0.07052903059044306,0.5950295906443562
0.026045557526074334,0.09686402512872358,0.00677413928339797,0.0034904621765254815,0.10901446095762282,0.1042132814812739,0.07298267994558776,0.48023330460398145
-0.005318035894496247,0.0721808728217237,-0.03259276070989567,-0.050615723469285126,0.07533671468953547,0.06816655178375315,-0.012466814861410186,0.5253509057432989
0.019419318930521238,0.09302553821496934,-0.009718660141291705,-0.030171776444024544,0.09145923293736895,0.09334972904896056,0.02368580285455473,0.4954784714326388
0.03412794692555496,0.09094617287943228,0.025701290324228528,-0.001557430634209843,0.14165058218857388,0.12268859465023502,0.06152150330177718,0.6450303187521125
0.022145983424571858,0.11313126129708602,0.007774362279583155,-0.01846298170119758,0.11858666057737524,0.09157779528395806,0.018871090802364016,0.5435192169196499
-0.016513654096750364,0.09193675363059804,-0.051884574254472175,-0.06529609055656593,0.04547093262839586,0.021930331556311806,-0.026792102492267232,0.5035857936543278
0.011616161113508926,0.1145025347294917,-0.013264211519791215,-0.041232005621025324,0.0974789355476945,0.08227109014285285,0.039547082224423755,0.4729427023236161
0.025663489123419113,0.09007110359490297,0.022124359456129748,-6.114783672073881E-4,0.12146311860996961,0.1057057652977224,0.07494730090879288,0.5891852670971365
0.0038406439463110897,0.09397977860735286,-0.014941238190041284,-0.02722278774895283,0.1057799272481703,0.07768869524174454,0.018080578310014733,0.39730905474782574
-0.025519831399895526,0.07358193348805554,-0.06347648453766921,-0.07724607671170566,0.011509218759741282,0.005700717501651739,-0.06900807801459234,0.4190829151611376
-0.006312611773411282,0.08247265029066016,-0.014363583929631142,-0.03574299921676216,0.07585142936706264,0.047382287522033294,0.03301584365684501,0.4113816660561613
0.003906916527672724,0.08795110691890264,-0.012518264510259364,-0.037759454427656026,0.08760482501682872,0.0854167963698277,0.021188047296293533,0.4999549436555682
-0.02014461855978338,0.09933941458942759,-0.03513505710255633,-0.048569585225912676,0.053567561009618306,0.03336072710366163,-0.014218979837218626,0.5454086693915181
-0.04484532522348157,0.08454961781102863,-0.07151380706595892,-0.09512444820889998,-0.02410395315147421,-0.02665547917976421,-0.06765748103387073,0.4875000204750394
0.005734085144638173,0.10455150880446808,-0.02186935813653222,-0.02784846285547799,0.07483360034878195,0.05647851980369941,0.003441034846338213,0.5486451631141824
-0.010075613467460658,0.1053333701405677,-0.030511001286635312,-0.05573432617937853,0.050976833500301716,0.02846735001288409,-0.027365781653159234,0.5819862554235751
-0.03957190440660537,0.08407512816762427,-0.08055902553479106,-0.08749470634044713,0.007577349532989991,-0.011609748324853628,-0.08048587644483939,0.5156039730943688
-0.04544912544694391,0.08157426517704591,-0.07136841452869222,-0.1058914330951506,-0.05072447734119438,-0.03243027924641296,-0.11335668753521873,0.5399816676400687
0.008347368764778628,0.10096149248794761,-0.01985601664243526,-0.05361702888513984,0.0677693876476966,0.03558483215846257,0.020222996768888155,0.48104940009170943
-0.01548354700231884,0.09184185471885868,-0.050227518761346596,-0.07386363892462136,0.021369428367063355,0.006159540882010331,-0.03917853759514927,0.5122900768996603
-0.05775074672883143,0.08182796723186325,-0.09703802370284415,-0.12893032067342572,-0.06156514932834352,-0.04335944376225344,-0.08723516843757874,0.4281251654171866
-0.030729963836407505,0.11524867127265803,-0.056125739642956855,-0.08533421290330989,-0.00835479351501428,0.010352108066178537,-0.05932367609223692,0.4672704735365959
-0.005878389977430509,0.09607987777905658,-0.03569901570067357,-0.0635986448683911,0.04393801615217024,0.03627632813116453,-1.554764311726426E-4,0.44465088711419515
-0.02731256379716449,0.11157767405097449,-0.049116956348917745,-0.09055015964374866,0.0032230145615108063,0.006370434960620628,-0.05249663723557142,0.483331580061102
-0.07241970829324187,0.07925294782765367,-0.10978238718963776,-0.13626170124409157,-0.0772348220664503,-0.07679445854814629,-0.11164443425995108,0.5171170602715598
-0.010491173999709214,0.06636413795188703,-0.032228771846687224,-0.06116709046559239,0.039562082698521836,0.04992567394086255,-0.004941630575962665,0.40083783393061073
-0.014258075135732285,0.1100089846094894,-0.04022255139263317,-0.07356160838438239,0.02664488902244761,0.04929673726166789,-0.008908904013059096,0.5292845720446797
-0.03716415870278081,0.1270506599327686,-0.07316540088868534,-0.0973772424156828,-0.02400514175721298,-0.005742747505778563,-0.0697603424477481,0.3952218911918905
-0.0638249322601478,0.1214596839848976,-0.08296640700953331,-0.1193760963165337,-0.06801475439177997,-0.02407495934505207,-0.09449463263578153,0.45134988109564655
-0.004974592300320911,0.08873474875063372,-0.024764121557410163,-0.06302472037668619,0.02611260721180162,0.06036168269942579,0.005095730807796358,0.5535094128780911
-0.03681830849178977,0.09580101459541912,-0.05005895288039587,-0.0961891982796774,-0.008191445766476332,0.016594281949577454,-0.00406051200425987,0.47154003901372793
-0.07618665625011309,0.10850988594498812,-0.0969635983571,-0.14276616851896207,-0.05024652271068475,-0.03750965389958009,-0.07532269024597397,0.4461556809073038
-0.05733258839701166,0.10280272169831961,-0.06828830746207634,-0.08958861829546623,-0.03296105862871761,0.00713375326250393,-0.028870244896011407,0.4015591077715344
-0.02457905562220576,0.09962263424146613,-0.057646612509504355,-0.07512190153293521,0.02317864381851328,0.06008317723290219,0.019865020978174948,0.5181280769803909
-0.060366781636760555,0.10314112348008612,-0.0803511031788508,-0.10683606873304177,-0.024749196951127934,0.021158672983174972,-0.04211246394344179,0.4715194846873567
-0.07925363703810216,0.08880118477433958,-0.09979238636873397,-0.12355732205709548,-0.06801030356525169,-0.030819364191589815,-0.0714730198914671,0.5600902127692908
-0.020073205599817255,0.10203548743092261,-0.036430883930017526,-0.0703528034132614,0.02386099522078368,0.10551527437130037,0.02931000581034547,0.5342928569255041
-0.03540172308339972,0.08460627945581965,-0.05190777289704367,-0.09061812643770953,0.009749759821728023,0.038274939038345154,-0.008591068374963089,0.4451606593363582
-0.06372586472776404,0.09150240034294112,-0.08247450237432513,-0.1242175964282372,-0.05126447666437317,-0.01130563465676921,-0.04798430358983708,0.47238180461910984
-0.023364652258135887,0.09252050061580006,-0.03967546280560817,-0.07431630752388539,-5.219202152280181E-4,0.05572461723519526,-0.015415061848535137,0.5284099357512975
-0.014843578578732908,0.10652079925122344,-0.022489141202222205,-0.050400148149477755,0.030748982642392248,0.07675990701383077,0.011172849814240299,0.555819174380835
-0.043330731687628674,0.11386221745653216,-0.035235458547750766,-0.07544853313736725,0.013345214474207688,0.05999622631210202,-0.018625228635584617,0.5664316469346325
-0.04564319189750925,0.0708836543025616,-0.04924093644859618,-0.08200897051092007,-0.030652238532360706,0.02813393962570679,-0.04200161098898054,0.4263645680299041
0.018357631366292065,0.10472927797044398,0.019143751647447145,-0.012062598596659646,0.05443371735622061,0.13551164176396444,0.06354365927946787,0.517881304182159
0.00726657639293468,0.11738098943140182,-0.007604409878403558,-0.02982183804005847,0.0647110662330958,0.06714671732165925,0.02550337380744353,0.5569989993740749
-0.02965172717473989,0.09515486959142692,-0.04182597400368427,-0.06275373731184512,-1.1731071050880004E-4,0.05438848018414573,-0.011125720570479223,0.5001374970623038
-0.002119631821054049,0.11485627739464786,0.016781413424976382,-0.005631618992612025,0.03322287812726988,0.08272618804583273,0.045981932389089715,0.5366789035666306
0.013468484328309145,0.10442852196678704,0.03631658760507729,0.014037176560376785,0.09642762513612793,0.15853040775878216,0.09436616777254801,0.4852318687728617
-0.002179380823082423,0.10645566852323726,0.0048917679333563835,-0.004851656133971101,0.046788468565943486,0.10044524794282042,0.056080350304901855,0.544475071442362
-0.02506050034080221,0.09367810237045329,-0.023976173214051648,-0.04848173242298365,3.546842106105785E-5,0.05258618471256864,-0.02974421994334794,0.4993686241560564
0.040489346710404495,0.14660353147844443,0.04222218288099115,0.032599768630686546,0.07857944088781248,0.15214219081463487,0.0917501882059803,0.5223141133058389
0.027460069918246184,0.11958798946253801,0.02105763111762328,0.006125386867130628,0.08082989332199975,0.13456326494221774,0.08239990186347429,0.540464124421693
-7.575008708312839E-4,0.13344622737864364,-0.0130244090161344,-0.04341251766543462,0.0318290767605867,0.07558297188720949,0.04407753409443716,0.5400592525588193
0.009244639940387375,0.10069019901343929,0.006899154888925493,-0.006478668400461136,0.0362912420285202,0.06871041181837187,0.03877622164747482,0.5141596310835654
0.0338157499579708,0.12377889736845007,0.04630514970931247,0.020115618545540483,0.0755902542622135,0.1317533717328962,0.09167806854565119,0.5281694591014549
0.0305871476911736,0.11541277014744009,0.010891981074577839,6.337264789371758E-4,0.0575928426704608,0.11042808987039683,0.045771414197549126,0.4547199160944962
-0.014179350351740679,0.1110846226191432,-0.01961520556471731,-0.04775221142838518,0.02050250338688931,0.05623310649949538,0.003330995576824647,0.4606256744020612
0.03407130464251385,0.10457902044564932,0.04678618563681487,0.02550561876614932,0.05990317000101087,0.11716585068915789,0.061874012824805806,0.5122625327213339
0.041375886112315484,0.1256192545753682,0.036216428325898664,0.021866509499895978,0.05882801737499718,0.12491864016566466,0.0524404756954978,0.5782321967867421
0.011311301890886959,0.11417328359821091,0.014674066474226338,-0.02369059395749072,0.043764767265923564,0.07115962467018991,0.024543343586703646,0.4716824522990617
