0.027388744943331288,-0.01664545787109482,0.034627849014271087,0.04763201992688301,0.029079296478431542,0.024786389299029616,0.033959116804631234,-0.16369763320182107
0.027138748410305162,-0.022947308391902652,0.02904158739526533,0.04665431344733528,0.028059812050204934,0.029540630307140454,0.027835487972990233,-0.1750044271926248
0.024576399145115915,-0.03464919633582357,0.02132490303545588,0.03527484117089385,0.025908232036629997,0.028494330980733402,0.028481241811521757,-0.1708018575665579
0.02734337548446463,-0.017110442026500333,0.03540666621232221,0.0481359390728794,0.03127822492878511,0.029502505526860557,0.02700562963648863,-0.14928715566292328
0.029144578775532226,-0.01152430590306387,0.03817634703777894,0.048173252910465265,0.02939960488632061,0.03113686610157543,0.02908668313474147,-0.15230070276682814
0.02941096110168137,-0.009833704429024702,0.03384321692103005,0.04569365315026369,0.026701865289436282,0.027483443948565014,0.026021766646480843,-0.16373808523472597
0.024401961410196866,-0.02292100056989594,0.02646260150363658,0.03684012177811566,0.027068477639272323,0.025657265870322212,0.02813163071126417,-0.16781809543424003
0.02362074236523255,-0.034783876354538355,0.018926584622809207,0.03673651751058765,0.03030083420111831,0.03182951181088007,0.0268072481028404,-0.1651736091236978
0.024942240328807957,-0.01733588024165269,0.03267499398148207,0.04291585532077026,0.0265859017695221,0.028924769536015447,0.029841209021127305,-0.15711783222815087
0.025875041697904295,-0.017659103006982615,0.03188320554838066,0.03787376054363988,0.03337411119953039,0.02630751160257358,0.026757157502904274,-0.16048422277098406
0.023635345776032872,-0.01994892799667803,0.02466749106758694,0.03765482746632722,0.027145344898181666,0.02510519674405187,0.02394055956119282,-0.16105848376377252
0.02309906481710099,-0.031375344419078875,0.015980851604273295,0.029001119611167834,0.026811836731601025,0.02749864643251424,0.021368196127344856,-0.17007473101783277
0.01968016170311509,-0.035313108854866514,0.017238006392812154,0.029244396612497107,0.025670865331190278,0.023712713906456986,0.023381448853277174,-0.16074603104983665
0.0250603741173783,-0.01947340218582683,0.02425922894425209,0.03290656417489573,0.023655081437734562,0.02468354433531881,0.028265090861999145,-0.15529676708346188
0.025255302603661177,-0.022986027682243292,0.01958252954944517,0.031259716787524566,0.030991065454539484,0.025267703213873366,0.029159635258988566,-0.15765263084516984
0.020901764635357898,-0.03090802650764041,0.013346856763561774,0.02465034818881736,0.030801816983164542,0.02511807624514866,0.02024526218542324,-0.16568657045896823
0.019866167933193204,-0.045455552430916514,0.00268409058914298,0.016709665063393244,0.02825060041785558,0.019808860492733088,0.02323732095320824,-0.1673920253550514
0.021078737044025783,-0.03367055599688559,0.013975803449201013,0.02424392483047181,0.026456509858965922,0.024411009396068425,0.02711363741272792,-0.15809150841370484
0.021289838502881568,-0.028425905676238726,0.012690586758802828,0.025816246644966137,0.025488583150249794,0.01970614825233287,0.0239534138912706,-0.1594333050167367
0.02032463708038416,-0.03158183587324764,0.011850082576580781,0.01948480269031555,0.02812258153980172,0.015604272846979891,0.021229316949035546,-0.16645683112352253
0.018288990926448437,-0.04824408140089523,0.0018417062904608355,0.015024817809645713,0.020248346276472064,0.021940530344622237,0.01896237352656279,-0.18026565366039538
0.019459619140178727,-0.04783638709697179,0.0027644691884935457,0.01311656740321809,0.020426148058154632,0.01714046057892588,0.021813196985414465,-0.17245421202899064
0.021451976208701706,-0.03547837134150775,0.01050942915767024,0.023021147417802736,0.021742259018417854,0.02014356226542089,0.020344609936148474,-0.1706852555208785
0.01634911594865067,-0.04203584699812709,0.007415695092495348,0.01811840153368941,0.02312773613924521,0.012906231610366527,0.01686505026205442,-0.17253507348380853
0.01784659866273376,-0.04971830313482095,-0.0017582820407490275,0.010045289452760588,0.021836278485204495,0.0162023104568811,0.016023456570872393,-0.1677061552391859
0.013443606348270106,-0.06051860869700959,-0.007109445944797139,0.012774244417562456,0.021166566148015223,0.015157001650243525,0.012791896904376146,-0.17468093483511388
0.020956925468765413,-0.038029271267444924,0.010788357520229164,0.0187847747903755,0.019383367696089573,0.015121056235298188,0.015038519112010214,-0.14921141026430537
0.02031813172657938,-0.042067147178928566,0.006503574442885794,0.018864102003308826,0.02281503335913612,0.01487198827057505,0.017102188098974888,-0.14774350132546396
0.016328694127167868,-0.04734830631797908,0.0016491435093505898,0.014398490789845871,0.02108482737036596,0.011638219265901542,0.015429490666707695,-0.14499562999455948
0.011782042096002712,-0.062207388737803446,-0.00610992322668129,0.010105530029012608,0.013791440173381093,0.008107357124640021,0.013861353251897605,-0.15459142430022896
0.01884039061233044,-0.039867256806858105,0.00817899766861898,0.018427875519989978,0.024299657639078393,0.014561654965235232,0.015284783717844358,-0.16000685207963444
0.01982896039541974,-0.04413066883837003,0.008988162109367818,0.01784355277194327,0.017423420356027036,0.013976794773592876,0.012247263132562644,-0.15384393313298997
0.01756616017088587,-0.050740525676517045,0.002908444786233242,0.017186841447364522,0.012333677293000053,0.00859658982762596,0.00926494492972628,-0.15732400946214653
0.014730848574760976,-0.056671659275108095,-0.002698785577903212,0.010153870963265183,0.019442273991532227,0.0078530427002116,0.010370315726670833,-0.16814336941941668
0.021597922358515178,-0.03898160167911514,0.009054563420014912,0.022471214138413464,0.012342649922596725,0.00863125107027292,0.01577121352549954,-0.16310302691963138
0.022399783997498455,-0.040716957544211264,0.01275845031639104,0.028462126381842496,0.013172415335238356,0.003398059296141336,0.00840187156675397,-0.174040816268439
0.019819656679901664,-0.033725713687644945,0.010551052131898025,0.02537121857121018,0.012334385701561503,0.002866445229699279,0.0077954861424768575,-0.1855715957825954
0.024433784439280015,-0.04599581264036988,0.00489293056072121,0.023744539333406117,0.007344257830952661,7.323122370034796E-4,0.003963129678122619,-0.1974381574986524
0.023983411656959736,-0.034734985800891,0.01698705876436842,0.030178359460524655,0.0076680505488023595,-0.002270127441402387,0.00982418788893246,-0.19527629967870766
0.02823629393143622,-0.03190553875818496,0.016415813455824588,0.033298773878020105,0.007869727526058998,-0.0028504797716125832,0.0025734067025481437,-0.2011082042281134
0.023837043379481393,-0.03541001209278408,0.012372801638781478,0.028972870366458094,-0.0010419759799044062,1.1525315475025763E-4,5.043469419688688E-4,-0.20021843626776062
0.024683958228745403,-0.045504237835225024,0.012310803046511668,0.025922263401050298,0.003384112266901533,-0.0031257618611038288,-0.002980168689288791,-0.19817752931123478
0.030394601765677147,-0.025345777407780722,0.02155235408112692,0.037762507654538015,0.005630868042116406,0.003144412898311513,-0.0016471622780787924,-0.20625748207765493
0.028749565635277426,-0.0259252208532209,0.022053178787090108,0.03644641725729213,0.0030198222338680618,-0.004308236045948537,0.0031791236042627413,-0.20630045122700524
0.027434453494494068,-0.0353447779118821,0.021056049415360677,0.031213449925376027,0.0037544361278370217,-0.00547243025832776,-0.005235077023573424,-0.21363480375064003
0.0320103870952043,-0.022138168505079804,0.0241955345722847,0.036459161341983286,0.005609217241976745,-0.0063295287323293795,-0.00628184511252651,-0.21005192458063232
0.03947678704860982,-0.016279483901052647,0.03097194475870347,0.04134067225430957,0.009526087303982207,-0.0017536985869428022,-0.004014072299003055,-0.19726137737328509
0.03283562295137981,-0.016222248098633797,0.029100605004442448,0.03718235176709167,0.004285116485333761,-0.010036729384300322,-0.008795086869847205,-0.20752829860600025
0.03419448645219569,-0.02612729636696592,0.023282818861874135,0.03560886406115921,0.008427615456430995,-0.008628034351034231,-0.010876873873327959,-0.19825151999373483
0.03910509433637989,-0.008719708717955422,0.038053134396555936,0.04514177134699925,0.008345261856622184,-0.0026868052830366163,-0.006205014270198698,-0.1960454294149112
0.043469959134827145,-0.0030017410904075526,0.03953659143874143,0.04979819006774111,0.007661235960103643,-0.0015188333362239318,-0.007763005672142662,-0.1922511604656964
0.03776045248000605,-0.008929795496453388,0.03765267916060923,0.04795145769625604,0.007790154393678522,-0.006013731203847144,-0.010194045545231244,-0.204299009148396
0.041385320910889235,-0.010504527726053097,0.03746699518921266,0.047313743284039755,0.006870013850683524,-0.006235712911870821,-0.010478059040376773,-0.19581254917458182
0.04286268240520132,0.004404318124689224,0.04601322773984311,0.05188990745765275,0.01209560004087746,-0.003483777843421607,-0.010706781163203106,-0.19333854768180528
0.04562408633777299,-5.711882374883463E-4,0.04599015476340419,0.05442321826076877,0.004918464567126807,-0.007637268288419357,-0.00824335726516688,-0.19777497877470893
0.04435349439238009,-0.0038669161624232174,0.04189521306898062,0.05127259939620203,0.008075429436191934,-0.004213438450785733,-0.009054922876437402,-0.19702282319119754
0.046504940470863204,-0.0019077413932707872,0.04418493369254917,0.05133167538490667,0.0023678980433872497,-0.0022690756822226934,-0.011672554529904748,-0.19238475931759866
0.04920472935907647,0.005628319397726673,0.05083855981390022,0.05483430654565079,0.006292045826917421,-0.004377550343358287,-0.013763108337578713,-0.19564230586297415
0.047668973944375866,-0.0013949054001516452,0.04814048503215639,0.051879446215816916,0.0061013213445011896,-0.005544096506490914,-0.014009024616480013,-0.19139996069729862
0.04409154035318467,-0.0036202456199439423,0.04343384570189502,0.05339634522190976,0.010096368050853394,-0.00477433120380203,-0.014182528825475188,-0.19187113609927905
0.043175585487748545,-0.010928584147243845,0.04201896594431067,0.050312312854811005,0.007859758631892914,-0.0037684943279815307,-0.010353307643747,-0.1877603009488901
0.044243900229765126,6.169700318937218E-4,0.04732149904428517,0.057752674948322875,0.009336653632634787,-0.0031292073642230113,-0.012504607498189699,-0.18794983701834891
0.04421477973936166,0.0022080424545610823,0.04558576140776867,0.05427995402420079,0.01218477126445295,-0.0034078951664231766,-0.011975406262903344,-0.1857470519614148
0.04540836881432505,-0.006232862209015427,0.040322976380206633,0.048701991137732964,0.009380856289702593,-0.002957600451026712,-0.011073119626417863,-0.18857358988122705
0.04104392335861088,-0.015060299344564782,0.03376274161162362,0.04531358376941126,0.009044772481792465,-0.0011478131028087616,-0.010371300149484673,-0.19662514755485536
0.04225736917607585,-0.0079970377779387,0.04200699666789792,0.05112542775090109,0.010015745399195069,1.2018310501940226E-4,-0.009840575396374084,-0.18908697209173997
0.0393476412749773,-0.010959610063345851,0.035733998463662056,0.04979570300709161,0.01053910246482582,-3.741012509596378E-4,-0.011449969242262265,-0.19352087431247447
0.04127293089231514,-0.013877426129674025,0.03362003562274883,0.04105596892887215,0.006983376872640611,-0.00259176863177216,-0.009564364927407093,-0.20148593160771694
0.035605262608524584,-0.017454306135554817,0.029427818889403896,0.04200548557099991,0.014262145853301272,-0.002105399422454322,-0.005399840693823288,-0.1945809562713261
0.03941087205837153,-0.01112098078064338,0.03811766877946362,0.047637763623344834,0.009305574954301963,-0.002072942144287682,-0.008442636200094148,-0.19775996823956346
0.04194217990788828,-0.010477279899980844,0.0349547214299988,0.04205544862373029,0.0113786388512269,0.0023409606061175394,-0.009111341293444573,-0.18684274062962217
0.042042967419676884,-0.014812296760097545,0.03388983240328095,0.04070338461410221,0.01679182139341022,-0.0024609547550214065,-0.012411301497070289,-0.18668207354729402
0.03695647829649914,-0.021387715571616155,0.02912993206697075,0.0418808515797457,0.010095986114349635,0.003735047332059375,-0.0037425851628060955,-0.18763024504096062
0.040750467784111295,-0.009432949778454098,0.038883786618237076,0.04962949192564056,0.014783721593895884,0.007041670008497783,-0.001522045551184974,-0.1778440456044476
0.04107128924737779,5.759327897581138E-4,0.036561796305788465,0.05481033904541749,0.01793360687939417,0.002503176199682378,-0.006012552281825424,-0.1803748935833551
0.03746145320671646,-0.009584402965378125,0.035935582371424475,0.04741047896501005,0.01705594214004023,0.004509567269739878,-6.160839295795295E-4,-0.1838515435673511
0.039316425991807055,-0.01817118377364452,0.029986624376734286,0.04252305489459358,0.019190062804864946,0.009988654437317819,-3.50898173868337E-4,-0.18684335701619292
0.04444120655048114,-0.006575402283202125,0.03788547754361711,0.0560319922170719,0.022253331084655166,0.011363457309880138,0.0012319158392339053,-0.17421653667403314
0.042665457294851855,-0.008281240831956036,0.04107161192896639,0.05399920739999031,0.021431335205492546,0.007535819106687619,0.001677297361715499,-0.17598697386917048
0.042479025896479186,-0.011313189032580663,0.03584529064386135,0.04876131833088625,0.020325576795933782,0.00938061323192898,0.005054121892724542,-0.17375938971278876
0.038063729417292795,-0.019301442062635735,0.02823228172095103,0.04826676830651217,0.01604554546681227,0.004567152159935145,0.004006648183891983,-0.1749216501103944
0.03926997301968117,-0.0076074599065950295,0.039476429443363395,0.05286205250455621,0.0192291698763904,0.01496224664639711,0.01361090572863267,-0.17737131738862544
0.04462874518361717,-0.001492455585678375,0.04113399343175811,0.0599832724644237,0.02296739644205684,0.01492929238867647,0.007107136275909518,-0.16718120831373193
0.038937475901001065,-0.012382434424624878,0.03739199945497842,0.05264614912817708,0.020659249792674205,0.013897070694503199,0.01224845000756947,-0.17035760290772356
0.0394392443679215,-0.01530793478158195,0.03188456023158713,0.045842140874334594,0.017643280349139506,0.008935741358529883,0.004479657133306036,-0.17873440513124209
0.039749130126586305,-0.008058296190327559,0.03617454226704362,0.05342033274936039,0.021957137538765433,0.01482994178719689,0.013594868129779688,-0.16833564197158352
0.0416452063007704,-0.004479991369469832,0.041109631731185814,0.05839048716300319,0.02730681197708944,0.015596475899559925,0.013716170729935796,-0.16827628052239413
0.04265870771893494,-0.006428708837142953,0.034968939984199136,0.049844358781739616,0.019993240646053408,0.012173476443043955,0.008856110907384819,-0.1715978041781566
0.03281253867335262,-0.019287229414917874,0.028328141088975446,0.04315519680312138,0.015049188159466738,0.014647999930812644,0.005374864607689614,-0.17094490892373024
0.03530310309035237,-0.01545803482300856,0.03322626503927842,0.04346726356800772,0.01840410546056281,0.010096025707801545,0.009453965228859783,-0.16988325383421124
0.042484242729527846,-0.011410696164989803,0.03560350250822314,0.047607102309813465,0.025001837586348805,0.01223796394603374,0.013779028923418764,-0.1723343456500808
0.04075754253090476,-0.015819299017012272,0.029781278765703915,0.04476823702745732,0.014497464700681433,0.011764540156283152,0.009408318060897333,-0.18032595762257836
0.03653229016833208,-0.022245860235328856,0.02407505145967757,0.03146434020670596,0.01359365286903615,0.009524291806644623,0.005846903787985467,-0.1807217530278308
0.03412849129274513,-0.0281856238052223,0.027755841220925843,0.04248386925810261,0.015354193458496958,0.008164352675445985,0.007340549503152885,-0.17708509760066898
0.03660587940882217,-0.008872183528012596,0.03370801859420282,0.045353665500775596,0.015930993670273674,0.01243469891451191,0.00991691269691324,-0.17339145686324645
0.038426858142612735,-0.01284691537890174,0.03140106860543753,0.03923157129126515,0.019984010248690204,0.011573084697470435,0.008052865976756961,-0.16735431466140518
0.03528527047828474,-0.02325054966387992,0.023074426161661922,0.03775468425333308,0.01532447954432665,0.009126819558912487,0.01123286903889998,-0.17827866622354696
0.037433011636653746,-0.023894691069109047,0.027324927620817428,0.040000201551618146,0.0218539947109811,0.011340506730458099,0.011101110884143256,-0.16623884132886477
0.03495908790005885,-0.012573349036101,0.03277243653819882,0.042125715082724134,0.02075258522359993,0.010644932344348266,0.013001381728162417,-0.17292212405982083
0.034717942085404185,-0.01571850849618214,0.027929453984482277,0.04114594378854399,0.011963147016607396,0.00995235872871808,0.009206258993003324,-0.17707646897311582
0.03377385601710844,-0.0214278760409365,0.024078312563121852,0.03627599186434305,0.01674770712992763,0.007941529422036152,0.006242001322010328,-0.18210482739077266
0.035216365479091204,-0.017690794862324825,0.027495545857284396,0.03714100054440955,0.017157250124761537,0.008219152727888963,0.0141672067829425,-0.17730025881435027
0.04024642047495498,-0.01008857691824781,0.0344701428323333,0.04029435078114412,0.017801807097609104,0.008967275869335881,0.008445452628091188,-0.17461175827956474
0.04039894028024947,-0.010869638731833536,0.03280786980706564,0.041674233549204874,0.017805072685951544,0.010076992169563112,0.005867351338108825,-0.17125721534522095
0.037368292005116266,-0.020205750063111632,0.026081328696870045,0.034461501226649406,0.014015207114602055,0.0075327283535771405,0.0058843440469318175,-0.180690710020351
0.03481176220837298,-0.01713255994294884,0.02778479899458669,0.03795718091101388,0.014246406222172847,0.008305911638730052,0.008671766997099,-0.18622188315231236
0.04096966859700928,-0.0037549517330228124,0.0384488144718382,0.042712281299879314,0.016064684727577435,0.0029065394944977553,0.00531810571838361,-0.16615074949212935
0.041821160803723154,-0.013492429377727114,0.0322769809090081,0.04068712226658381,0.013567616203758699,0.006632376604458676,0.0016337863898783903,-0.1784408306396418
0.03483469831499154,-0.015463493401714212,0.028498052353966786,0.03747729503365773,0.016411956381632592,0.0040164410179859,-5.873561495239161E-5,-0.17957134945123004
0.039878410490860806,-0.012798939281508158,0.03436554468944872,0.03826343930881019,0.014998875922325919,0.005730935164224605,0.0015304181403819066,-0.17096917355251007
0.040945166268387755,-0.007080709316124796,0.03609885899437988,0.041363742443890794,0.011716516013415605,0.0029281148192633988,0.0021502178060026013,-0.17722994441123616
0.04179932521480672,-0.004413309369237188,0.03494707255092134,0.041420747235505,0.011536469712226962,0.0034069967331618544,-3.23035977838276E-4,-0.17686505197690194
0.04054775845634815,-0.011651131064880011,0.02982333037654309,0.04012559557300271,0.009420051104057737,0.0018824926856898841,-4.904546578125939E-4,-0.18691249581093736
0.04207409865528659,-0.010957041967704771,0.032581233491542023,0.04126156812684591,0.014701153724764897,0.0025634030142220325,-0.004403792243611037,-0.17897946402336695
0.04194469917152369,-0.00104933346357119,0.03731468323150858,0.04678153980956796,0.011389863224402177,0.003241602876524639,-0.0014253854187084693,-0.17611435292034064
0.04277608182477049,-0.007585976488120046,0.034055166021123344,0.0444348054098506,0.010808314495635785,-0.00600574245397847,-0.006788229346190442,-0.18509112593284135
0.04033039337098415,-0.012391928789761886,0.032078624300333494,0.033798730427719144,0.011756632129256093,-0.002652095393171396,-0.009872688371165183,-0.18130824119445813
0.04273851435816339,-0.01465445175101099,0.0328932382145403,0.03939072785890626,0.008360762167968548,-0.0020786842935127327,-0.013610531903499423,-0.19486286332752445
0.046678942513070226,-0.002426076124341774,0.038006317286510286,0.043168293236561885,0.011536253537969712,-0.001294388148206808,-0.011135333663341913,-0.1912393444141478
0.04347805760108505,-0.003488786642760736,0.036817754067602175,0.045975317237437634,0.010223822760340999,-0.00615632941515293,-0.013503513747843093,-0.18522482320371192
0.045225320495183775,-0.008610650444546335,0.03232441706119264,0.042032074570140104,0.0064056500152316785,-0.004797666219301202,-0.011044045328317707,-0.19253543459180994
0.04146111398659076,-0.01603931616739787,0.027364266462211736,0.036295780108448035,0.005956656762524613,-0.0032996450980804703,-0.012925262412684858,-0.17914230021833288
0.04673502431280867,-0.004589680272722458,0.039006172834952876,0.04284768537829724,0.010682677887377205,-0.00355826678764555,-0.01550907625644496,-0.17185028381057935
0.04750791829187335,-0.0015686223005810425,0.03960552422534923,0.043670657506987495,0.0051995873268538325,-0.0058201697473681206,-0.01925167116251314,-0.20000791282603564
0.04320884823313209,-0.009146804145704844,0.03309492122021932,0.03876432619491081,0.006506843523292216,-0.008647171140917793,-0.01784071750792189,-0.20386820234080347
0.041221439245224444,-0.012825096160651164,0.029204492188690746,0.03594709501515199,0.0038582618278035197,-0.013682792099248085,-0.018055901720873138,-0.20302270887085322
0.04333218074776248,-0.005013478650710633,0.04001310631474874,0.04506341474006392,0.009569470281477015,-0.007612628772884037,-0.015952475375684717,-0.18943646441455667
0.04738265440260655,0.0015181865878839084,0.04381371827681551,0.0493992113702943,0.003941471183404297,-0.0037363593016874756,-0.016444859729279417,-0.17679345404079058
0.04809716628879695,5.242979725407952E-4,0.04198631738908664,0.046655853983022404,0.007937981942467693,-0.005525326948361843,-0.01527776218006085,-0.17075790447165776
0.04382168780597031,-0.010162258880437326,0.03726522784841066,0.043172601550950984,0.005036990345541998,-0.00820047800864948,-0.017413264465304806,-0.18839949345479115
0.04664508721895012,-0.005549204447615485,0.038329488455642484,0.04421186518201799,0.013754092397554766,-9.729090355998917E-4,-0.013647697723341548,-0.17532171411963082
0.05019621460578474,9.447022057254878E-4,0.04489992237119281,0.050697233622990716,0.013162760268043751,-0.0030999659022994137,-0.008695131087056057,-0.17341728539147583
0.046492716002822614,0.001251081605733735,0.045534357113941555,0.04995611260969332,0.017383377681273213,-0.00350866291956261,-0.013620650080069364,-0.16991340328266813
0.04508939307838721,-0.0037412607135681856,0.03947840940382981,0.04741768573931975,0.017081270798463593,-0.004380435685759078,-0.016156553516103733,-0.16970821965399457
0.04620863155034388,-0.008923813861543665,0.03688910783124121,0.04331052979436542,0.01655387069132212,-0.004056897345270757,-0.011766170000995804,-0.17122930764398978
0.04682731858181106,0.004944303989112498,0.04678794984297957,0.05115851131326548,0.01825087934436108,-4.2551291568794183E-4,-0.0051809315967491654,-0.16331170568673767
0.0450295261401452,0.003366412392251599,0.047047361893259025,0.05303499601179598,0.02206591719246089,6.532025060350942E-4,-0.008150066866526471,-0.17410136276221191
0.04700061884630701,-9.284826067962562E-4,0.04064783077706082,0.04418278134816748,0.020075347126415226,-0.0029005282156450056,-0.011413029936775438,-0.17022034664814512
0.04500952280236578,-0.012367562321239664,0.03152094082978211,0.03898634566605833,0.012090453997588216,0.0014958876944585237,-0.011112284378925684,-0.17544303019397395
0.045931132417399746,0.0016015412849771221,0.04429049608525345,0.05302384541423015,0.01806195960507757,0.0012953007595755098,-0.00986643833657366,-0.17845308470432977
0.047483956430267066,-1.0355844845024933E-4,0.04507083231046254,0.052035030720986857,0.014230763646783448,-0.005280188590386505,-0.007305910331546452,-0.18258617928600704
0.04845948996473093,-0.0018679938662179035,0.04204504237991848,0.05271675886451453,0.012539114844621353,-0.0021139205814023625,-0.01027950265654099,-0.17701001064649116
0.043416398540147165,-0.010639279888782638,0.032292695318909034,0.04671978184363691,0.018325006081185775,-0.004108162602889017,-0.007870248897840602,-0.18061637196982944
0.04632447002101079,6.193613895840777E-4,0.04147490380982267,0.04936954647851161,0.01665456575976595,0.001742340444306087,-0.0057613311956505875,-0.17503907034944893
0.04652423357967312,0.005236521909312325,0.043028991442060134,0.047986442759085535,0.018534257775441716,6.296398816872552E-4,-0.007929668067237172,-0.17462052275251866
0.044408433907849286,-0.0050244007600843445,0.03891107146088895,0.04873855887293926,0.0154293073134929,-2.4170927998288966E-4,-0.012390732748821893,-0.17010108573008828
0.04220673456324012,-0.014847419336343523,0.031441823993202965,0.044758222868107704,0.016768883564673934,-0.003967229663843637,-0.012258967698347608,-0.1815664370194271
0.04435486209777861,-0.01487838363320353,0.03682876711734145,0.04877658123056962,0.017959409492612852,1.0762704773814416E-4,-0.010139724557823514,-0.1958205007997998
0.038904720542328936,3.8932166855626097E-5,0.04071289435193054,0.0461304013439592,0.017228412236781246,-0.0015625289273502802,-0.009778906477281423,-0.19731089704870552
0.0446884951433681,-0.004552326767457356,0.037984116417992896,0.04351640014450725,0.012448516541932653,0.0039768289859691604,-0.010968866890438115,-0.1686436207759015
0.04150949641964653,-0.014442188176104797,0.030098744612467976,0.038939362165225304,0.016038744256790246,-0.004563819912467143,-0.010377497429120062,-0.1835418113679099
0.04212506891487922,-0.012486216318260163,0.038944337438910646,0.04980458343427136,0.012630502337785163,-0.002400162152639261,-0.003806193732408153,-0.19458808135369146
0.04391783759712299,-0.00560331050103801,0.040984423156754206,0.04966599351398772,0.014407812023250229,0.002036472136600784,-0.011456674266469263,-0.2002091415437442
0.04172934403367022,-0.00936514445750968,0.03683313786684879,0.04411803518829191,0.011351533284410251,-8.530685766894514E-4,-0.010931964210642188,-0.16961934509956342
0.03542672361680006,-0.020577544653585498,0.028910983140638204,0.040293758536886964,0.012862517119554865,-0.0015515540440942427,-0.011980945297787114,-0.1787881940295958
0.04601866354220251,-0.00833305359353347,0.04117790450240144,0.050354825525157326,0.016677141464303647,-0.0013872470935555672,-0.005326973920547588,-0.1695049466292849
0.04563307750012025,-0.010361886474774464,0.03416855673550511,0.0463027668745077,0.01478792964914281,0.0016226947994149245,-0.00776991061676138,-0.17111467758336624
0.041537893486163546,-0.01459940692806443,0.03087659006702724,0.03730603259704123,0.015895223220311554,-0.0039050650460208075,-0.008482458864456246,-0.17893737330443182
0.0420500718546535,-0.026788253092856498,0.025678944196563823,0.03589365483510516,0.014596598257142795,-0.008132763108910325,-0.016531020136308538,-0.17797192873808354
0.04425030932394731,-0.014399818154738463,0.033885031617519955,0.04111688254737478,0.014630221755141065,-0.00599123960118543,-0.013425552636731336,-0.17238603523744073
0.04212342349227447,-0.012022442445192466,0.032451083114691526,0.036679813034914965,0.009725893032058912,-0.007211336684523041,-0.011317454555286311,-0.1841118568916009
0.04057849701799379,-0.02284871725936268,0.02556753915368424,0.035414535838959156,0.008137929617410607,-0.008234462679627916,-0.019682017915326477,-0.1820874917358256
0.03694891864096605,-0.02415670528987765,0.025426183300737048,0.03290779827562487,0.008283338126094773,-0.011555825740583048,-0.020922382343970206,-0.18611087792840875
0.03890787805154461,-0.015450707780447366,0.03050417278823244,0.043168295837118,0.011736963832723556,-0.011261349133853795,-0.01733926550360021,-0.1867304096174227
0.04189822406418076,-0.01776675020790209,0.02752658609070176,0.03477167147040664,0.007249060540667442,-0.00948917862535103,-0.021984822825351805,-0.18912818943868567
0.03891982820894382,-0.02459456959903048,0.02187093179972836,0.02887933467223733,0.0032716474501401777,-0.013070650998003747,-0.02497034487191493,-0.18975400559856576
0.04100810820520168,-0.01749247824953299,0.023733994970272967,0.031470480230693425,0.0056062547219567814,-0.0072613893967492646,-0.020632737729578726,-0.18315909468576366
0.04688346172690697,-0.010066829815438032,0.03211238031007954,0.03908206985113268,0.00812796772549962,-0.010146111862176704,-0.018157527799475673,-0.18860037113319894
0.042392709471918054,-0.013247420875602944,0.032130887907922324,0.03948190368912943,0.004736403975481242,-0.013711427468401014,-0.026526518232450173,-0.19205103530826273
0.04392394715681182,-0.016028673641159213,0.026447263111159223,0.033464868067081384,0.007531732009410625,-0.017254500037360038,-0.0296852454105746,-0.19420490505270208
0.04225337331563908,-0.015069819386050402,0.030256360404147416,0.04070852442656814,0.008996024980453276,-0.013608330569280394,-0.025525850453150763,-0.19283065909638947
0.044051002471258836,-0.006721412233818556,0.03371401651963386,0.04326121489342062,0.002226249030345441,-0.017793364353875855,-0.02912224315714248,-0.19376536361578758
0.04682046066156296,-0.015209108299160364,0.032449628696493545,0.045617302635030166,0.0017845337001598717,-0.017416090948111966,-0.027957079670516072,-0.2030740387703701
0.04452386786480447,-0.016837848735251376,0.026343832124855426,0.033487181951555256,0.0025668012558595662,-0.018215182410700848,-0.03473396113520992,-0.20000879654944076
0.04577839444712608,-0.0011694372415622107,0.03316724027861191,0.042207157180779976,0.004756677306741895,-0.017731769591489317,-0.023856803862481398,-0.20281813792725542
0.048146097787552036,-0.0019569180556393913,0.03716634392868537,0.045458876042327505,0.006213266153069581,-0.015041071586017555,-0.025491825780369272,-0.19355641718919106
0.047572518727855645,-0.006720792481073279,0.035258008316095824,0.04389954508661644,0.007058729944386133,-0.011326275237250695,-0.0324919126663049,-0.19203227274799464
0.046459773818243906,-0.00854261343674366,0.03033575150680905,0.03889423861625226,0.006795798627382332,-0.016039039938035494,-0.034191890616480494,-0.1936798296760821
0.04956073164848785,0.003475542658235823,0.03837205494469627,0.050357310169845335,0.008222317870394956,-0.010982262051788644,-0.025405752681010235,-0.19942591980879107
0.04848712052557308,0.003165016252298268,0.04062058888092414,0.04737792504870716,0.004469221542653933,-0.014316970991458428,-0.02563332163407394,-0.18874968324131575
0.04799729870732361,-0.004438875937297333,0.03570465275278457,0.04950704971984853,0.006062493586197037,-0.013762645131686123,-0.02711644210271116,-0.19769488578638653
0.047585358790805894,-0.0013556770927595028,0.03519090233343203,0.04444451264921507,0.008577498728678204,-0.013955159659046604,-0.030065843181413587,-0.1932859400156717
0.04910101362544934,0.006167416924491229,0.041431310560154255,0.05252371419236553,0.005698144321684662,-0.011743006422869672,-0.02440466569096276,-0.18813295952433923
0.05001436651464479,0.006889977878380736,0.03937887746906844,0.04932844871254629,0.003601718115743741,-0.013578176607270594,-0.03121973744796,-0.1912772338713035
0.05038619836662847,-0.001579937034153142,0.03445774393896187,0.04512595810585067,0.00206248618678535,-0.015022875369921593,-0.02969694583758223,-0.1936610820060831
0.046916172859467274,-0.004318436686661886,0.03441281074237259,0.045747241430586526,0.007082831110348385,-0.010637286092716521,-0.03060842123976328,-0.19540952893167488
0.048556862375367,0.0030378076413540593,0.040851787376243134,0.05437048812880801,0.007396952935814797,-0.011458341277149495,-0.025988299492732788,-0.1863222025682476
0.049531733779224575,0.0010341886887615833,0.03816714003340852,0.0480600893375445,0.0053506332901764875,-0.010969209936491647,-0.027563345636869862,-0.1941219088278611
0.042989529563780396,-0.0073594350998717585,0.03194450084506,0.04114801545098628,0.011734182869271258,-0.012791121255495896,-0.029505928338338976,-0.20183650316229496
0.04383933784095695,-0.004690712375434139,0.032093447815802964,0.041364826545873964,0.009121737964768109,-0.011580690974503056,-0.029140770295861755,-0.19691292117029308
0.04376326620794193,-0.0011753278197116222,0.03326904652643576,0.04498367719123299,0.006161723754743287,-0.010690288774827233,-0.024884590430724704,-0.18287824632649302
0.04566603137131963,-0.009567570295703143,0.030111405168851323,0.03935718729619499,0.0023433709735724076,-0.013804899972482998,-0.028753352324766005,-0.16995106050737094
0.03990228131737774,-0.019860550329845055,0.02391248177443938,0.03678854508643687,0.0028480810060033308,-0.01578388921859107,-0.033919967800448036,-0.19080756004594582
0.03983668273327398,-0.018978890409293177,0.026560180585770587,0.03719914985385128,-0.00358039640805813,-0.011502217810874144,-0.019477539911394157,-0.17710486870809897
0.04088932751614656,-0.012312635284956333,0.02636102168771146,0.04270765040727353,0.010587687025237687,-0.013287793795116368,-0.027325166040618302,-0.16715356097504067
0.040722785071842606,-0.010856258482494689,0.024592587066660388,0.03599798215896433,0.005720675934183978,-0.011697795006901617,-0.020519626019685218,-0.18157305904827944
0.039662462643955426,-0.02311019912711021,0.016532462372689717,0.031567689444427664,0.003620223805685216,-0.012422611732791711,-0.02460846800646687,-0.1785982150145304
0.03774624254836475,-0.015276022168139131,0.024540362262900448,0.03542657853460231,0.008398387152475926,-0.00968655170770749,-0.023512860751841294,-0.1837483557194239
0.038085374312173216,-0.017392395598886265,0.02219088162760131,0.03730746584295976,0.0017538334482912344,-0.0076003248554593885,-0.024532916411254498,-0.18148537995529726
0.03414865777708645,-0.022378139467187395,0.016770213163764015,0.03253526995096522,0.004288546072523124,-0.0106097121271481,-0.026062362249956995,-0.18099663147666423
0.0356175176995117,-0.023670907328210592,0.015483677972695632,0.02919793200263386,0.003592658407088878,-0.008931485855580578,-0.02048624031082701,-0.18433693189074923
0.03865806988412027,-0.01428559042201442,0.02271207152739846,0.03554561413027564,4.819138434910503E-4,-0.007706007076099187,-0.019717743654853025,-0.1779551250158604
0.030470585982847572,-0.020734803511395807,0.01667005483664883,0.0302611355421604,0.004447000576787821,-0.007404799444203889,-0.025453650809666346,-0.17496133641672662
0.035137000794426956,-0.023614395838672378,0.011132748521553354,0.023214665336130192,0.004155259336994646,-0.012734126478397317,-0.023692641339989058,-0.17534295047028553
0.035220851116404724,-0.021338882112470127,0.01600198192882991,0.027977775258796123,-2.698550375339845E-4,-0.00784350481719964,-0.022885390221394686,-0.1883735518782918
0.032228046925200336,-0.01635957819529039,0.015804133003768234,0.0298610301639769,0.005216787188510553,-0.009498448643301325,-0.02075790949808846,-0.18361954710475642
0.0354848702055487,-0.02131830932598733,0.014686520213032135,0.023379658207182855,-0.0019361357250436727,-0.006452781679449341,-0.01899700129995118,-0.1814661611229704
0.03540685508278465,-0.026054764799441014,0.007646227406128545,0.02117056622722365,7.34485464961294E-4,-0.012092475997913623,-0.027263894926344606,-0.1764503483512912
0.03532002044003594,-0.017882720802264367,0.01550911807078674,0.027400179767961004,0.0027387784034015885,-0.013722631348390137,-0.027413628198348423,-0.17494128710665147
0.03648504003477395,-0.009414239983212325,0.013253216341537323,0.023244484524279452,0.002461701090933254,-0.015266375210514266,-0.02913023875698627,-0.1707100405551143
0.03110844158633565,-0.015543706528446583,0.009214840765370977,0.01830379437648343,0.003735876183225111,-0.01562908569961113,-0.02491597882029074,-0.1839874749368556
0.030898296696293803,-0.021739534861531514,0.0058743390165835645,0.012517114262978107,0.004135002194757689,-0.013761828828572692,-0.03261641859750696,-0.17006927074912
0.034352709756429775,-0.015135920710472041,0.012420561299866963,0.020019379280257994,0.00460787718560126,-0.011856567780484687,-0.02919619460291852,-0.17812731815772445
0.03149064860150982,-0.015289776443110713,0.011051382928453615,0.0187437399750095,0.0038479230537146404,-0.015958646603679374,-0.02555011136682585,-0.18207870290198322
0.03129510607514362,-0.025077638467532762,0.003893235373989157,0.015496886790856725,0.0038074768830661555,-0.01556799142497948,-0.028358315261087542,-0.17042404239586392
0.03401145496021045,-0.02692961441376702,0.0074541828098933765,0.01697015272151535,0.009332272968265064,-0.014803738694873024,-0.02182545728352969,-0.1780964534075386
0.03637264735525663,-0.018846749833509348,0.009498766768741299,0.018700250885724176,0.003994762313166119,-0.013363765039170108,-0.030833144614592665,-0.18902764870129057
0.03473469317779232,-0.019401780461707874,0.0035220447119713202,0.014847305766236453,0.005609508269962284,-0.0211143200735419,-0.0346466508225659,-0.18731853948979055
0.02983825502355752,-0.029198538137370875,-9.13544075075161E-4,0.006004141364632061,1.6869070423063557E-4,-0.023130629161265764,-0.03982371838374158,-0.19040306986597283
0.029453117045116738,-0.029711041929281753,0.0038333726637362147,0.00813242577075779,-0.00655911438419928,-0.017995742819605885,-0.036503736086013525,-0.18957430593367905
0.03315190597519379,-0.028654336876170892,0.006709377541789126,0.01245976061119574,-0.0028121370873850763,-0.023696394787525953,-0.036666720267253095,-0.1789426175789198
0.02789303274934977,-0.02465780541626036,0.0027705189591007325,0.0067281361318096275,-0.002451545682276498,-0.02377355828502885,-0.0436507545002421,-0.17299804740934316
0.02933254708385586,-0.040801832281083694,-0.005837278155491901,0.0037644073568907778,-0.0057240024462024445,-0.027547620457243675,-0.04155282270636529,-0.18776657159549506
0.02915322437889784,-0.028792942119849577,0.0018891915722322333,0.009058199259854427,-0.002683320606205657,-0.022764327098456015,-0.04147686886840601,-0.18283970907692276
0.031895198764019875,-0.026691067394715273,3.579204884301552E-4,0.009383797143901884,-0.0043937979842006295,-0.023811302109224084,-0.03704879665251241,-0.19109992540109386
0.02915456813735,-0.03436299588860749,-4.673486459846937E-4,0.005916234319690453,-0.004142054961948674,-0.025702022144477504,-0.04050820597119757,-0.18648659253775715
0.028664186410125417,-0.04055178326935339,-0.008147195083138485,-7.807922919376091E-4,-0.007723838460618021,-0.03157461099728018,-0.04399258522931707,-0.18693313523392782
0.028476987753604056,-0.03840342831614689,-0.0032725415183890365,0.006610706043931374,-0.009061461323155825,-0.02617343591762891,-0.048228510126694685,-0.18312252902747025
0.03329922823679572,-0.029876677510380523,-0.0016304132193291953,0.005253431679394208,-0.006279639952074708,-0.028638308241601313,-0.04862016446500022,-0.1902118591031067
0.0321875861177518,-0.03675418136829477,-0.004890394173920772,0.004892177334069069,-0.00743338238734238,-0.028294516937454866,-0.046560042641751474,-0.18367720555708855
0.027884037454580797,-0.04703354309726827,-0.013634142927997715,-0.003929619810103434,-0.009048044131650964,-0.03169902924252922,-0.045842754129557586,-0.19262796501765408
0.030995171633367326,-0.03193408725232984,5.852370426020832E-4,0.005320443020446529,-0.009078281101488592,-0.02613655154492697,-0.042704435368852926,-0.19198716025118534
0.03256991306019798,-0.03893769889151176,-0.0027754680295254816,0.007224681730798107,-0.004115191904875721,-0.028547980073469443,-0.04389244812714409,-0.17826174007237428
0.03419119504568502,-0.04384850643583311,-0.00930296286142114,0.0036269594919067054,-0.008023691276973896,-0.02786231859513416,-0.049327395797614824,-0.18096906030465568
0.029602204637104286,-0.05146890428813875,-0.012938647491259598,0.0013974419274721398,0.0017704339080600144,-0.028175970276443425,-0.044862972494215864,-0.18490110038157279
0.029193973047552464,-0.03512759552596703,-9.894500352336522E-4,0.007501073487303306,-0.002038883583431885,-0.02506717418195414,-0.04349630485325535,-0.17186282511570786
0.03280672833152223,-0.03638090957654788,-0.003933293292153272,0.0068915581197854375,-0.0026098491821749756,-0.02579379159081531,-0.04108211818740409,-0.16703542755548248
0.030561878142431494,-0.04022145552368132,-0.008635322889319135,0.001450008349063489,-0.0024249348128265826,-0.023189605065753006,-0.04083009888138764,-0.1586507421474142
0.028742396301273607,-0.041939797020944664,-0.011907483373200875,-6.181354785066858E-4,-0.0020377776069555676,-0.026886564281924617,-0.038318372195713095,-0.16739032950364668
0.037603521907633615,-0.0291588026493567,-3.8447411280707764E-4,0.0062607349790171985,-9.93336411051348E-4,-0.020911689224348648,-0.03497832431456514,-0.16423809473760084
0.031076854489055148,-0.03562343913031265,-0.004836301629675589,0.008829461735379329,0.0017493665654476583,-0.01982971603687691,-0.03803033165286826,-0.15807945102736892
0.027841156116326073,-0.04644677950967177,-0.01044747590820694,-8.580925719535521E-5,0.0012177294902978733,-0.023010896481395326,-0.03442047329993903,-0.16483866757030252
0.029056151755771087,-0.046351818234156614,-0.007222312731545973,6.257640463229256E-4,0.0050792864480842005,-0.015898384245152424,-0.03046690530985528,-0.15851209371113356
0.029941736652693594,-0.029181740210820484,-0.0038538091679119544,0.008620099624324805,0.008173479740916905,-0.020331964769937556,-0.026604387969813785,-0.1557922101976071
0.030867564012667485,-0.03815809045891536,-0.008026957345743262,0.006189717573455952,0.0023358481905166755,-0.014503003776867838,-0.03003877216899601,-0.15748476272072362
0.025519577592075997,-0.04837522189207665,-0.014160170859833534,-7.16392565804691E-4,0.0031065162690731753,-0.022577225694351936,-0.030326934712129317,-0.16315872709691978
0.028450097794638158,-0.047301189248661626,-0.009389024219361854,0.00319054856867011,0.0015355291820986533,-0.01852303353507472,-0.028461137304152857,-0.14695186043535044
0.02860440693960495,-0.032083483529734044,-0.0029441511085246345,0.009962298118787188,-0.003095426948070092,-0.015543534764594188,-0.029817066220375544,-0.14935936535107308
0.03259643611232146,-0.04048596269503616,-0.004318600818756172,0.00825261621744587,0.0038779636133294292,-0.011117501207071313,-0.026499893350341502,-0.14930675857601947
0.027631547255911663,-0.04741173640665653,-0.01394511480951394,0.0025273023403254193,0.007192215960245149,-0.016318393505128825,-0.028544788468638616,-0.14415945720839368
0.03220203921356631,-0.03993218636960963,-0.003984433127142258,0.009881493326801794,0.008157066402210427,-0.010190426999968735,-0.020721761089132228,-0.1460264728979745
0.02943227726075161,-0.03917260743672011,-0.0022623346941440608,0.009786707686357138,0.005415269167528704,-0.00854381364658801,-0.024232849919416696,-0.14704628560378152
0.03369396108358947,-0.04496211349681095,-0.009534142725420382,0.009025679946494735,0.00390098253395144,-0.008861077982247605,-0.021241683372357642,-0.15356220953011795
0.032117900558827135,-0.05205533173302122,-0.010941992122414926,0.003543743054811695,0.008555648985898464,-0.011931205175730698,-0.021208416726532012,-0.16054911036696531
0.03519018114857708,-0.03799752186378511,-8.112733891499214E-4,0.013424432955445782,0.006301499703823814,-0.004611573444179838,-0.015867670669503977,-0.14067130224633725
0.032080226261991376,-0.03538657366553091,-0.004894455755910822,0.009330178411059415,0.012024165472815361,-0.005384433607879936,-0.01657990798311043,-0.1548657591719026
0.026802625656305035,-0.04316210038249238,-0.008976951338765726,0.007575112864354287,0.006890396976814321,-0.009387099598429469,-0.01955623178100211,-0.14810775296634557
0.025545040232613198,-0.05378287836731721,-0.011249735519460463,0.008293380988600507,0.008284228908053188,-0.0065572673738096806,-0.017642826287070944,-0.1549558685367795
0.03246558911485468,-0.03369826029979594,2.843340895097823E-4,0.013917993703191411,0.009994407334533233,-0.005326409103718795,-0.013629567668820149,-0.1451892269588541
0.033118351425023854,-0.03736742163860893,-2.1891841021209172E-4,0.011708889275591087,0.004262779222052599,-0.005292974329912802,-0.014629245368404906,-0.143685683694283
0.03060660972806241,-0.040168913585774034,-0.005737797700458678,0.005340691960274244,0.01170703960616602,-0.00702677282754698,-0.017895949172634828,-0.13523844514790564
0.03063728260058226,-0.044869945373038615,-0.007671814622768509,0.004145246595161878,0.008064539584050661,-0.004100857798218843,-0.020248384225287477,-0.12985170257284087
0.03213501821424413,-0.03224222556690017,0.002791843979971423,0.02084364787735746,0.008378884860631725,-0.009433181691516237,-0.017284199228898917,-0.1319422563251653
0.03377834695501742,-0.03673042601769157,-0.0013611655632408783,0.016744971984616067,0.003364789181461156,-0.005377494169360778,-0.02133397722579749,-0.1383054624944176
0.03509304828129748,-0.0412073557601892,-0.002468458013136944,0.009789903945849892,-3.4712583004142225E-4,-0.008923262167599312,-0.01989769263448418,-0.1401433896178471
0.036933567695511794,-0.04553496509309019,-0.005449197395094999,0.009739060201523006,0.010427808373782077,-0.008253981835510451,-0.019756374799972855,-0.14725176319529878
0.038521848732720056,-0.03421881578602364,0.00475772330548143,0.01759914843699836,0.009427976941418136,-0.006459807627916212,-0.020583071546819404,-0.15118346836047442
0.036232170394052264,-0.041953501019961335,0.0010167184303368703,0.012998932044448663,0.004549290743815461,-0.00853879014182548,-0.02773991761574495,-0.15171093978063052
0.03462463789932424,-0.04213224123928257,-0.002532896274594632,0.013419140883419643,0.003813779395990748,-0.007641647623853729,-0.02601273657514689,-0.1548213142271509
0.03636355591403684,-0.038423534880629225,-7.530546371799818E-4,0.01513705155478631,0.002208744108590382,-0.010883057154706196,-0.02606655330896622,-0.1602480836600883
0.03843791069375248,-0.028659697326644078,0.01026704553416953,0.020676798192642818,0.010180066519487413,-0.0077416428148836,-0.026104648268957815,-0.1550861497764433
0.04178876184521977,-0.03462821685454528,0.003695993716496227,0.022900351630040727,2.8620796986016345E-4,-0.01031358224537844,-0.024987861665909102,-0.1561966209377643
0.03522191783734932,-0.037897288838952596,0.0011409901789189874,0.01033122556629653,0.004860008445345935,-0.01187102400998615,-0.024691805627138762,-0.1703182054047782
0.03919667789944924,-0.03787327754182795,0.005876719343666471,0.018731040389549015,0.003974759791810621,-0.011886239403283089,-0.021259199982094943,-0.1822873432807179
0.04022914842783498,-0.024700229228470427,0.011010995650042986,0.026671929715479548,0.0018612296856317554,-0.009969082363470962,-0.023113362650292808,-0.17656190804334415
0.04131624372768486,-0.029467191995307326,0.007266584540372659,0.025146605238643965,8.892718294848196E-4,-0.009807661375829039,-0.02744730163757377,-0.18526282380743625
0.038926408762447316,-0.036474140091203706,0.004677533470465313,0.017145874620259377,9.512306156021358E-4,-0.012519297892046442,-0.025515349710430697,-0.19247573928067144
0.03808721069712608,-0.034074661594463096,0.005846219492205199,0.019294383384668767,0.0045715228013883825,-0.013197678334565803,-0.025793856348334778,-0.17926990982776825
0.039756629438456106,-0.020475510286257995,0.01336073745129423,0.023663315127611273,0.005471816741814693,-0.0077231613458882045,-0.027397627685800455,-0.17802577833715175
0.040504079568423126,-0.024765511745349446,0.010705498973228568,0.025001898037026703,0.008919167866658416,-0.011566109144338277,-0.02384247642417843,-0.16604240352710511
0.03959966830809168,-0.022951869192634637,0.00910876818266335,0.016599093095584935,0.0073483241095310325,-0.008541445637096546,-0.024591317045514694,-0.17142109457768126
0.0408456698350789,-0.030108105423468166,0.005881919300305941,0.019086931816848122,0.006059483956372129,-0.010718376745099675,-0.02458992530661113,-0.1708555179685351
0.04034370786615696,-0.014385020587795826,0.016559140188442803,0.02947980212582606,0.007214414572840806,-0.00707511466910548,-0.02201819497225004,-0.15474668075312356
0.04310879997488402,-0.025318418141927194,0.012815594471832257,0.028661199304815612,0.009817414707767253,-0.006786012316410701,-0.019506001986576593,-0.15107562901132737
0.03762941254929346,-0.027500865646628552,0.009788558550579292,0.022502886524800744,0.005323703854613325,-0.008082528708944922,-0.021901393185062148,-0.17147737540924682
0.03653423680719117,-0.03498353277228514,0.008025396437405253,0.025542474439368083,0.005631552196431391,-0.008881327995821996,-0.01970740000456792,-0.1647265890868237
0.041679426958346165,-0.019706991832535325,0.019774801496782034,0.032582328121077565,0.011941482236060438,-0.004431569810026805,-0.01539357194548312,-0.16918389048363988
0.043545842116205755,-0.027991806578560884,0.01342570520933705,0.03255580290931126,0.007895988144664409,-0.0026506088747294035,-0.016729704738012108,-0.1779095904809251
0.03741973681734984,-0.03300462037478358,0.008884224695517905,0.025744135357973322,0.003961064313183985,-0.005518535573069459,-0.02054558384003357,-0.17849744822350644
0.04114660770395661,-0.03188245590964451,0.005578540788400187,0.025478825730494186,0.0018236675188879547,-0.006109006537896026,-0.01806660400031671,-0.18581399251672084
0.04158879614938535,-0.021958366947106733,0.01685773785440368,0.03168878195120023,6.765727933352903E-4,-0.00555536296792979,-0.01737433626863677,-0.1811164539825959
0.04157824719493781,-0.024796728652972028,0.010193037535604705,0.029452417818476566,0.0055927351694250995,0.003110898389872495,-0.011077167741776618,-0.18424453690015902
0.03545777486923197,-0.036067243046789293,0.00562249978042431,0.02036841486099769,7.685077276095842E-4,-0.003948191726062969,-0.015400572486114,-0.183332803638888
0.03981876942987032,-0.039671314960743935,0.00789175623862118,0.023010426413445955,0.007306210725500243,-0.00315154243983089,-0.010038484802551817,-0.18646478174134723
0.040541185679268975,-0.027931801647639663,0.013257292080455365,0.03137364678743824,0.003967663763226218,-0.0012611295471259716,-0.013192106954729731,-0.17725997155024686
0.037996824615969954,-0.030300087812213723,0.00952727939105102,0.027592326102990512,0.006656071742284622,9.369609970111759E-4,-0.010138275716719767,-0.17558679631380453
0.03516432810992045,-0.04031699908480753,0.001222925407967509,0.019034072418995733,0.0037674519350951725,-0.004952608321494283,-0.00848003957669859,-0.18247259591426912
0.032631723812391863,-0.04646629896690718,-0.002942511871420615,0.018977642595707316,0.004510275747031004,-0.00144532238684229,-0.012465843739525116,-0.1888039833657523
0.039449908709822075,-0.027543743183712388,0.009979063900937613,0.026948510298132784,0.007365194929193514,-6.192177594694928E-4,-0.008980007417836186,-0.18289671743351907
0.03848258048610166,-0.031034712331173504,0.0058439273757700805,0.02473360391312633,0.004399723809417184,-8.686858025642968E-4,-0.005934734302007149,-0.19214919965209143
0.03706600975239405,-0.04135226111709123,-0.0019258068867636566,0.015279860463093061,7.647306828917566E-4,-0.004759923705133591,-0.012216641954090135,-0.19651069724502673
0.034017919041264576,-0.05061718265326203,-0.0055688225682806874,0.014485519310327408,0.002703246937660196,-0.0010226670947364848,-0.006310855810560927,-0.20097101289051583
0.04273714965500034,-0.03343305763432918,0.008047497669598709,0.022807781437632443,0.0014706089246124422,-0.002018375998586385,-0.0053048172508920344,-0.18795198834456447
0.037490410607548395,-0.04171899318672185,0.004721678303257223,0.023469683253458176,0.0034279866039574848,-1.594437057066257E-4,-0.010992188668529083,-0.1984908970571307
0.036123209468417954,-0.04552263658625821,-0.0015774332786084643,0.018153709639682766,-0.003778497398059712,-0.002553816780463272,-0.010197686686713704,-0.20637973316591846
0.03285652980126054,-0.05553996415789569,-0.008780250567848721,0.013995475683972287,0.0012188549878135294,-0.004362873938617045,-0.00990379996235964,-0.19814444945101753
0.03662882733613449,-0.03243130153217074,0.004259948908676464,0.022713616386201906,0.004894403959703426,3.7338436478018424E-4,-0.010105965560294316,-0.1862560886141976
0.039322376806007045,-0.042760238759245874,0.0020605984690857987,0.01649331969875407,2.165376628075654E-4,-7.992480106046857E-4,-0.010580885383696715,-0.19774989724994974
0.033569970291642146,-0.04781021263541784,-0.004290263552554689,0.01425317399587387,0.004440562081981294,-0.003678653062206654,-0.009386014109170043,-0.19664172401009178
0.03120630000921252,-0.06071787416670816,-0.010753861596048768,0.009004239372725858,8.594850074060719E-4,-4.498125438148457E-4,-0.010752156184829819,-0.18716398986952568
0.04012708030750137,-0.035663354502530095,0.007420574985244051,0.025594070828249407,0.009598289464404114,-0.0014537765615575847,-0.010742135779065232,-0.1881248253022414
0.03782417886494467,-0.042420128477596686,0.0012112201627529724,0.0212770059058609,0.009411296240536332,0.002496616737508894,-0.00439843919697642,-0.1846809636794027
0.03765020347528832,-0.04938033720605113,-0.003003112158626711,0.01805688485422431,0.0024645983549368366,-0.0027683742209628596,-0.006144087728245169,-0.19010541908248113
0.0334438586667249,-0.05977777607056226,-0.011508129975266014,0.010244163600692545,9.03115718521423E-4,-6.499499400924058E-4,-0.007781738092537335,-0.19555572271037658
0.04058905306422998,-0.030950541382050906,0.0028167769719020627,0.026540233171682154,0.01003101443280622,0.0018630178167522921,-0.0043737463037642,-0.18650642471217058
0.038927373682256045,-0.03660271673374735,0.003675733219885576,0.021454152511715174,0.005226446723157368,0.0012480445111573886,-0.008192906278509073,-0.1924707787276883
0.03213766813517489,-0.046780261905661535,-0.0019319552419693373,0.017949111248061093,0.001894484934860999,-1.6947298031541572E-4,-0.010081273830140193,-0.18287162487629016
0.02886375367583247,-0.056040338905467287,-0.008528998028294429,0.011145936027594014,0.004043537612248507,-0.0019135673005134734,-0.01113859254870321,-0.19106434106079787
0.04190275407559464,-0.033203344969909454,0.009263381545314786,0.023316067058386764,0.0038187533124185943,0.006055777703810134,1.7988942923705543E-4,-0.19809448867973156
0.03864466830025706,-0.03137349960715408,0.005344594909516849,0.024405338425350455,0.01019732854915853,0.002643567758278882,-0.0072739503222863195,-0.19556210695165444
0.03844943563618628,-0.04359361094673223,-3.560787872669808E-4,0.018423048603708834,0.010611039479219053,-5.718426284827746E-4,-0.011357093717377252,-0.18744274990593085
0.03671954060125749,-0.055029254275901274,-0.008731367780713511,0.011235396378396916,0.005807963972378845,-0.0012309247915661308,-0.007271578014151078,-0.19808519845758277
0.038489573441134885,-0.033734987279242144,0.0073869134762345285,0.018690072134163176,0.008715251534566072,0.004302166726061579,-0.009394358628310659,-0.18896971022243764
0.0427529244996931,-0.03529799354649408,0.006379820430072158,0.021793747334185723,0.009928953679708634,-0.004202759361480207,-0.008185011197270496,-0.18937890303160917
0.039726216604009136,-0.04002583653313312,-0.0018015023638699107,0.018836677695767724,0.004886338605602858,-0.0015484409004127158,-0.010807261803995973,-0.19433463038271812
0.03725655327710856,-0.0549411843707683,-0.008382125145136496,0.01203093954542831,0.006251016810352602,-0.0044485264313065525,-0.011472476683463738,-0.18272020373292114
0.043989791515006496,-0.03291658188435953,0.006412355694533972,0.027023007318511108,0.011041010468409813,4.516711942694389E-5,-0.0077283595601657035,-0.18320164764061414
0.041988931052691816,-0.028355289578139698,0.006565128006631918,0.023763272893192963,0.008548087277250201,-0.00213649747212741,-0.009756465452518216,-0.18039535107799445
0.040221622330959335,-0.039042594698192816,0.0014391733080812332,0.019229361117483523,0.010421457880736514,0.0016937836409143892,-0.006300609689786224,-0.1723433799603653
0.03670072676731473,-0.049097388093635674,-0.004211291581258925,0.012484036942730072,0.0074252524117866935,1.2759481192198963E-4,-0.010533226375602611,-0.18671172701677943
0.043282076920312954,-0.02944383232588508,0.008830032219382585,0.02205509307624385,0.005391369022137585,-0.0031354314050419676,-0.00453230631597116,-0.18119605096088395
0.045159041030534496,-0.027178119001245973,0.007343370265765176,0.021716358183674164,0.005680592730108874,-0.00417148641512876,-0.008826424997399366,-0.1875352650132985
0.04194467885143454,-0.037366466504785416,0.00353407737534504,0.02036776502078238,0.010603092669895503,-0.0024597221819300124,-0.005702472207501142,-0.18542716164329393
0.042069291089301575,-0.04828140701607448,-0.0016907157176893333,0.012033043106124781,0.005611282132419479,-1.801782555380547E-4,-0.011265419912701831,-0.17936543844824995
0.042463854969738965,-0.026877752663740487,0.012665915775075318,0.02315723236627945,0.013320569426287865,0.0022646022513181175,-0.010839473009327527,-0.17918365246505483
0.04674733891604342,-0.024508018377429303,0.010102139707218709,0.024438819008199233,0.011263621397718875,-8.238614047227235E-4,-0.003636525737901049,-0.18004956439908418
0.04446109599178925,-0.03242716007364899,0.006311875024004691,0.021089934627648486,0.0072326029880849015,-4.86294897527683E-4,-0.008828993319520001,-0.17952693367460226
0.040502803773354426,-0.044163633487802854,-0.0030505809314280486,0.01583038244805915,0.01140109633682504,-0.0020734293885767267,-0.008618966887673158,-0.184369501059375
0.04505390136044818,-0.02257163572462426,0.013143284834366904,0.03090713438221253,0.009196922153696222,0.004420185674604685,-0.0016287765630273307,-0.18140941451792256
0.04947180167262622,-0.022365793433702586,0.012085908406186589,0.02711366392924098,0.01185502732373837,-0.0013758144100628853,-0.00979567640573003,-0.18404738111554578
0.0449368941458038,-0.022725908357799304,0.009076773294764084,0.019289693138378784,0.009527788176408534,-6.682956020927561E-5,-0.013196299944091551,-0.1719706597908134
0.042889460432013284,-0.036463576534648524,0.0012754623604975103,0.01705875622302732,0.003141183297849864,-0.0018723139488688015,-0.013034990370365455,-0.17973012711339148
0.04868652097703801,-0.02332367969700999,0.016641705204551067,0.02684352567282238,0.01140978607397618,0.004951374309563279,-0.004704947338054803,-0.15781287039319258
0.05017675543024402,-0.019168586573830106,0.01420998728156821,0.025444884523396733,0.013622816748349831,0.005539359365340716,-0.008695883202078982,-0.1684739778215462
0.04970905870336297,-0.021806852874344043,0.01269018104845958,0.019738105838390432,0.011565923304910797,0.0014447587743053074,-0.006425721586238555,-0.17036057906729163
0.0434022014595463,-0.03786425136826527,0.0036692627138548858,0.014970023041225562,0.008111014378863694,7.248433705316002E-5,-0.008063823334001205,-0.1620804559402978
0.05125103474583759,-0.021386193801592623,0.01778459071406447,0.025555815571326138,0.009819756167817627,0.0038634029774853975,-0.0064167022971997065,-0.16623100617415207
0.04839851188148317,-0.01916549252256589,0.014759535597243524,0.0252153151207818,0.01632662149031534,0.005666322134238283,-0.0051006364510383165,-0.16298496456367187
0.05014775015268053,-0.026538590808913277,0.012791806393340842,0.018638959490994145,0.017879341295713086,0.0027559097029261938,-0.0050651741155959005,-0.16183826425851489
0.04796386618055939,-0.03129278515005761,0.004757720282816695,0.016530335202001704,0.009629255418525016,0.001576331530760203,-0.0064408447893610525,-0.16691708055769203
0.049914561285918424,-0.01629415069145715,0.019474042064710744,0.026807394029871767,0.013996473926793063,0.006901694122184204,-0.0033608559797739432,-0.15495004801564316
0.05364718612056251,-0.014347097298065782,0.020098348203928657,0.027488681779018507,0.01489282453642855,0.006062970391100636,-0.0015564699941523637,-0.14844234072795556
0.050994781118838345,-0.022698676995838007,0.014891697569884165,0.02076681627153314,0.019053332740589818,0.0041128030937002845,0.0016431991705847045,-0.15071803682868792
0.048544759611867154,-0.03166612250747989,0.0074775587007643585,0.015676759752032532,0.014507822688094458,0.0013687745252196873,0.003620781165539375,-0.15949041734103764
0.05047478132230022,-0.01197777326821636,0.02001923046043611,0.02589071043548599,0.014113955025388113,0.010240050504930901,-0.001667915291724271,-0.15566573321749258
0.0561826147853749,-0.004602285153867517,0.025693056241782905,0.03211289420570295,0.01427642339332723,0.011035889103390293,7.17413572160344E-4,-0.1545782827492536
0.0546363043803782,-0.00748640997620827,0.02089351878081006,0.026946780987917984,0.013776359258969658,0.006582797894293203,0.0013927210321346148,-0.15477647700510855
0.05311168270077657,-0.019054188761538582,0.016230720348693575,0.027386448914093885,0.015300892725121015,0.006312571045405435,0.0040073382213685425,-0.15377837273344455
0.05092648645446161,-0.009799028394439654,0.02345504794639302,0.032890104234833836,0.01619116022787895,0.009906356821795767,0.00840540551531773,-0.13697761950119114
0.053590533689920665,0.006301983645328789,0.032097207628319836,0.03741533007260156,0.01700911339598764,0.012466134405021445,0.00949408999544187,-0.1425816197261731
0.054861295981920195,0.0033492977352611373,0.02738542219393271,0.03959369758084762,0.015314832809568926,0.009758841587165137,0.00861209492994218,-0.14139561913336093
0.054040726224686024,-5.550220879793614E-4,0.02395501471575609,0.030271727921763556,0.011896694813268271,0.01164268311981864,0.007564924100879865,-0.1365105405006639
0.054147024564749825,-0.004587966673706377,0.0259863760225428,0.038105253926255966,0.01961055052162064,0.015452065220326059,0.010095287193064397,-0.07862709933101858
0.0571188446791476,0.008963860196275856,0.038675242923725164,0.04716665378694522,0.020117737453240893,0.0182738867103123,0.012394989726369703,-0.07582674131652992
0.05827894698720108,0.007793175069928727,0.03696852260364434,0.04601094157701353,0.020895556063854723,0.018086911826628485,0.012617583058086494,-0.09941678489779132
0.05665027082357089,-0.006750739937572908,0.032145995036670746,0.04250658239156522,0.02162247693122416,0.018638277430354667,0.014238792539525825,-0.10829428117910096
0.05476951768042954,-0.008011492316995284,0.02863950752733477,0.041266605357402016,0.024045792625340286,0.019887166909152282,0.02087137268778151,-0.09001377115944921
0.06102423020411017,0.00527497751531451,0.04062345781491833,0.047411456802207756,0.02182975868066261,0.021885071608116227,0.010749969523274276,-0.04764508794487654
0.056214338468918996,-0.0011609310190829009,0.03915324782692666,0.044776755876633004,0.018025118928484674,0.02421590898970156,0.02089075118003214,-0.0680352922996647
0.05760673484959091,-9.046852011521425E-4,0.033585654730249576,0.0435429235598176,0.0219980827874227,0.023177813795409185,0.024751703165470904,-0.0834860671624356
0.06002705021255068,-0.004505650219988828,0.03355299794376707,0.04315828974461092,0.03441292057850344,0.02223471330851699,0.028269121986143977,-0.09609338033416036
0.06710920404310419,0.018847237060411054,0.047733991849228975,0.057176884794804345,0.037448521896314924,0.028234264689152612,0.028165937100439735,-0.09021214249403431
0.064031664874161,0.011535356183167058,0.04513696191800682,0.05528854274286506,0.0376272493330774,0.030031478444753554,0.03193777920807969,-0.08625001331432984
0.06224754041258216,-0.004755152157553248,0.0359586871467749,0.047451168994410604,0.038496285570597866,0.030957875992744473,0.03773198136600812,-0.0942156110061127
0.05735589147642215,-0.003781277979335891,0.030665081566526316,0.04232112363308486,0.037343492022799483,0.03520179418011398,0.0355521593652159,-0.07451771846226751
0.06065025663788649,0.007147872809104984,0.04022688203035059,0.049335079588361315,0.03937660961537051,0.03395299895659103,0.03420676823309011,-0.08174773041885698
0.059541498213189735,0.008769273746758215,0.038682691939627846,0.04733292622382671,0.03725499605238594,0.030462742886442556,0.029030104747515977,-0.08748492073147564
0.058526241747433774,0.004435001828219988,0.03078156706386288,0.04624915182927643,0.03484575872745861,0.029078886259633997,0.031559908316408584,-0.0813047728021343
0.053687416236800053,-0.00762604138943973,0.02613839452222737,0.03589546310927327,0.03435520634155373,0.02653530459578706,0.02795738004206841,-0.07689527514516922
0.06241620469046384,0.007170559753054247,0.0371028881946837,0.04658610654060126,0.03142500800843981,0.03171921446226283,0.024586285509617212,-0.0682902712072326
0.06012981321720171,0.009789078327763363,0.039675887540859336,0.04410636612796065,0.03331398331273428,0.027250791135508243,0.02598705704661374,-0.0875120610187355
0.05845574104710172,-6.653619967790249E-4,0.03145851355703703,0.0430632884403031,0.030663850488535687,0.02622453787342399,0.027418951991314524,-0.12146100306224863
0.05476249828859172,-0.012343850653933817,0.023738998153531747,0.03251278543845899,0.02313398245533673,0.021783450211044653,0.02219188741606788,-0.12726585373642052
0.06041398089009967,0.005171191555388553,0.03521252917074777,0.04291855313577111,0.03163670826809863,0.027450669702527748,0.03143664756855249,-0.11930509920951124
0.062352822987046946,0.007939568469121503,0.03944751604459967,0.04645355111816247,0.03110849158855611,0.025777639107420414,0.023683556763977293,-0.11896928911085503
0.06014941462934373,0.0021115784881018417,0.033500910981433506,0.03523417187845376,0.03066448473332312,0.02798545243655417,0.019431346204476445,-0.12316008740227127
0.05522767758252671,-0.011712000326747705,0.02096547340550066,0.029535873643250738,0.02328374932905072,0.019633157140643502,0.024419707100485685,-0.1384752152760576
0.061754684640774986,-3.755908047863461E-4,0.03464344362559171,0.0406280422243406,0.02568976929197949,0.026245899738156095,0.027966789987379528,-0.13656000264336296
0.0647601380939436,0.0060283060790148404,0.035907056129746505,0.04240137937805263,0.028536373061583003,0.02502040999140804,0.01608111762947026,-0.14326467082397462
0.05891029735188202,0.001586044911980741,0.03142320775825018,0.04038577545742575,0.026683790652829314,0.020628727601022172,0.019215161728484035,-0.133240975293312
0.05862000764385265,-0.012379230398138642,0.020157213145086825,0.02895734985206206,0.022386494772465872,0.020504755957250504,0.01918887679974001,-0.14129040457634606
0.06034568371303443,-0.0025313953550012837,0.030445417761897065,0.04056803731919665,0.027309861298097628,0.026387353992640146,0.019226491679980705,-0.13987584028720265
0.06125898970439876,-6.794906802729068E-4,0.03312405782659126,0.04186114843752332,0.02835935961297618,0.021115900009400303,0.018121476857508624,-0.1340656785809395
0.05891019901532396,-0.0034814382829243566,0.03071562505581459,0.040706740512648554,0.0224639381756677,0.01928065036670828,0.018337442398915986,-0.13848297301722895
0.056338123648778146,-0.01605950762433884,0.02409283221182746,0.03164698658996816,0.021059419900013,0.0177786761402202,0.0163104438140552,-0.14373099570523604
0.05845037221798572,-0.004524322111068134,0.029745439321752692,0.038796905874793494,0.028009971284921505,0.02106028265092625,0.019754053025455028,-0.13070340405098277
0.061009029011893874,0.0056911135619094515,0.03472414117434677,0.03725077896563849,0.025008299991426487,0.02280795242981469,0.017476306763702473,-0.13552484422251412
0.06241137668557798,0.0033093537367156205,0.03074168057799516,0.03671468808592265,0.02736399904152564,0.01588331887157286,0.021558031394592864,-0.13668360452906803
0.057654956225004286,-0.01367396223413146,0.02402291168216893,0.029680579617294502,0.025538667332484454,0.02076954186624707,0.01750652289776701,-0.12622241040463597
0.06265968393225786,-0.007233854108892455,0.027880101292393312,0.03668296208560633,0.02736769710381017,0.02170776765847695,0.01759895755869449,-0.1293029663736466
0.06481502732499866,0.010478900874333348,0.034872942654153506,0.03594721176990238,0.030929416667955196,0.019279669043583452,0.021532557065369023,-0.1429607051440618
0.06663904259379254,0.011851211444856485,0.032739833991932005,0.033741034759467714,0.030177354902085375,0.021401564998396093,0.009726827665724568,-0.11799666388351318
0.06737828578398614,0.0014296933829257483,0.030184812687773524,0.03536420750808076,0.029607764502619476,0.01825377083804074,0.013703977015103879,-0.12599690426907545
0.0648948884344843,-0.00537191632730388,0.025929730411639703,0.03353454811171108,0.03114005983841808,0.018248069453171346,0.015333959954983078,-0.12136922989836643
0.07285536705928132,0.01684027703364921,0.037409073016511515,0.04412531495104706,0.0316740379438865,0.02457225954418397,0.021046836232987937,-0.11317495906278195
0.0687327069532607,0.019362127376486984,0.037929566000434144,0.04583003122284013,0.03763003695704161,0.02365902692003921,0.021518945489198926,-0.11963184535281952
0.07003729203960558,0.014324167059188778,0.033179743386981715,0.045564850600668894,0.03547962110746242,0.025137140812348496,0.017410692159585815,-0.11276489982265663
0.06539031081640395,0.004421376360528735,0.027327748089778704,0.035107295197248346,0.030798906629415694,0.024242896557806985,0.02418241102359556,-0.12826053989935723
0.06884322774692457,0.022302842714601513,0.04248759418067031,0.04603869540298337,0.04065883697813671,0.024425733362397044,0.027502373061517257,-0.11836685748395855
0.06440064176983068,0.023380574423612542,0.03828255792621542,0.04650874102236401,0.03718094967487114,0.02402052960402479,0.020405920857506053,-0.12221701703906501
0.06915038358262597,0.014723313958481175,0.0357719118817351,0.042572001545867356,0.03769093613401833,0.025430165685042458,0.020579169998092832,-0.12423517289448252
0.06318784423281368,0.0018712291266630935,0.026560228669805504,0.03765709458666361,0.039119128554701246,0.025111131693289178,0.019660665534487753,-0.12593594774970954
0.06568452157141139,0.022140663289808484,0.03988086659417137,0.04755836724215997,0.04014185038048944,0.029997192088764214,0.02657010382791771,-0.1110285964182712
0.06398864469224325,0.02214444307696943,0.03352248215261116,0.04018491434725462,0.04363620565274917,0.02727941091109221,0.02195839562523683,-0.11861890932305573
0.06426550919848022,0.009888686184552357,0.03183146515975475,0.03976340776121857,0.035573953365897824,0.028029815018063682,0.022862780133989513,-0.12292898281521222
0.05660134745604963,0.0064908970101408775,0.02632489907110506,0.029951977292213872,0.04160942823308928,0.02607479120855118,0.018577109923582094,-0.12913536711510193
0.06364538175665313,0.008061949913739107,0.029485420053559797,0.03804610538024534,0.04686589331988098,0.029260152759723806,0.026397401567673486,-0.10899450859663952
0.06659474497269718,0.024768351496268527,0.03847028626216271,0.04290469662182665,0.04489214502021793,0.026713224347004027,0.0259397901851032,-0.12135332206839043
0.061632177275621605,0.018574433111284407,0.03332047045278004,0.03889210475838159,0.045977277508127516,0.02997349886651498,0.025759443674003478,-0.11433156023921529
0.060329572460871166,0.0026640472291887536,0.02541682174950969,0.03554415249744147,0.04293532748082385,0.027144819897022172,0.025356175169144027,-0.12091057491821075
0.05986737890181965,-0.003371080184632399,0.02050756237356028,0.02902774951969688,0.044388286843039894,0.024590920241650355,0.023309706514505313,-0.11820409725326372
0.06020902733860782,0.013706332506451896,0.03327634128491138,0.03955726700094904,0.04429058192399474,0.03174722644215343,0.028130461932133748,-0.11424800378952214
0.061651297982962525,0.007928043537084106,0.027654927371731603,0.035582776189328175,0.042974101662368695,0.026874666737547435,0.016767515537933462,-0.11010224508051591
0.05846052041446482,7.938381891441705E-5,0.020625288340264305,0.031873051090739186,0.042296150680375316,0.023363663582071863,0.023763941930314277,-0.11511720050186924
0.05225262601286471,-0.013462824984544397,0.01179498553228821,0.02223441873195641,0.041215720947481216,0.024128636290543865,0.0182421874017794,-0.12143975298354405
0.06083934438833478,1.5016142921066573E-4,0.023355137637958965,0.034134191463671845,0.03728428852516516,0.021672993849456108,0.02226434892407757,-0.12428310437762687
0.05757644582596726,-0.0010321154185453025,0.024986630541292635,0.033772622135768794,0.04211089585013461,0.025423518157591214,0.020778034179174523,-0.11376632843001416
0.05593762406152325,-0.006429910436446751,0.019348521162862904,0.031015866027294697,0.039029503174651384,0.022137398007414745,0.019305874420246037,-0.11996963930113823
0.05444563093918645,-0.019227637784759874,0.010239997298001464,0.02194937338643936,0.03690383590716766,0.023336265567441467,0.01523304455566529,-0.12730254422585405
0.05737527341360585,-0.010716865865998793,0.020852018058884772,0.02683188267460787,0.03680432885648662,0.023675602609601498,0.021825689769862888,-0.12403450766279778
0.05561742325365241,-0.004012980541474304,0.019613807508340467,0.03155184861676389,0.02969105109012014,0.01673763727649031,0.013091785533201611,-0.1254294027944682
0.05680012532120754,-0.008948124972315119,0.017322623713926087,0.024064437169731404,0.03741004391555304,0.01646930147048578,0.013766238301996025,-0.1281363237064353
0.05404285165255878,-0.022674922060852823,0.007067077788529401,0.016059813691636296,0.032366266644638174,0.013734353546542023,0.011767479401035291,-0.12710993643491125
0.054277246232722856,-0.010680843356101224,0.020593417233672136,0.026697074305092917,0.037660560556189486,0.015281254189931853,0.014871443902621637,-0.12393644999129275
0.057882192598019765,-0.010438457346895582,0.019344867339103067,0.029041384214386623,0.03072887033251078,0.016000527902806733,0.015041231233368408,-0.12675913415210358
0.052883424030599445,-0.0162741042856029,0.014178269060850998,0.025690051443590455,0.03200835304521137,0.01778583611389031,0.009887054675662114,-0.13490578278735965
0.050844443889341576,-0.023819186460379345,0.008529778874339646,0.017719444077310808,0.03297716982942329,0.015621916217416584,0.011520739397301062,-0.13984469294882607
0.05412030616144945,-0.018145440161629063,0.01504526478823206,0.023162676235442495,0.03604917782547724,0.017678056993982054,0.008492961201832204,-0.1299870564220125
0.05698700723310977,-0.008872237930564898,0.020812834113310218,0.030274085893249706,0.03003915060412097,0.012529193638443204,0.014242696185702581,-0.13423633502369225
0.05608080361342446,-0.012442406662822859,0.017993919187117246,0.029565493551645998,0.03620434293787467,0.015332971895668221,0.007709379006440373,-0.13945829693263093
0.05820690811085581,-0.02073726953391824,0.009498083663331634,0.027151313566774127,0.029641238459697076,0.010556229301562683,0.008451565108448853,-0.1341247720842954
0.054739388259466594,-0.025902734090318607,0.007315229919252921,0.02229223330691442,0.02930989122936403,0.015621897656232456,0.008857333335094647,-0.14098512241213842
0.05904865167024002,-0.006512447867319765,0.02405309072745977,0.03271009471388433,0.034292171238339164,0.017056222346712113,0.011223805168980583,-0.13699926729855438
0.06110402336204222,-0.0039995694275881495,0.02099072245822336,0.02964494793073672,0.03564737366397942,0.015112012230941635,0.010937363487085634,-0.13300105822973607
0.05999989043844022,-0.009210421399081513,0.017605082734337394,0.023979345631278785,0.03192314230874965,0.0158903308658783,0.009277316390316126,-0.14209329751287594
0.054417740705282464,-0.019434819087471848,0.007730847205510738,0.01766893909131359,0.03507188644300665,0.012695457902195083,0.010377996920794805,-0.14513784199874283
0.061021399208701164,-0.008195443152644522,0.021389112604445797,0.030758733966442013,0.03143828963025109,0.014869495626979779,0.01198368279581746,-0.13270961253128888
0.0619917876668493,2.664985430420527E-4,0.02434137903891315,0.03507084571813586,0.0313842341946011,0.010717403438233318,0.011141716185081831,-0.1396205140282966
0.059440212855505124,-0.001479158226842415,0.01990518303922577,0.030152729091547655,0.027094281655547323,0.01382591616267734,0.008580728596208492,-0.1319429435896239
0.056448885630706803,-0.013946757742863981,0.010599708582787932,0.021675007312656792,0.026988421665645825,0.0113281105915065,0.0047924597523725295,-0.14746317436447065
0.057108249996549475,-0.022101416773829985,0.007811354357817574,0.017891231896645623,0.030080960862723834,0.006836064851565056,0.007895237597210551,-0.15412016064320236
0.05578407085443381,-0.004698392361160456,0.02031644109451642,0.032408673788447945,0.032038323522614764,0.009218430943245794,0.008861513047948057,-0.1358841084892876
0.05914431773039755,-0.007684310598812725,0.01744723369404442,0.029953481116618216,0.02579942551184681,0.013642639580018691,0.005713217800461977,-0.14093152478163826
0.058446146834458035,-0.014216654466557057,0.009961423060539472,0.02218073764810426,0.024558785390591857,0.010627752935764003,0.0058427212222398675,-0.1333661184099137
0.052166085904953745,-0.03225116091827476,0.005662031556160001,0.02146281237272911,0.027122534134822116,0.009457367619523979,0.010166602250040806,-0.13980748388040865
0.05984616242372625,-0.011273206582880772,0.0192886590916275,0.02939671370606369,0.02794649254683379,0.01356229160921301,0.003965138551179214,-0.14325131164187957
0.05935453618986078,-0.015689773606219783,0.013786653291058869,0.028294261949241794,0.02525703164952346,0.01437360086662172,0.012172698132633391,-0.13595648385656595
0.05345968380869815,-0.022572234996560858,0.007187316865320584,0.024422889486868854,0.027337125149068595,0.013767150293247623,0.010154312123362564,-0.13937913600332463
0.050376955633466565,-0.03352097025619256,2.4743045618396254E-5,0.0177034548335358,0.02507154151396756,0.010926033936133709,0.009775756430249522,-0.14458190074000568
0.05990143110674459,-0.008177047677629782,0.016034737884067344,0.03037929992932433,0.025737049150192072,0.01607621129265049,0.017206017198103676,-0.1452326262675796
0.0597806245311565,-0.00955473811265431,0.012618867390097986,0.027858395564550924,0.02725706857225159,0.010175915632452667,0.015758468390266876,-0.17052332046841318
0.060338672556445566,-0.016367759484593413,0.011708734669045574,0.02535443900403344,0.02710657794316007,0.010497818409579807,0.014232608250025407,-0.1650826123601597
0.054526041594550274,-0.028461708124542174,0.0058226686317868455,0.023317584688714324,0.021106805243503876,0.012653319461184333,0.013818595771784075,-0.17795559629459118
0.06013866520718771,-0.009915227598834423,0.019825799109608112,0.037774364407698824,0.021195889223883064,0.017745858371749492,0.02152741043291097,-0.17552809309367448
0.06068462868089028,-0.017092856072107605,0.018160895125020723,0.0344464731725218,0.021350694321076596,0.017960433058065682,0.015796296294103052,-0.1816976308368999
0.05845392841790194,-0.02201170589767811,0.014611717846959664,0.03383467061694837,0.017567165039913932,0.013571549944588205,0.010254464426247945,-0.19348444699819906
0.05688807790116585,-0.03126469861500967,0.006984445137840682,0.02584997777151521,0.014047300343310018,0.009660022283709825,0.013698158904729134,-0.19808417218505978
0.060910368183025525,-0.017734178544252324,0.01862719622864632,0.03405518487729692,0.015551151375057201,0.009176662763234353,0.012129744224018607,-0.20103056630035487
0.05825966439844709,-0.010446178435552018,0.018493236251770812,0.03358063931022732,0.017383613984500154,0.009710856506629012,0.008760082095661752,-0.19444511560225788
0.061827309512415635,-0.020744196650679236,0.016558193864284247,0.03446585805087488,0.014499621895902063,0.0073329982082660184,0.008659846292112808,-0.21978483230807253
0.05726147337215712,-0.02389591228859663,0.01083532515611209,0.02634098568144227,0.012073564079992374,0.007419543819139899,0.009539402433001583,-0.21079698877524752
0.0614263622374546,-0.017299487300994083,0.016447143062094723,0.031798700008717366,0.01705506524844285,0.00941796097292398,0.011360487609282974,-0.20691329210526557
0.05958972102511261,-0.0040565592533109264,0.02318730267103908,0.038635260930234,0.01461273538850841,0.005228014294630811,0.007885558805586288,-0.20155561889745102
0.060780948934303115,-0.009520649682498241,0.019892018284267315,0.036294670770236646,0.012219787554063225,0.004969498682977557,0.005369791268644855,-0.19639030118078366
0.0563771893976659,-0.015144227682423024,0.013659564776823679,0.033745549539832664,0.010902241754600545,0.004784491315310114,0.0037398962786048826,-0.20303356515320098
0.05658802179168492,-0.022263568897777874,0.01055333803474375,0.028666459635160617,0.014813294404532525,0.0038650132962414763,-0.001217665422750492,-0.20286579081042863
0.0602691368562653,-0.006122099333421689,0.018406351575219616,0.03397298649777039,0.013262731330647806,0.0021748072263594338,-0.0010821894681209614,-0.19856325942223424
0.054342410616740305,-0.011606059033202405,0.016303090114290205,0.032453963693510876,0.015622328176547006,5.900983289786494E-4,-0.001949092826955474,-0.2038014799394736
0.054351509400250304,-0.016557463042102146,0.012545976159562568,0.027440407641949407,0.008630001148215273,-0.0039169890831205504,-0.003519664170490489,-0.20137456083739164
0.055123090131667316,-0.025677168512244376,0.009622221207096736,0.023273887722778833,0.005897551859661855,-0.0014193224962736192,-0.005814656060166761,-0.19897976796796493
0.059130049963388706,-0.011385739848066278,0.016194564797746124,0.02596713551684305,0.013290169680849276,-0.002073615084181988,-0.003731650174077827,-0.19870561015978658
0.0583579214136323,-0.017105899874857673,0.013279570217427046,0.022692157277461312,0.01228744901174782,-0.0027069533878030148,-0.009573501492751374,-0.20421768629745754
0.052555806523588856,-0.024255152478578294,0.006744474419275039,0.02014065376343811,0.01345890002470509,-0.0032052220216138238,-0.010441833793530711,-0.2025978832681276
0.048802775541459335,-0.0318652416119982,0.0032952144243032907,0.011456555029991048,0.012657135150198756,-0.005013090439112033,-0.013766316157553431,-0.20900313708051968
0.054103043243392546,-0.016913392598967524,0.01183186709420646,0.023776048625975127,0.012345558901775883,-0.0029973481653990733,-0.011432387888178436,-0.20686701724082532
0.05244285668046011,-0.01617517772224501,0.007676559252736224,0.023098853236935297,0.010815923037697869,-0.008777422340657518,-0.016522038343940296,-0.20817959888377413
0.05260497236534767,-0.02523495642130557,0.007035927139766471,0.015847375654294074,0.008464589343628585,-0.008101821130040357,-0.011587140652855698,-0.2044464055492737
0.04731299752006215,-0.03431942786354039,-1.275516503246539E-4,0.008300674011235342,0.007034723989529929,-0.00977368095617999,-0.019158776936844396,-0.20857868702999435
0.054097330839103806,-0.016255372221055744,0.007997272151478317,0.02060214262854295,0.013067559667503234,-0.008529013778509714,-0.015004346777068382,-0.2020110123086123
0.05104351667440741,-0.02038629016369804,0.010422711014244109,0.020714338091050083,0.00696864300787421,-0.011340713572685455,-0.016303840574689102,-0.2036172496214755
0.04998940805930971,-0.027634636050722326,0.004707457071337545,0.015846476264420824,0.008450532462937333,-0.009475554559444673,-0.01915764850393739,-0.19003234731806276
0.04578347583852106,-0.037337576766245065,-0.004506631345210603,0.00549049745537952,0.004873306880182347,-0.012726496863537648,-0.01768355212664908,-0.2029818041360548
0.05073893078429274,-0.021564587828612036,0.0048175706727546334,0.01960215307680637,0.007885802323890825,-0.009735044142339644,-0.01727056482392855,-0.21107564643172827
0.05222421087225703,-0.022042188209726494,0.003619903190454773,0.017420006288530743,0.0037787620693321504,-0.013799699412583088,-0.012389354184856238,-0.20263098731597742
0.055940042663760174,-0.019853116629323996,0.0016231739909658897,0.013112115119097123,0.01254287995964768,-0.008624334869217428,-0.015777103005760386,-0.20930319302706987
0.04829786614097626,-0.03263327940841619,-0.004180430303473706,0.0076642469379286995,0.007304003038543563,-0.016851489845469744,-0.015120455696319743,-0.20157088855477917
0.057493514027728725,-0.014882382188896606,0.00975423217327552,0.020976263024521234,0.012770072501856999,-0.009922021089859465,-0.010763933379773263,-0.18297880545177406
0.054463851056451594,-0.010857916404430967,0.00786404179349531,0.021380518688524464,0.010074536899985711,-0.004678155765903318,-0.007894030785140638,-0.18669249681555306
0.05487806178276826,-0.018731254106790024,0.008180139147434314,0.018283099107009974,0.009118730986307092,-0.005881182344198037,-0.010036705178655748,-0.19511918409994303
0.05206401973392815,-0.02461442663860768,-3.413997288727484E-4,0.013272637564374115,0.01000982693000563,-0.003709647100823634,-0.006385072766535111,-0.1908717268709219
0.05978972204430459,-0.007101440829263118,0.014143932778153446,0.025380361326782383,0.014968316651243476,3.59050815722404E-4,-0.003958979874298774,-0.18027029025884822
0.061312609681810196,-0.005407225669769259,0.01394067358984202,0.028300459330286222,0.013476679318852254,-0.0011432505195423223,-0.0031561419028871803,-0.18530021940327016
0.059554172345791336,-0.011178329339268071,0.012568659468018627,0.021113635205826545,0.01328149836386772,6.465244765489243E-4,-0.004243792036412153,-0.18077247561839885
0.05677972893611528,-0.01700620897400005,0.007201369672189057,0.022043193014265227,0.01470847833907347,-0.002187391089106125,-0.0037203141657624265,-0.18545933204374332
0.06269108235369311,-0.0034512881377654825,0.017508559237673593,0.03041787131905188,0.017484085357181847,-0.001653517678714965,-0.0014052715640227999,-0.17906958452642224
0.06286881705446609,0.001592113783193508,0.01789111569905367,0.02564062370524222,0.02180670913520352,1.4399571633355807E-4,-0.0038112244472663682,-0.17485826882674052
0.058953899571097264,-0.004117206591842187,0.01618614598717094,0.028790346741969758,0.017859121064156526,0.0027049162526542984,0.001140382346555671,-0.1803782176915044
0.062422168799487955,-0.013194936780689689,0.008156915927557053,0.022310201392940376,0.02358622260150581,0.002560151470548398,0.004371618854619853,-0.17661788452941896
0.06720608098458146,0.004385728891111052,0.022767706162843203,0.03177233527058059,0.020406106630574967,0.006185435654009391,0.009195010546877738,-0.17631958761370375
0.06609637352686737,0.0013363010278341957,0.02262326842083793,0.03433984013309076,0.02458507163995343,0.008497975568156268,0.0040982703312073205,-0.17246976603487174
0.06285835029367629,-0.00172013041326332,0.020741512999248694,0.03241003432447146,0.013790243795649552,0.004208746577701212,0.006717456507952521,-0.17258260877796625
0.062060260298341094,-0.010516625201852953,0.014517185011352346,0.02733330310008871,0.01900607763303893,0.003193101680872257,0.005877204649907961,-0.16804634430488719
0.06510547223645163,-0.00488505424958639,0.02084072298322344,0.03398324412454045,0.02496350093390239,0.010597928563144567,0.01056815910240237,-0.1710478914330902
0.06249403493060042,0.0013344743341746391,0.021648063779283095,0.030049489339075433,0.020894341379557937,0.011533919906259902,0.012399231499911718,-0.1631657020180423
0.06375061270535395,-0.0031676930335159275,0.01871135619877472,0.0334523678950406,0.025003155485269078,0.012752297220771385,0.014020963218361517,-0.16754253083310608
0.06125199723477476,-0.010654976570187675,0.010199408370273284,0.02808273643936679,0.01803091368999911,0.011022690510409222,0.012482142950687652,-0.16715060398314882
0.06456428836013484,-0.01101637885666465,0.014138665367152988,0.024165342618699574,0.024680275989544854,0.015385014173125551,0.010940420565756403,-0.16864069756503036
0.06636866027360712,-9.27890637479111E-4,0.020254458514854155,0.03574206321099422,0.025618602069415075,0.016575094639612615,0.01835206423334482,-0.16046232971557572
0.06185202200463305,-0.004829334634487551,0.018562109802547133,0.032546579480316036,0.027682426040657696,0.016874546128846323,0.01641225836688104,-0.1669072623242959
0.059946340427135106,-0.007243201643351096,0.014614700672805948,0.027876671832412346,0.022658195717908006,0.014136069260766203,0.019974579891842755,-0.15852574582135165
0.05914710786985041,-0.0188638358980187,0.006672219070332115,0.021699894742178084,0.023835959762189274,0.013763459185490339,0.017218705370217174,-0.1674934280269592
0.06293798691872603,-0.007031995034891025,0.020296722899957126,0.03325270928087945,0.02744687731123562,0.02174592222513389,0.02819845803800389,-0.15383561029436227
0.06344739725683707,-0.0010562764179498883,0.02473556669394482,0.03488316328154949,0.027020689480666698,0.02532476119389577,0.02435785844069992,-0.16321147924812224
0.06495266286339886,-0.0043487475567705455,0.020247658839266422,0.03334087668502474,0.027713235326224078,0.024478762955896637,0.025844918571270636,-0.1669112778111648
0.0632733364028089,-0.012086132471134372,0.01475174478145782,0.028781270292180913,0.020619877067198485,0.025992792790266353,0.025523356243704616,-0.158317191569599
0.06084376807461185,-0.019912722149328665,0.014080253551039519,0.029298492788914946,0.02336787854199264,0.02604476945209277,0.027442937440961615,-0.15656208518737774
0.06529212641520929,0.002329625093728566,0.023583864433018423,0.04127617195893275,0.025400690446920535,0.028135944663951477,0.029044859504972983,-0.16372319693424398
0.0680387635289693,0.0013543677354860182,0.02457796419035537,0.03948122350979161,0.030987173405328805,0.024463953562785017,0.033471469247596475,-0.15316721072591785
0.06549544459932179,-0.0014401285487924006,0.024221295135331965,0.03842977738024763,0.028120655185044266,0.033035300650931,0.03573944964249924,-0.15373308900848626
0.06519388743829381,-0.010779389088600318,0.016348685678239414,0.03384785707081306,0.02778468396840307,0.0321399365330302,0.03650355249229818,-0.1510935920268109
0.06428141662279434,-0.010983657457914093,0.016909549794294307,0.03496998445209922,0.02877317172783711,0.032963412689397294,0.04171426099432522,-0.15636136946662893
0.07082962209222853,0.0073272962353896345,0.030325407294440613,0.04537846514945894,0.028989344262010153,0.03631748218213765,0.041732521581931636,-0.15049866700920325
0.0714954970595204,0.00346166659625342,0.03169360261218322,0.043983469336873735,0.032516144463744956,0.03331303559884908,0.03965448481200391,-0.1415639853684135
0.06647651618541271,0.0010181587330971575,0.02351441170271147,0.04609178592030364,0.033590583120400516,0.031600177596145924,0.03830454303451089,-0.13916160459475177
0.06631972434423006,-0.009916813519148006,0.018313603471909072,0.03352616474577159,0.03189838153229083,0.03606311239486303,0.03799024553998879,-0.16009629389705368
0.0660949534975207,-0.0040430864031211905,0.024188846284429934,0.04120510581211929,0.03492335640793044,0.0344313904455106,0.0451359141465316,-0.15008381187938638
0.0691315871816049,0.006173240013151636,0.026941025861000785,0.04499560699277572,0.035790215552874295,0.029625720738193927,0.03779027085668867,-0.1445060754992224
0.06886011401103659,-7.45756129687708E-4,0.027928768449880525,0.041007119725211885,0.03601611394421454,0.035415939185805545,0.03497800805425106,-0.14704639460238753
0.06769592688752409,-0.009786821850624001,0.016376683106788463,0.03627639767086608,0.03979760053404953,0.031817793891520736,0.035594631913388255,-0.15007696962990802
0.06408223520574037,-0.011010937759203024,0.01954022365246116,0.03284578971950469,0.03271004476725046,0.03618348768645436,0.0373253211341372,-0.15338135294579378
0.0661065523660292,0.0016451441560198282,0.02854512825040771,0.04296462086606569,0.03766579617923025,0.02907839002606106,0.0361365465795196,-0.14217129178005866
0.06678328113821624,-0.0010241689271358208,0.021741747794858716,0.03877145043133034,0.03614864085403106,0.0312529774205302,0.03668537844870934,-0.13568360497640722
0.06202328452723667,-0.006223358340068933,0.01650989480696082,0.030670668333633664,0.03975003387595307,0.030739725249319325,0.03872838534470784,-0.1320712600428596
0.0604115234063407,-0.018934215659051252,0.008550768639949581,0.026015399334760346,0.04238417060311448,0.03105935277966637,0.03832690334223107,-0.14384910643676543
0.06501357192747274,-8.325486942903414E-4,0.022884706687045946,0.03614127518599602,0.04158045982102282,0.035193119449228746,0.042254723943103305,-0.12945656201736055
0.06147043947772807,-5.358220885563913E-4,0.0216054879411856,0.03486373401975462,0.0398562501463293,0.034704551717065144,0.041234279279269516,-0.1368489152463659
0.06229560436274057,-0.006985208449512682,0.01841527261604583,0.03166549677641087,0.04137498019655039,0.03296001235287954,0.04732439564162878,-0.14396932064038506
0.05843854385657792,-0.018743306077689717,0.007573376265972645,0.024925245954928486,0.03991005645944501,0.031731036359502834,0.042072867720311255,-0.14342766538254356
0.06441401447984482,-0.006345252465663615,0.020572966710440614,0.033021829703716137,0.037497703234307886,0.03375426570075439,0.044232783797778764,-0.1308109552657831
0.06710990149222128,0.0014258929456772448,0.020864679438369522,0.036507775884218774,0.04116956208429728,0.03878950233465882,0.04172617569957748,-0.13065217800953388
0.06280024858075106,-0.01278987886591386,0.019093242285567698,0.03315844655655609,0.036895887801326646,0.03392752841268449,0.03979013963996329,-0.1271272536860092
0.05861900441307524,-0.023218248130838372,0.009598389415115377,0.02543007676722542,0.04596401327005354,0.032485521937603644,0.0426365431784663,-0.14713936415206066
0.06288538848216593,-0.009503955959391283,0.017517050230543285,0.035596466063116054,0.03922404933788418,0.032028050338031,0.039439585456753384,-0.1310832756825614
0.06423970850200811,-6.356290889280944E-7,0.01892782915375826,0.03248390492916345,0.04255196202257914,0.036274970941040416,0.03675086865922865,-0.1294101264270272
0.06323340292237585,-0.001623762090570191,0.019400334588000556,0.029996359506041674,0.04328932667016362,0.03110914567109419,0.03323271976455324,-0.13434203881581977
0.06297497045737016,-0.013950229154627439,0.01095147036143672,0.027152220120550366,0.040745640051774404,0.032866233345001175,0.03639835989243856,-0.1357437208098768
0.06139625054591207,-0.0067921339950777464,0.015831121485965674,0.03433014402528416,0.04474889519295851,0.037203158869122184,0.04079600360442958,-0.13714010592840717
0.06086856454785383,-0.0028301711751525325,0.02032389840513983,0.034102061492442465,0.039396343707449454,0.0338092254087859,0.038923679373238484,-0.13327483844321672
0.06579713604060466,-0.005774037519365535,0.015661675857480753,0.030993975716197122,0.037983866993873634,0.033774346007724936,0.03591072577423042,-0.13484871434547122
0.06627379910646995,-0.020205078025536175,0.010626387321073188,0.024812539083227385,0.030281162294038003,0.030694021898638645,0.034738431734748755,-0.13709360393471526
0.06530900771832147,-0.004337572437012858,0.018640416061705637,0.029862618741560945,0.0393466283573476,0.035946089932803724,0.03576887650581139,-0.13119313850603978
0.06544235972294324,0.003758201743036765,0.022460137288806352,0.03396384399669039,0.03564712022973669,0.03381917280596945,0.03094701789564327,-0.13450432863844006
0.06877859350847448,-2.516314916250919E-4,0.01831767837805985,0.032890826931461975,0.035721503532302586,0.0314541369411301,0.0361496018587007,-0.13876921390140431
0.060725850605148936,-0.011564210164253734,0.0114672543725383,0.028768923697911834,0.03632636715321953,0.03156592405761649,0.03266206516466765,-0.14236664306661861
0.06324568190080442,-0.005900986089731338,0.015146383514484342,0.028177611220390225,0.03554054208326388,0.033489872202269184,0.0349484475059392,-0.1435038277866184
0.06474564163731741,0.001684920333707977,0.022844222793622734,0.033556969160994536,0.034593243922575255,0.032066308557455604,0.030264783946441116,-0.14490609155131343
0.06138189425989521,6.104478025265044E-4,0.022057366331794913,0.03194950234810654,0.036976218916662064,0.030311021238852733,0.030154331438023603,-0.14052578862034276
0.061743841844688147,-0.010281057911608953,0.015824806245650323,0.027356252331058484,0.03355313282627316,0.026030727282798972,0.030820781115683864,-0.1461784796964813
0.059170364813761436,-0.009298762380687711,0.010568616069171229,0.02324929675666775,0.03216929501886032,0.02548664027373368,0.030864717173300936,-0.13509192121999558
0.06807823349141622,0.0032247830034364856,0.024667742928940677,0.03469768278974954,0.029779758053737927,0.02510578531056296,0.02755252806711059,-0.14030873638821473
0.06450927791289814,0.004266134455267855,0.022201112271399943,0.03269686996177394,0.03582866232581039,0.024352422338695483,0.02848578427824472,-0.13695076338494822
0.06393815574131535,-0.0043141769288572,0.0181578681923729,0.031519137993069705,0.03329962002576899,0.024843820240262583,0.031207405599881506,-0.14108064559839567
0.06391332382391154,-0.006477400267999829,0.012872154173871496,0.026561274767602863,0.03063666387366374,0.02371448864825024,0.013937910708727906,-0.15107962723902846
0.06301685054084268,-0.0035948707224819046,0.020071107362055928,0.03028164459377365,0.03814791689655802,0.020780343805724927,0.022849258763810283,-0.139508187790432
0.0699884448122323,0.00957132867253288,0.02390478483309267,0.03363586350320185,0.031063618149938688,0.025427454913065323,0.02311416566302596,-0.13579664967012683
0.06731155220058986,-3.820395002158606E-4,0.023838026602736387,0.03343629321012477,0.028690147349845995,0.02278393920760797,0.023065787206676684,-0.13904948205230233
0.06731413260612494,-0.0049500520856654295,0.016882768667360677,0.03019124558009726,0.03179093153012456,0.02101186063654204,0.017164478121552234,-0.14423732766927488
0.0653550279491025,-0.010776054584937146,0.010624291334522341,0.026341384524825782,0.033186871665529256,0.02093211002711601,0.017049488596580595,-0.14084844586071843
0.07064600160214972,0.008778816070236973,0.024376424634448998,0.03562818010040517,0.03694193428623737,0.02618271131580193,0.023122559454186245,-0.13743341075412996
0.06734585332109805,0.0023555503414916185,0.023125182153063265,0.03281155163903286,0.032222548668112194,0.021144782245357725,0.02286287105468916,-0.1366701278622717
0.06583037849488532,-3.794397447702352E-5,0.01832088174651544,0.03552397586170206,0.032189702234977635,0.021535025107604105,0.02230915013311258,-0.14531905392787725
0.06024471462716208,-0.008727015970119597,0.010524211062739267,0.024968216298438293,0.031241354906855565,0.024617156231210212,0.015476510125645326,-0.1498568364637562
0.06108445272856441,-0.008498691612276595,0.010635011991806234,0.027817805990377642,0.0278282833368827,0.022151285154904814,0.025097887797682038,-0.14865778255985687
0.06685924654936803,0.003088831608794074,0.020753318506931188,0.03285561305431688,0.031605775436862764,0.020372791464575855,0.022404986309487857,-0.14805583939299055
0.06051690363256055,-0.003420249610041277,0.019269342497816533,0.02954581100446696,0.02410630788690611,0.0221543776102643,0.019055250259987493,-0.1430849873749416
0.061779859282731234,-0.01060238941866341,0.010735746025514427,0.02261171459260887,0.0233510287585505,0.014686070392885426,0.014688198253988852,-0.14304149030874766
0.058067160615554406,-0.026325674975068696,0.003970632519096563,0.015505765816503795,0.027787484024221234,0.01288073407327779,0.011316529187932113,-0.1724700663958443
0.06228788705693506,-0.0047525132367823054,0.015103476431214135,0.02936524907528736,0.027696842485461098,0.013410516342713983,0.013606807393171173,-0.17080286328575234
0.0628828943538512,-0.0065159219268779555,0.01707230324648423,0.025396765651490474,0.029901469641624375,0.015924033996795962,0.011577344446985853,-0.16595503769431258
0.06359696409192694,-0.005813524517965252,0.0101604431273816,0.027549656305723553,0.02924583128147539,0.017494290646704224,0.009545176108796637,-0.13055250067679874
0.059772874534145315,-0.013889793327622392,0.00394886054646508,0.018961052954400474,0.02482159968308457,0.015120168784069767,0.009752056328372382,-0.141342199611131
0.06142334051074022,-0.010112476700788617,0.013241687950212614,0.025647337018336602,0.027292090642144537,0.014917292729267548,0.010833299077922541,-0.1449908430946868
0.06321339500731205,-0.0013863657905331059,0.017365503031824353,0.026850232848057598,0.027911285440978553,0.011441049527779978,0.014941403390054476,-0.15047344948117647
0.061092532249959454,-0.0032463403802781904,0.013351703610458596,0.023662016954505406,0.024662534125299996,0.01544944457834004,0.008960795317879857,-0.1448828264751174
0.05862527422851792,-0.01437973237891312,0.006729786206565638,0.01679746508939299,0.024945995557695617,0.011361869008589163,0.00878767671673399,-0.14213531104487948
0.05572060640199178,-0.016733315680080022,0.0065792544468993045,0.01755871827568884,0.03196144188216061,0.01369773206588935,0.011615267783305998,-0.14728401241522626
0.06220152186880938,-0.0030849093651304288,0.017446569438056937,0.027598104396155274,0.026761402860033916,0.015226207919459531,0.006404551590167604,-0.1410097580129897
0.0639087360650689,-0.0039570282503874656,0.015039768172389141,0.02259702118573426,0.031424206322407715,0.013107268435311023,0.007936123038132148,-0.14280451327706706
0.05997142122497875,-0.01455196735714746,0.0066160101235412305,0.01851235420858798,0.02133876804765288,0.013184359703958976,0.011131650670204983,-0.14287541589347566
0.05736704059178954,-0.023012551343117315,0.0019238363775257107,0.014055366275188117,0.029358492982422293,0.01001949628708027,0.012015364641080882,-0.13841004190384024
0.059023517757814156,-0.0029221056427439877,0.015541861144994451,0.02278542415406788,0.027564198426672522,0.01294840325922071,0.010393021713850224,-0.13460635113037364
0.06518120467808573,-0.003527043546794187,0.013918244335785014,0.020217947164421206,0.02848415004260082,0.013408799177733768,0.009331081197055727,-0.1517037433117969
0.05828280680938262,-0.013809293828839948,0.008934727850487932,0.01659186303563522,0.021090700889346125,0.012742981782733013,0.006109092087700126,-0.14685182574814146
0.06110866625533975,-0.023288422122222964,-6.362917325399089E-4,0.00895533693125044,0.025492741640334233,0.012429925343209865,0.009706580062981045,-0.1512436731458525
0.06255558362183036,-0.0077378597822508255,0.010014170300648117,0.021567509611047943,0.025519437123070535,0.018879890307513147,0.011854841075933608,-0.13936454317021899
0.06137503766879785,-0.006772778236554749,0.011655380392848583,0.0227781273866344,0.025892932987339315,0.015592961046995642,0.013613850964031806,-0.13586690657067094
0.06138122476355292,-0.008547478798318554,0.009594699995477117,0.017898945756677935,0.02084632189249777,0.011466333027420233,0.01145945662116383,-0.1422823922909828
0.058312512825600286,-0.017793866068740446,0.001357143362758489,0.012347613247729651,0.027660730361127244,0.009795835701451892,0.010438109763466234,-0.1511749440675793
0.05795083221389664,-0.013795220654767695,0.009255459055102657,0.016618717250059544,0.02649836913918122,0.01957216930659125,0.011665361860745177,-0.1440013814006075
0.06285571130974475,-0.005181668551968997,0.012836867721921955,0.02092835323647897,0.02348468910344206,0.0096791690712156,0.005011770626438672,-0.14452000372405086
0.061611436609894446,-0.008942325328331243,0.008251230973187697,0.019055239878522978,0.025776179639585627,0.01473847233070684,0.011228359612278152,-0.13728634383505914
0.0605390784718471,-0.014191263078850793,0.004679660070825173,0.011855085519231149,0.022848889025543623,0.010901387506681752,0.007902105724939408,-0.15270450564339666
0.06262370258107515,-0.00976567547832747,0.009761777807155462,0.02207415247121226,0.02011807553347126,0.011831024872178287,0.008213023063205534,-0.14454060894056603
0.06473624361051089,-0.0019068741869019666,0.013334269471151365,0.024336225825740472,0.01930665035588564,0.008537274345318004,0.011660883923142084,-0.1477282881077822
0.06516340534839399,-0.006191705065984116,0.010485178974726752,0.019122655511713455,0.023003235248940667,0.012164765298122188,0.004456835883446245,-0.15663368344747125
0.061003264274985855,-0.016603349828605042,0.0062772302042084045,0.016049696393598295,0.024312911670955492,0.007987630134618269,0.004336656694433935,-0.15510344965397296
0.065977905673186,-0.008169422071460916,0.010549811485767759,0.022686998212197735,0.021087094848782795,0.01397842430750762,0.007414434869539517,-0.1471037678401501
0.0625620286627566,-0.0011641503185690564,0.01822975289848956,0.027357610447840908,0.024728578131097995,0.011458575696556905,0.005528439045598414,-0.145963063225538
0.06541741825461811,-0.003094580397120625,0.01466227656300728,0.02189736237069291,0.023908540030811876,0.010233846212078047,0.005905769107242575,-0.15032536120418688
0.0635284084218523,-0.013505174632653293,0.007269221748924109,0.01878394106555882,0.028710089270487432,0.00847653530444073,0.0027757368868061546,-0.143381266588414
0.0684572586976701,-0.008485567727096778,0.013845447073958003,0.026971014648438534,0.023486567465706615,0.009978635432050057,0.00129701155042049,-0.14970422485302753
0.06547685436314128,0.002588775188228499,0.018504826256353118,0.030854223572472694,0.020214423947072967,0.007392021506109583,0.0036218323304836653,-0.1496141561524764
0.0659141917998835,-0.005069162797488308,0.014786864872594854,0.027400546905550455,0.02015263558091741,0.0034276070594207978,0.004431807786003368,-0.1563210241984125
0.062028791937865625,-0.010618453416346584,0.012340269129029652,0.021538070320545846,0.02149637389187526,0.005965732010429945,-0.0022052931730674363,-0.15604941668103475
0.06814171585363883,-0.002568379016388661,0.016929642621073,0.02935133731898251,0.022733604409224853,0.01068848697562633,0.0031283438970410343,-0.1545209546068485
0.06628795313463588,0.0036082136622403796,0.020211562011051416,0.03111770114696609,0.016796789041447147,0.004360044693318332,-0.001733391071716828,-0.15261473610848109
0.06863017029350803,-0.0013442551930136419,0.019141710283033526,0.029831181325819883,0.017162232320064256,0.003298783089496869,-0.00555160656272821,-0.1566091316569849
0.0658856547357045,-0.011424654707276539,0.011122328919438621,0.02042618557846046,0.019234535784781653,4.243200818086848E-4,-0.00978876503226444,-0.1629724560201889
0.06430918721333492,-0.006685088843182781,0.019571617042168376,0.02930506258791732,0.02419931919465244,0.0015954901234397742,-6.876347927506945E-4,-0.1567642849044124
0.06377893513766401,1.8480294106425603E-4,0.02241300984683231,0.030808048469222114,0.021209130042206245,0.004192770316706175,3.295220363621977E-4,-0.14931487727238557
0.06613929484802361,-1.5827283924275867E-4,0.020003641904182634,0.028745004780348856,0.016191814794923685,0.004523020772888672,-0.0014780996552801885,-0.15647721703172915
0.06588617612372737,-0.010892063440494752,0.014541889570082487,0.02765856795080306,0.01996399447130196,0.004585096133804099,-0.0014099635471776987,-0.15939967836933758
0.06588561459544,-8.768522248909432E-4,0.019497188173758683,0.026867702731913124,0.01813349442172488,0.005610879585934452,0.0020103493974201066,-0.15133874721456766
0.06622954930061586,0.00915112068062283,0.02318063400929682,0.03291201194657582,0.022272093928307698,0.006439570401300443,0.0014745375091768844,-0.14446800480590066
0.07090825785525716,6.961664599818011E-4,0.019940810863396274,0.03249174047295279,0.024334039367760033,0.005330142748437614,-0.003146581349341041,-0.1542974855543911
0.06678175522523642,-0.005734766733891813,0.012491603204645381,0.027594408820113547,0.022553263186011332,0.010052214132926982,-1.379035684414067E-4,-0.15441969886790005
0.0697568932247099,0.0010758334001848195,0.020849304611783505,0.029857574501743974,0.02192712892293748,0.010751916491852085,0.005752910690357831,-0.16055646502522702
0.06905376526295157,0.0065892360995182565,0.02303403873241116,0.037055403474550094,0.025924572656274313,0.007979799614860894,0.0036364532684843884,-0.15531745536385747
0.07079593532344779,0.002991083803098174,0.02088017163243651,0.03494901620590604,0.024041960620596128,0.012657332510332374,0.0072407382383949835,-0.15596154494811656
0.0685928531339956,-0.0036953298696756043,0.015072355333774571,0.02644522305365995,0.023693752606559128,0.003992545491894774,3.7472122362566096E-4,-0.16023585167121593
0.06759990413230195,0.0023757132315551403,0.0181064816681279,0.028290905799377115,0.024249484139999066,0.00887449183376236,0.009739078692043693,-0.14613557339697902
0.07159418684512205,0.008537087550511736,0.02342033630115794,0.03388424628858387,0.027933774629542336,0.01234197575153967,0.011316896960035043,-0.15430299684855506
0.07095191823469509,0.008086998659525842,0.018109200230599476,0.03398328733942399,0.02445319172770411,0.0113728387777794,0.010062595129350054,-0.15023195363479463
0.06990176396969994,-0.006139020229425722,0.01618448529539327,0.028830189961103272,0.022575193812447925,0.01119441287136761,0.008743595073008086,-0.1418428424331558
0.06915432441686997,0.004357679914353942,0.020632822824029277,0.03501189669555604,0.023971393541038048,0.013121372950521034,0.012763690686362263,-0.14942536644899213
0.0748930233524566,0.013361249307774879,0.02457925033941748,0.03565833259207973,0.02642074886011658,0.012789775312176715,0.008593435897832846,-0.14144407953461946
0.0650526764901472,0.005471441750294661,0.023552437247152884,0.031863417736529245,0.027960782386853903,0.01587522178609238,0.014286890727219477,-0.14619598210628382
0.06926217092681217,-0.001108939285095911,0.014006713841997045,0.030097256139539376,0.028231687356177464,0.016933775957618104,0.013235199803962368,-0.1467819318644662
0.07254902800374441,0.007177740519832248,0.023587713285571927,0.0379553906403207,0.032333683974665794,0.016479531247820582,0.012503149594750702,-0.14456248972672708
0.07132370366555728,0.015789228615282112,0.027264629619759017,0.03968364387287619,0.02735536058915403,0.017278205517806837,0.015326015113044107,-0.14733728002209628
0.07196148809994123,0.0074142518903317755,0.02295233904329465,0.03788854518865975,0.030028432296708027,0.019681855249844494,0.015241371231195731,-0.1430417538338262
0.06906877168081507,0.0023700028490293464,0.016551553233181526,0.0295606225139983,0.02379807803768058,0.019419383997575253,0.01817935948245543,-0.137974370024861
0.06894058115442765,0.012243263896214182,0.023765419616405076,0.03264893087875689,0.03137029991992874,0.01932574926861173,0.01765681120865861,-0.1366241990237727
0.06955459665066327,0.009455900793485388,0.0248196150208915,0.036745655438216895,0.034088260686057775,0.01843725436030051,0.01581360813548827,-0.13920890407721864
0.07150336416453357,0.008022111690201577,0.020523968541704078,0.034384784093186606,0.02913622063024197,0.014149114770492726,0.01600739247190681,-0.14162909881283037
0.06679287867328192,0.0020968156892813444,0.013568406246533089,0.025442149452815116,0.03343322699456665,0.014905173564561664,0.011385861011997015,-0.14764786010057668
0.06775892237536701,9.705397068255398E-4,0.016402177855230717,0.02932910261799637,0.03381359661917636,0.01645998856680017,0.01573105998203149,-0.13016676871854282
0.06971708590056842,0.007674706434105286,0.02145851760322427,0.031057949947442907,0.028700229687194496,0.015421866478181036,0.01640054866517553,-0.1396691797010708
0.06682892687995036,0.0016686868800543043,0.01696916640073945,0.030626715441964138,0.032980244564322664,0.013384260711685815,0.009330380022387511,-0.14202363226734988
0.06681026928905755,-0.011948978471944266,0.012908531378690472,0.024028084539285403,0.02789190743513137,0.011546251677323932,0.0070947800705591715,-0.13676463926210491
0.0673077268613125,-0.005554425239209083,0.015820683627133746,0.0269575330692267,0.028456002394706734,0.017859216500400666,0.004573852971364733,-0.1246486817843065
0.06860450362008375,0.0028409876278285787,0.020019050611920726,0.03019579178313618,0.03023252739540243,0.012494247511184683,0.007793032969339043,-0.12209656649314238
0.06681753127028982,-0.002914340970012994,0.01690644965587702,0.027348361150280942,0.03244631533724901,0.012572173264475963,0.008420383764165094,-0.12245330669946783
0.06524249203735459,-0.009145850315982472,0.009524426790663388,0.022272576432028585,0.026435373858602052,0.01034608899304868,0.0024901046033845987,-0.1230850026470252
0.06675700054810081,-0.006589362137163249,0.0113205926044757,0.02692951662360946,0.03299515681711795,0.014627061810678084,0.007613662652858268,-0.12130987693406985
0.06805081900409371,1.9017940428456964E-4,0.01924771623139545,0.030239902258365384,0.029265343505660547,0.01182667139943885,0.004964637568692074,-0.12229815780606743
0.06663702733516924,-0.004332036160840993,0.011808848017124934,0.027047399113386106,0.027201193253937248,0.009404637490201897,0.008061910977121606,-0.11760772616277894
0.06478724261458332,-0.01368834643250734,0.006138968180126703,0.021144667089235753,0.023649785363199127,0.0069377757095034406,0.004512121241078281,-0.12091200541077654
0.06578567401620819,-0.010281641151171802,0.011977014535298671,0.0227970293154847,0.03215603743771389,0.012052710062021743,-6.267159224493826E-4,-0.10930089091722225
0.06967318089744085,-0.007259606740248912,0.012562419907528162,0.025676541078067296,0.027478074489979968,0.010579923129327486,0.002345012157565118,-0.1167789874139849
0.07127029192863708,-0.010532281083292877,0.009985422337573302,0.02078991859879558,0.028772014628070986,0.0054105489792794,0.004319615710448496,-0.10112397209304681
0.06717291014073001,-0.01823979779058465,0.0058849656794378105,0.01516612893786678,0.025652032689776505,0.009517027732557621,0.0030589199127572177,-0.1191241407769302
0.06385485143508873,-0.014576156840674877,0.011571589294968166,0.018677932765569595,0.027528145250335995,0.008505857517638854,0.004724817892553518,-0.11927989834330602
0.06818091601792559,-0.00849561625392824,0.013820660016615137,0.02569397305934682,0.025362436177319092,0.007288383585248681,0.0032349315767917592,-0.11795742164298527
0.07011051555850521,-0.007071318974712325,0.008992696418794919,0.021645149966588603,0.028635167846700515,0.010888589117048767,-0.00132730308457044,-0.12348321878039811
0.061999634032941314,-0.015493453973540572,0.007083093154612153,0.0171580447087178,0.027933761680123955,0.006648118191617413,-0.0011959905616281295,-0.1217260678011409
0.06424542469297702,-0.013287556488917177,0.00855292861118578,0.01877263674518436,0.025866823064840533,0.00863071220362889,9.405009399274569E-4,-0.11431237430559212
0.06771210030151877,-0.002725016413586962,0.014459874110954132,0.02763543425139855,0.026828737207165238,0.007668174972818464,0.0030893378656028114,-0.13428020338821975
0.0698544089221605,-0.007445086175933226,0.012583939428322356,0.02707405032729004,0.02413536680163872,0.007476738297277121,7.887918261005653E-4,-0.12971295265488958
0.06797747533969292,-0.016009228960378808,0.007709529283353305,0.020312322775642558,0.024145185067730925,0.005778575473986868,-0.004465636356462526,-0.12550047352011778
0.06503397738452037,-0.01966748652121393,0.0061853565472834915,0.01882206619546056,0.02623283860186469,0.008625375486949485,-0.007492862703469471,-0.1276373355003564
0.06976872108712674,-0.005455587314020401,0.011191919553228213,0.02154304529193426,0.023505132169399038,0.0020967430102652286,-0.003094226130650561,-0.11683702360803042
0.06576414079890357,-0.007066119512015541,0.008411369691641931,0.02013802783231699,0.01637327919912855,0.004203066797760917,-0.003286537866680648,-0.12247076096203241
0.0684543107512413,-0.01123238839906898,0.004889225809625161,0.011595829741040111,0.023985033977046454,0.0050681634261433494,-0.003374381997399383,-0.14049260209438175
0.06490193583315462,-0.018880610176567236,5.740453864958703E-4,0.009638925295029336,0.025236786296518997,0.0035498386570886184,-0.0035628283784930274,-0.13769284333311044
0.0654725198068493,-0.003981607191589763,0.011173307847256423,0.018286837416135036,0.0327638031876743,0.00300219395475602,-1.4901514780634164E-4,-0.14943467138128003
0.06733593385696673,-0.0018238706107329295,0.00747948175561066,0.015032663288467753,0.02170125182291604,0.005570467821890203,-0.003302119165815118,-0.14300783061527497
0.06522523994626214,-0.0036934316561365106,0.005051378303391497,0.01630168190263444,0.02077959525085701,0.002663868212136645,-0.004292299510329771,-0.1450148793368092
0.062410406537218084,-0.013754363672789842,0.004585333001564794,0.011003185639735602,0.023625204190584382,0.0018542243381733364,-0.0069514582956542136,-0.15147372136813694
0.06574565686195886,-0.003903380918428955,0.009920787630690757,0.01947859906659968,0.024075835910531678,0.0062141289067044895,-3.573051795008685E-5,-0.1422739577794324
0.06730998684450655,-0.002917637612538254,0.008410717949567681,0.020698158098164453,0.021852824223656954,0.001003017203293599,-0.0027824365215202464,-0.1526471979681725
0.06679233478053792,-0.010065844458953244,0.010099023409382258,0.014165489172863014,0.024251072675429582,0.0013793879205360171,-0.009700043947895998,-0.1326956332016517
0.06156420374481745,-0.014673816026188755,-0.0024097480887399743,0.006724543895747331,0.018925198026920016,0.002289660738741627,-0.007893881061333914,-0.15419718300914384
0.06605489046462178,-0.006896685650914286,0.006613336403879411,0.011671787104354252,0.022012765615677235,0.002517335526653304,-0.0018615251561224016,-0.1486786242166097
0.06562049405819081,-0.010294506313021997,0.008042794959165985,0.012348683835600817,0.022929778264195115,0.00381749379875397,-0.0076828071140965645,-0.1541276259884516
0.06166666047006445,-0.011021132684058951,0.0019804229676907248,0.00856401391924107,0.022956151068217214,-4.871169075870654E-4,-0.010153191169908963,-0.147421344464006
0.06326970665539103,-0.019407720009928252,-0.004037887086754691,0.003697532811021532,0.021848731070331667,7.633669976950604E-4,-0.00736245949173957,-0.14646497365283734
0.0657810505283555,-0.010988052830839526,0.002412170600569532,0.01659061534900945,0.023464091159220657,0.004388330521467012,-0.0035167833643280403,-0.13983975343544403
0.06763811310488624,-0.0038339887016748237,0.004584603361134999,0.01440256634928819,0.022574539907716178,0.0033439249275146496,-0.006075713841349427,-0.12371003251196354
0.06465413537274,-0.010642062834796415,0.0023178635322425017,0.007501392739641288,0.02573698600836814,0.0014605735373983005,-0.0029477455400951495,-0.1269077297400294
0.06383223266062152,-0.02045415032445459,-0.0019513593060250256,0.0015369022103258047,0.02235174838745101,0.0041759186782399085,-0.0031193826227040884,-0.1266012507325091
0.06368204013737737,-0.012073880108597744,0.002569830878342548,0.0018148388770519595,0.02332443761395936,0.0048350987567337255,0.001672338924742673,-0.1100208002500848
0.06646629911544712,-0.0023799138827688407,0.008286024200628862,0.014369411073319533,0.02851264686259062,0.01016646308177171,7.461384524149744E-4,-0.11347128944945734
0.06564510765413094,-0.016759985458865496,0.005243097675396636,0.009744828483772134,0.026243612805998552,0.0065036354838969475,-0.004043900143781721,-0.12619811979079115
0.06374453289970092,-0.020829562881556754,-0.003755370549526413,0.006179513787946417,0.02662750850772491,0.006522200144509581,-9.324655612296692E-4,-0.12622497878301434
0.06597283670383054,-0.023561688948982498,-0.004727249125548324,0.004670251638712727,0.025243023860591532,0.010840092609073678,0.0037401854423059033,-0.13113396627216398
0.06775086559627352,-0.011723327687381482,0.005987327260953049,0.009956505060606503,0.02676600889773052,0.008980408447312436,-9.773845414718003E-4,-0.139421365748871
0.06783762561537492,-0.016289317834462972,0.0029257175897380674,0.008659366676386629,0.028092414249017195,0.007003669792979846,0.0020617891050460006,-0.13908495013699348
0.06516805633440383,-0.02897595980705142,-0.0012633519304234154,0.0027681974287175797,0.019679961335043076,0.0051480567470610274,-7.417776191572925E-4,-0.1362235415041609
0.06345747193063843,-0.03890310793269055,-0.009982678388389258,-0.0012510971789020846,0.024851180374306076,-1.771226083958113E-4,0.003826539072679284,-0.12932068060209728
0.07051633239110656,-0.023427504277401395,0.004287781799885238,0.008455136213724597,0.025113376208143755,0.007934222029068325,0.004291041862867419,-0.11304303051397772
0.0728413807614114,-0.02408130075614236,0.0011143042889835114,0.009715394463798759,0.030720704506979463,0.009350737013539352,0.008780379524529622,-0.12417385302010725
0.06222014883407843,-0.03029813188637215,-0.004648725212013096,0.0075210354827087095,0.02730915088482204,0.008656270881011207,0.003894650728232097,-0.12878959124284692
0.061532448605077165,-0.03400775166351584,-0.006659297119691567,-2.660892368756215E-4,0.02235857059143868,0.008038884139362604,0.0054873277460131455,-0.12390272900480859
0.06631709300808389,-0.017564426759982654,0.0037543170626439804,0.011664043404475398,0.02385703220506776,0.015111818129473664,0.004696128699858099,-0.12297174275461692
0.06787263760476377,-0.0175372966436496,0.006326914692099151,0.011718826962855752,0.027524783502587552,0.010559163546885098,0.010066708054846487,-0.1275936116300165
0.06932780239168676,-0.020504361028798695,2.775694149291821E-4,0.013521436192256825,0.022672231053717278,0.015702570658157295,0.008078858473967665,-0.12741404130872025
