0.0771696760024916,0.3058631826248857,0.13250338753731025,0.14644697273766522,0.14609754809717787,0.1486974159750717,0.17840732730657308,1.1365661613077334
0.05383028547565402,0.30653156575599944,0.09864177792300499,0.10212825101414237,0.13808038993864277,0.11607119073294636,0.1538136540774315,1.1700899607848407
0.03144761564852231,0.32167054070201895,0.05459964163946525,0.04851946265476382,0.0971461331684937,0.08320827303744918,0.10830633154653029,1.1141112601242062
0.07030272765733514,0.2992931929887998,0.11378640414466984,0.1269538898221308,0.11390397485368481,0.122136860773356,0.1683870332359708,1.058751151819541
0.08126592941450979,0.30030127801518525,0.14869663490187507,0.16770479819104597,0.13899658615290886,0.14187567869278778,0.1876461152477345,1.1028359407550703
0.0753047779401069,0.28836348012136065,0.13084490649474914,0.15605542189379792,0.1514552822714596,0.13280873534300972,0.18991586505959437,1.1473960127407363
0.06076122931109084,0.3002425725966316,0.0921970149490907,0.09613881513068324,0.13018083294175936,0.11090352357455761,0.1416593177228235,1.1207447692474704
0.031031669184447868,0.32064036527074036,0.06272919124486111,0.029131268913942732,0.08949509978519606,0.06945505756662902,0.10423346373685634,1.0973732741697426
0.09285253975628385,0.3185626154070702,0.1503058394073304,0.15407023112118734,0.14024196401112085,0.13410307106562802,0.18058899110958404,1.1275311375296646
0.08999343533113502,0.3127439901419545,0.1482667003662308,0.16612641963021937,0.13480626259932132,0.13629740330791074,0.17986112670510976,1.1438713017969895
0.0839210387518827,0.2983877552419665,0.11853195918751523,0.13011262255465061,0.13397112006046202,0.12472685273661191,0.1655902337774953,1.1082899674256943
0.05215558740201905,0.304358198226696,0.0733126263939182,0.05553357997155371,0.1108409196088339,0.0784714961857832,0.11291370436389034,1.1135337841868649
0.05219647589529002,0.3182778138265259,0.06517408208725578,0.05381482120282031,0.09682622348693845,0.08483552528349618,0.10187423953305784,1.0523372778800928
0.08082591817644307,0.3082984937229441,0.14545324295799245,0.15917306025456135,0.1331247412734654,0.12700909115893252,0.15842613091500543,1.0796542890065286
0.07602945937345311,0.2975477086804138,0.13438378178348262,0.13098035822562093,0.10855291198797733,0.10813333123453203,0.1416516370405576,1.089784395290427
0.06099806239007496,0.3100242399154189,0.09704345528415495,0.09058883290516581,0.10095397729897801,0.08365417632890756,0.1191887829008252,1.089823037828437
0.030153996282027657,0.3177401794811343,0.041731142659734384,0.013873378159520723,0.060016102242486984,0.054425568365532244,0.059118740316004434,1.0468866379319473
0.060163708881760126,0.32287488614556115,0.09739356746787504,0.09368535983124385,0.09394336868679012,0.07320627481551023,0.09798119930463396,1.0504276685253677
0.07493407283724461,0.2983390217741077,0.12990090174725225,0.11868749528482642,0.0985096485320757,0.09385728521010359,0.12236398533109379,1.0687346296622118
0.05692356720809359,0.29692699492440905,0.09111098869175827,0.08514028391025541,0.08596294799376676,0.0866762583100714,0.10323357384152576,1.0694821057684403
0.03715020569746571,0.33237579851587795,0.0529313673083235,0.021616455573329856,0.08603157803616505,0.043190951296143226,0.07409753603584027,1.1000860816061855
0.025916231248861513,0.3270726862956615,0.04346301689655326,0.013445349341051993,0.06582795383175155,0.03230835744499538,0.03890014703556934,1.0625449986149045
0.07136968195359128,0.33966884731500624,0.1199565603107395,0.10864073471804775,0.0970277341810549,0.06678485965498712,0.10144696167925459,1.0709411832517715
0.06855797243785369,0.3485081965802645,0.09591197794298227,0.08738937976363005,0.08306925745313616,0.07847991175726875,0.09284647472773933,1.085227724487583
0.03974278610795432,0.3440664930426941,0.06847843801758999,0.04226316927582548,0.06754478004887077,0.04531149382326601,0.061432348340963415,1.0324600542333908
0.010742752498693706,0.3377697574204939,0.01335775727662771,-0.04046895093121969,0.04661110777260812,0.014032187500474521,0.01568524866755536,1.021197796299022
0.05886554132547248,0.3354875849274826,0.09736945923672388,0.09052723978338925,0.07903248079930562,0.05648660316232917,0.08027725467121005,0.9384721036263888
0.04551204083975876,0.33197284580246805,0.08136628157032237,0.07107459983567654,0.07017479447027507,0.05486777550134355,0.07855182304354455,0.9277917740505093
0.036245632669278736,0.3124435466549982,0.05456272671714177,0.038286043684365036,0.06337236650568616,0.03948777410028462,0.04887601182291689,0.8942462415030662
0.004657890959449145,0.3157853853811494,-0.012056276972220345,-0.04678086762277767,0.052139986880145546,0.010231843977068528,0.007300694617703702,0.8983066233556535
0.04588941934540901,0.3099460523953663,0.08581562663921072,0.07524739771611873,0.06188037430973962,0.0500796009591641,0.0743619607446892,0.9751401015416202
0.04239744675802227,0.31795336529196033,0.07337355534586841,0.07271393577231296,0.07975823266381839,0.04997869752481509,0.0830347037840657,0.9314686337907562
0.027094337346422182,0.3241137206721798,0.05329969393543582,0.026484461664942043,0.07876733317745419,0.043042431890484636,0.06146649891026837,0.940788363079412
0.0058270114435283555,0.3138898809205366,-0.0066193177355199405,-0.03602095170271485,0.0316105357701808,0.013734691319501906,0.017478691481914804,0.9589890699267817
0.037276201338236635,0.3093298581380822,0.07707511404929715,0.06418672249908296,0.0725416949772591,0.051906840982714045,0.05407363306634224,0.9620290625674878
0.04177006019588269,0.32596998791051846,0.0839161249600376,0.06674918811986602,0.07355120999917159,0.06653014601374406,0.08836858325731914,1.0202865025066572
0.04385705802071223,0.30151754536762215,0.07343557355392226,0.06006120157187754,0.06410069295566662,0.05123332664457033,0.06603254064829508,1.052737561981582
0.012828959206378398,0.3176265646283441,0.03268487403257006,-0.00858850798025611,0.049758260960054396,0.029100355377265366,0.030104435008702322,1.0754203313135513
0.057013188185079555,0.32418710152148006,0.1022397168713943,0.09416272690116488,0.08699259488789189,0.07981167752511145,0.0933490338346192,1.1055770629881203
0.04726198309354355,0.3125535211966317,0.09584567069722938,0.0835712271260646,0.09109619593248036,0.0874251873904116,0.11343486912297414,1.139970177693721
0.04516466049073274,0.3150316477545059,0.08352922137172078,0.06235165778724585,0.1056874699161251,0.06342816911585776,0.10270336772979519,1.1131694754949055
0.0346780916523311,0.33684224797831425,0.06748519219066848,0.05614745581006771,0.07978261931567977,0.06746253531788911,0.08885436070559564,1.096093890773548
0.06712639887798325,0.3273406749541583,0.13986852000697728,0.14071783768162657,0.12485074397438377,0.10805228509484613,0.1511477489466405,1.1698966660151628
0.06890899895141897,0.31902503651096037,0.12537237149592503,0.1331529841366585,0.12809382816181583,0.11555437423436035,0.14834331052260324,1.1759720171758783
0.05368157000936904,0.3398610221006455,0.09543397675038699,0.10405409243082807,0.09736692809355615,0.09537932939379519,0.13001238282525404,1.1986769846504626
0.06624549691841655,0.32303859669769686,0.12751419879734688,0.134704271771304,0.11299854949462618,0.10938423331010876,0.15973926166613958,1.1899730468289107
0.0804891510558803,0.33251944339656664,0.1647024393469272,0.18469611725950127,0.13846381364619084,0.14460962455275328,0.20147451699278782,1.1650056617847633
0.09166783756127508,0.3201454415982647,0.14828372757704228,0.1703267561531199,0.14249695439304821,0.14129136808262505,0.1928024056366445,1.1869487106144345
0.06177617462017104,0.3360941737650897,0.1275290580912715,0.13514399725723245,0.11281717001336128,0.11888993374811888,0.1824055388289361,1.146970766759098
0.09473481443404706,0.3178713408102543,0.17853365399673704,0.2012967838632477,0.15426737597119883,0.16128524737516417,0.22697575812174087,1.1833109451913086
0.10325786559459484,0.3161960704460973,0.19435652455033028,0.2171055736528523,0.16438755383751993,0.16841386081254062,0.24569579298921715,1.172650894688617
0.10693183194315631,0.324256400312206,0.17624202189296875,0.1991847549300068,0.15070481844388314,0.1719315895741312,0.23277118228954902,1.2073174615092501
0.08546004513589274,0.3177053838612763,0.15625707676996164,0.17440344859248538,0.13711866831980105,0.14758115497863902,0.22099913373185295,1.1629869541174365
0.12058442289532838,0.32625403534952024,0.21334054643171452,0.24425465684683756,0.16025064917741635,0.19303984719177522,0.2632132410645388,1.1747055395506938
0.11616877922460411,0.32910393458188625,0.20333391814641175,0.23402149298541877,0.16885298117114717,0.1889452549393191,0.25815015151455845,1.2117217755797731
0.10393369604257298,0.3314766530153479,0.18073339698661717,0.20730353954050426,0.14974307099909473,0.15756529024847282,0.2449191900387491,1.174850470582423
0.0932535227910579,0.3158682513746716,0.17475401601131946,0.2067329466535557,0.14495223087430625,0.14834283884535912,0.2309352840861228,1.1576849611096545
0.11197052617987298,0.3257044359324904,0.22392080959974747,0.2617793658755501,0.17009163676261635,0.19868637946572948,0.2796219470125956,1.1983360327482562
0.11057362323570309,0.34251958523694787,0.20851310461253675,0.24632914986106066,0.16527651943403496,0.19183301883838924,0.27827021740560726,1.1606439734106913
0.093250533147712,0.328759607358197,0.1770299734061649,0.2030655443990489,0.13441198616575822,0.1602117727458908,0.2356907204766585,1.1435735334212473
0.08898321992280078,0.317361602598118,0.15307779943715627,0.1829105022551627,0.1250844053639552,0.14417964384511225,0.210353100934238,1.112338513048226
0.11956909177238915,0.3131769374195454,0.21360520118667475,0.23507222183951487,0.15332847386991696,0.19260269222378612,0.2758436961387101,1.1757723284182338
0.11597325350261636,0.31303840892797263,0.20033338986708868,0.22694399399154785,0.1413024980444378,0.18216345982782967,0.260214404454716,1.1403606381246707
0.09107698082633323,0.312847765667729,0.1687819236695462,0.19686754160811185,0.11904683067778267,0.15043523226701028,0.22848796537168548,1.13337272249575
0.0779643049007883,0.32439106988556227,0.13993070862642187,0.15133422578520372,0.1045748179605774,0.11619861836632649,0.18902599239995826,1.1607371239084388
0.10978616426317325,0.3371674220687403,0.1936557838542348,0.21447773822720723,0.13445746081775053,0.1472780530300515,0.2390831197166702,1.1585920643520584
0.10939248175734846,0.3395017152945151,0.18666093597378422,0.19500530540573377,0.12502753092544128,0.14753037596374438,0.2247934266510587,1.1794017979931095
0.09389313943696095,0.32544739579990517,0.15669249414445754,0.1738501635359982,0.1229590000749822,0.13125627901746917,0.188783790129446,1.1898707757727134
0.07914848221384714,0.3221906739305115,0.12573806995755865,0.119033491392364,0.09177881190940596,0.09844877003686497,0.14920991085892119,1.1367478110508897
0.11489945606782961,0.32675938388925946,0.177822204831528,0.18867583931107393,0.1288081537514658,0.13865344133074523,0.19911116711172352,1.1933902799206186
0.09639929494670911,0.3123164519509776,0.16822955393464153,0.18493352013306968,0.1350905240306888,0.1262738434453703,0.1915999977420836,1.135386109910255
0.08563922482173414,0.3153994444132407,0.1396494374595253,0.15847734857458962,0.11818349242641689,0.11624607943955294,0.1806801260098879,1.1353445095226742
0.06261075798533104,0.31830618019451684,0.10136800481355442,0.10128205898497163,0.10300494537781214,0.07827057349346207,0.1292335599573124,1.0945777453069738
0.1083045202764068,0.32670026274514996,0.18146014714269557,0.18595009757217817,0.14601313118377765,0.12793467837328787,0.18522292756737124,1.1235697210351758
0.11012315414146576,0.29224398375492355,0.18757394181521406,0.18459359683103027,0.13488524866928422,0.14182117585128418,0.1959733771617896,1.1557285959938701
0.10080727995403585,0.3049553328878981,0.15667585771215892,0.16542936721112675,0.1409497399580211,0.13275314410785613,0.17972752145774995,1.1417985964878707
0.07617981287975585,0.30938678821978427,0.11471868113287256,0.11643797728456143,0.11887440114901973,0.08869382441834896,0.13194744190325894,1.1372798633432304
0.09993734581385204,0.32227105417679225,0.17871928099556272,0.17989176508354926,0.13576801509765737,0.13387904770243322,0.18830428037150376,1.1325274950993047
0.10947934119867293,0.32609391569714075,0.18647759783714343,0.20232434361090487,0.15955136393235364,0.15419343800689156,0.1926496741925355,1.1620532472348923
0.10580080707208625,0.343387560716473,0.17790527464014333,0.178765818727348,0.1554301965190572,0.14498180837347976,0.1819171779428971,1.1379282277564071
0.0905045445992493,0.3242751464905224,0.1294506556733357,0.11838300352485273,0.13674726301393833,0.12372705801524202,0.14230342211037275,1.1221568141371578
0.10261054453699293,0.31131478831671405,0.16997483191665008,0.16592105572972968,0.14059780061591984,0.11927204870221761,0.153241750027269,1.1442180555548171
0.11809020403293681,0.3316966001203863,0.19091098398850684,0.1899996148693341,0.17177759678735113,0.14290864112811016,0.19481726697992618,1.1168607440303702
0.11395870764360655,0.3432964510263996,0.17865902627094235,0.17935635693680493,0.1662614049279872,0.13676204811630005,0.17939360136963547,1.1333908194929778
0.08313141393224102,0.3175555573140757,0.13235895091309344,0.12793911206768574,0.1492473874022017,0.11619072793546018,0.14390022575688935,1.1466872629732414
0.08771058291595446,0.31681472193211996,0.14349340051829337,0.1351915132274987,0.1332447178980146,0.1135001300672999,0.13924617355841493,1.110164317906425
0.11483091734800645,0.3221292154402504,0.1821987377594155,0.1886524195947119,0.15152449931867348,0.15062490612683055,0.18499580954622855,1.1284611743885864
0.1008601277571166,0.3144310918645822,0.17164244379913837,0.16949297079822395,0.15217292515579645,0.13776138959644077,0.16768725255435019,1.120683548262893
0.08556144474480168,0.316854950641094,0.13551186604580226,0.11967030068125961,0.1405711576517162,0.10377955185543983,0.14175722291182266,1.07976798522205
0.08027840579117819,0.308668763350713,0.1144605717049116,0.12207977472496566,0.13787991389866094,0.10790603990976072,0.1363397827725403,1.0868461232722715
0.09497533537666361,0.32655704194463825,0.16536746381974401,0.16974981049406335,0.1326780700009965,0.1412709696785269,0.16273561708658643,1.120834756013288
0.08562077242481315,0.31781889420645226,0.1478282679555353,0.1377804646470613,0.1450746017667913,0.12098919044308419,0.1541666244578487,1.1517775842413274
0.06416015552271206,0.3101949446997936,0.10377247943986707,0.10147781503653079,0.13203771436306508,0.09354730786514899,0.11740331278697506,1.1112258012372669
0.0685789453464728,0.33348368269004625,0.09506680999823604,0.08636903643555202,0.1162773803542009,0.09187762224026935,0.10472371335590967,1.0974788289278274
0.10023671740054471,0.30124722204326687,0.15854768076962086,0.16357421312287562,0.14621167946119148,0.1243103114068609,0.16145479097647164,1.1249728509110615
0.08677715465119049,0.30700476887153727,0.13333956958833146,0.14609048025383886,0.13908503003010947,0.1235768313976683,0.1568291684045873,1.074567211874878
0.07108293084555879,0.3011574152299514,0.09972989067499936,0.09909452693192884,0.12694405813429657,0.1113122683167417,0.11961576707573997,1.097055951715811
0.06507465573653866,0.3178994890453238,0.10413870897185623,0.09264235596533356,0.1105679759239013,0.09995092931109159,0.12145558857078244,1.0443292163472775
0.10327996811021879,0.3124854842296044,0.15649443373038469,0.16107976324457368,0.13792022333609777,0.14065124641309731,0.17038758052315064,1.1050259661684938
0.0961943391479825,0.30678952271726806,0.13959125286613566,0.1295462435699732,0.15810900408137868,0.12643194942070068,0.15738312913075758,1.1218538278385513
0.08021264304610438,0.31193219353357593,0.11152104546549801,0.09743808048296783,0.13106956718005497,0.11384181363669785,0.1344957468818009,1.1160760462574604
0.07362812554278894,0.31002505359538796,0.11408607911713037,0.1114628190256011,0.12104745558570747,0.11471926343785475,0.12963860957136458,1.0996001007513874
0.09496943189811627,0.30459086028000687,0.1534652563247978,0.16986580624254188,0.14391478001533253,0.15261528307907732,0.1912520444026224,1.1113366467607764
0.08793513532481821,0.3081720670690406,0.1342572674721898,0.14242267634630706,0.14180200691601638,0.14504722710816026,0.18095337343419166,1.086703935750318
0.08485981517454795,0.30146953104480995,0.1108288826867174,0.10606267366499975,0.1268241669027699,0.11811847649353921,0.15183797882598343,1.1171069036039483
0.08064994420214479,0.2989337708240792,0.127132359235692,0.11993866923949506,0.12448631894400447,0.11380733718638351,0.14958477391674851,1.1309335627519408
0.10078454290188918,0.2865596427780293,0.1461503657907066,0.167192655872256,0.15531426489581063,0.15993304001427838,0.1894026504927411,1.0763105099605137
0.09337008793789295,0.32097824577214024,0.14881676013273057,0.1490442397279316,0.1469889917991859,0.14427144627867333,0.18488270635768367,1.1209890930836761
0.08534777320330836,0.3001084734781141,0.11982803158233667,0.11959807988973217,0.1256351842803797,0.12139927695553628,0.1546022850012999,1.0861124975599419
0.08462827898347582,0.3020076856026234,0.12804805023663662,0.14574076809354136,0.12322082661209167,0.13371299216124813,0.1724149919270518,1.055360985144102
0.10428024923523975,0.3055279056700926,0.1656788735751439,0.1825023849943026,0.16155590513371196,0.16148683081403112,0.20613568537912497,1.1220923201067472
0.09263598277098399,0.28859205611453115,0.14674190589861236,0.15792057104903168,0.14929567913274913,0.15218657759582507,0.19373694561371685,1.0983519288948367
0.08123590994203125,0.2927051467736505,0.11538781237344159,0.12304994192089594,0.13329343413442946,0.1306296747796799,0.16594152014892055,1.130658935279185
0.08621958813833616,0.29064810516315254,0.13931821063564004,0.13826544614365766,0.13141071258344159,0.13524807207282227,0.18529313800022076,1.1103991027908686
0.11332612316261477,0.29490540516006014,0.17240425810615506,0.19054386854900393,0.155330900665234,0.17621754172721324,0.2244157700639111,1.1078633307735652
0.10610099329381613,0.30753765162850466,0.16642226644385824,0.17519935572859463,0.15617727158073055,0.1796049760082246,0.20765060201559118,1.1378125050740022
0.0890865447152104,0.30249525781214814,0.1372826015438437,0.14766651638502387,0.13764414459772378,0.13887280850997796,0.18701968420901766,1.0887148844924022
0.08851971818620678,0.31454414284254867,0.13735440745280406,0.14129409626013822,0.1326168397700967,0.13690298930531716,0.18896582171815848,1.1641785675873837
0.11246553862147161,0.3079581825514547,0.18390486149546492,0.20376078660543503,0.17498141345395607,0.18018271099684305,0.24517257477718796,1.168632011210233
0.1121422960511317,0.3002748561090331,0.17936630728481465,0.1915942711870908,0.1759428206174525,0.18240791111459656,0.23388735087061854,1.133905389955713
0.08917853250445343,0.29599520859173284,0.1477397645191572,0.1622430022294766,0.16424190939601557,0.15453210461067324,0.19584143476256113,1.169440364825366
0.07465613839082352,0.297154967704668,0.1149424620374486,0.12044179782268498,0.12537322858473246,0.12400035913216736,0.16774361983429414,1.0626604703382938
0.1064357594118489,0.3065420705510927,0.16995424246962496,0.18200970451782145,0.16075631536580698,0.16831288626606122,0.2301103957685724,1.0852393346909535
0.11084221772061431,0.3051015756407471,0.17511053591678744,0.18893871812883742,0.17027625423391698,0.1761974282308565,0.23601758274305382,1.2150352911620572
0.10296393549705746,0.31309582000367914,0.1627332689775127,0.17446124712798192,0.14868817640714604,0.1552551227061231,0.20681744167899865,1.2038273773060237
0.07946168148911335,0.2922270186046752,0.1356866299502835,0.12655667814199167,0.1364361159065417,0.12979071744464243,0.16677167024031267,1.1680660177908158
0.09651353175216695,0.29102442077725627,0.13795633641061097,0.15241281610042798,0.12942695747529318,0.13605700140024135,0.1835982299970867,1.1332181753360278
0.11369859260264542,0.2875887149254721,0.18300694527169986,0.1888870735076959,0.1660601798925627,0.15533255294906026,0.21433613112453206,1.0836852324653037
0.105041194602801,0.2941296834555477,0.16526405001057845,0.1801089715834023,0.15402314108886828,0.14419585832122667,0.1932240269436188,1.058662867835358
0.09117803128357506,0.3051111812633016,0.14120870542932418,0.13828446576980322,0.13415381324535292,0.11708479802341716,0.16355434742086294,1.1109047655236934
0.08321283582231818,0.2890646073767343,0.1356001764723621,0.13946124818568575,0.11676207445306666,0.1031937066975799,0.15159365335976435,1.058448193550777
0.11624722459550728,0.3078788126727376,0.17855809725070737,0.19663371659470816,0.16111024757172743,0.14872890371630035,0.18872542354296296,1.0757767558356177
0.12270778531969566,0.29576138442563055,0.16043583822618723,0.1823165370518935,0.13745158055068088,0.13833727243610314,0.18752616076358156,1.062844745304047
0.10271012643673497,0.2951168340856375,0.1415909480712517,0.14706470763371374,0.12641294878742446,0.11865347156118626,0.1580688952529625,1.047237946650881
0.08235247792158142,0.29253134910481643,0.10977920185619461,0.10114969233305625,0.10307715268507517,0.08759053170040516,0.11302652037766633,1.0197068599746872
0.1188959760432573,0.29741859837405543,0.17983803167691978,0.18540733286437192,0.14188028585258777,0.12918635171987464,0.16335472090339642,1.0445584529773646
0.12108067348761675,0.29508530109802616,0.1780514575297931,0.1828403038688192,0.1332240287270376,0.13606627285693806,0.1766712012350403,1.0863546177918957
0.10560833245656129,0.29149789694988293,0.15155203197966113,0.1621914445465591,0.11922250521364308,0.12155581605735089,0.15313101832933318,1.0419227807289408
0.08814734274132238,0.2990864969404452,0.11385888823947274,0.10138777682868823,0.12364934615878025,0.07798919415371669,0.11314695823095818,1.0590253842523163
0.11688590874854426,0.2901575266238449,0.1571980667002242,0.15145603899620813,0.12269465462966153,0.10903087534797222,0.15390628754478847,1.1070979700006818
0.12431977772250308,0.30902773386886834,0.17186137210215258,0.17267468824998444,0.1422256841632138,0.14089753931764917,0.15728350126165874,1.1204489801104782
0.11177661379688676,0.2879948776959385,0.15296764239231625,0.14836438995884624,0.1417943303432581,0.11727832368906911,0.14799178502637875,1.083750420381722
0.08945220214890118,0.2890211273194021,0.12237083409660117,0.09560566219594123,0.10612759733436562,0.09225589079699104,0.10246241952955149,1.0788380856076074
0.09908084493904003,0.2712724973371527,0.13691514669728932,0.12721822989859163,0.11235619042615547,0.10224978296687645,0.11871158289552429,1.0719668392326958
0.1167818008419382,0.27206423165897947,0.1601613998371756,0.1691744759844456,0.13442225773013616,0.1247228242532305,0.14926540508024155,1.092326953838632
0.10721836576178058,0.2851301690561306,0.15184719079283385,0.14340533923233062,0.1208691410775102,0.10640770412739305,0.13811820277446102,1.0587424619493908
0.08040485543953142,0.2901613409936302,0.10885273102042373,0.09431307344187306,0.0975302369410641,0.07833127314919765,0.09469885138239234,1.0674386769573043
0.09514425468692207,0.3232581515004492,0.13336271815793882,0.12519036540845352,0.10303405104065037,0.0811834401500365,0.11245736588944014,1.1692539160531923
0.11873953714260042,0.2896007713139064,0.1584807857941008,0.16234986218622813,0.1333159905956597,0.1183102116189987,0.14384245175055463,1.182962034679565
0.10022063465306959,0.2756515319999658,0.13492463007747785,0.1380000397497501,0.12042032669960713,0.10531106501724286,0.1408242524116686,1.0470971135956395
0.07492776974915631,0.2885772622396083,0.10129511954635546,0.08791266300059289,0.09537460043634763,0.08148728045674679,0.0965308477625056,1.0913851765277993
0.09975494913296998,0.32094430289650533,0.13421418767713697,0.1354784852770298,0.12317559039347033,0.11525412818208837,0.12752641696194927,1.167811401528603
0.10183848021477108,0.3011873917704244,0.14846576540893783,0.15663006741331084,0.1320712670701931,0.11656603116582355,0.1589584638099846,1.2127282008732405
0.10191156300289238,0.2968153288498953,0.12714412149554635,0.13283190400721825,0.12465387440470485,0.11747898140121697,0.15197534695691992,1.027577899929084
0.08510966906028411,0.2988465897607448,0.10053676952429502,0.08803730241888592,0.10192156393289352,0.0802292638776129,0.1082626275319967,1.0615532787100714
0.09297401962558391,0.3014311007698531,0.14202819405399308,0.13947629178401905,0.11861962523304129,0.12978187051133522,0.15050199983887066,1.053736057538599
0.09305512234796037,0.3108662098660133,0.15533431010320758,0.14193144457822301,0.13968893314554895,0.1256566450296153,0.14560660599779798,1.0512063678338475
0.0772224236349135,0.30162206696228633,0.1252800964695701,0.12062734038559726,0.11566072143079323,0.10922670412228058,0.13939522404849206,1.0637503742518466
0.062012778555818486,0.30075613343040447,0.08642807027273189,0.0663992967842575,0.08213116201915173,0.09105734462733102,0.11135728836829621,1.0362718859195676
0.09231269791507786,0.3070354057212842,0.14278583439134063,0.13069651543772637,0.11282995475658357,0.11532804556555308,0.1578091217553294,1.032196658672997
0.09075029298837947,0.2903411113062457,0.12301835684965345,0.12554094159747226,0.12664420576738483,0.12666696636223057,0.1445505941929994,1.0855202894302827
0.07452226848298861,0.31096420304653466,0.10636500890178886,0.08998837584148922,0.10427041953460403,0.10176557130659146,0.12861229127827895,1.0547085875753939
0.06337304938719708,0.2984439827165507,0.07536921660571266,0.053481079907914036,0.08533636419611575,0.0792741905503015,0.1194955382947357,1.0497733562422207
0.09031546698614581,0.3003235886106494,0.13535896132696212,0.11292218767852924,0.11173110894938292,0.12636968729138645,0.15379138284567595,1.0925175803340257
0.08405029436603458,0.29364612647762933,0.12726655851271326,0.1190934198796728,0.11456075325076275,0.11163006958558117,0.14723778869446988,1.087365051900344
0.075311812967654,0.3075744533959741,0.0951356096116964,0.09591809748602255,0.09316589992886287,0.09122704892488985,0.12939245629287563,1.0724850219167197
0.05860722123055161,0.27951426706327326,0.09724840722092667,0.08661317835165935,0.0992420973887586,0.0832094283618203,0.132692342339426,1.03674755287667
0.08757322272921507,0.30012675379904835,0.13735348301001366,0.14065235705763754,0.11971504837735739,0.12599939032479995,0.16556401795110548,1.1120422646043753
0.08600403432890828,0.2930198537449555,0.11904840520958637,0.12584943824978,0.11663622606593034,0.1165312306318648,0.1703601470658143,1.090321608949218
0.06451778724763017,0.2936723854062652,0.10412900279402564,0.09058289994294687,0.08884637982725005,0.10295192124632625,0.1371844680853878,1.0698860155186527
0.09252959983656535,0.2953776820314689,0.127917740262833,0.12063168380274673,0.10162927928775578,0.11171085017463206,0.16280634945181838,1.0860397533502628
0.11516218498788623,0.29759750569812154,0.16020375342178622,0.16285275090711715,0.13321833747352357,0.1441942474359083,0.19213748527807453,1.1053959179476618
0.09711068059903635,0.3112578517074917,0.13766393249274603,0.12701961420093982,0.13062457194876909,0.12122647617907875,0.16532017261922066,1.1278879127319652
0.08159861280940998,0.3090224215776182,0.11571088412620119,0.10812363201934674,0.10689982694796103,0.10264319772541584,0.14478539126310394,1.1022415769757508
0.11024836732080902,0.2743411520075976,0.15514926669875995,0.14665081249498044,0.11917600643474299,0.13242466489462615,0.16652587300292337,1.1554352018868275
0.1230725568054976,0.2980749771896445,0.16386498508894573,0.1635564002753007,0.14209801865212107,0.14025437137107138,0.18682777881505647,1.115064643273993
0.11549902876674562,0.29794508155407007,0.1545433991822833,0.1449399736862197,0.11465850562607852,0.11105806364377947,0.17462717681441955,1.1006135107819017
0.09826570521286004,0.2902635588559522,0.13021903895421005,0.11164395273921772,0.11628497310525407,0.10296474935127181,0.14831091244295658,1.1000601602636897
0.141507326991455,0.28586188030057536,0.18613147962296664,0.16870366454386138,0.1443517449589738,0.13569113416380796,0.1862847762888216,1.159152619667967
0.13744480377295426,0.30012271118889366,0.17764465507648322,0.17724664818341107,0.1463661625600652,0.13303306885137778,0.1940503237297758,1.105112272989675
0.12081852918290192,0.29708569838495924,0.16570716377867445,0.15047490209411443,0.13472741421128745,0.11417773969119312,0.16875608105250356,1.1311384453920166
0.11992659361262523,0.29804051024953176,0.15939193229298998,0.14372416294858786,0.11979422693696624,0.10739183053561653,0.15870133830511474,1.0972409330765742
0.1478704988449715,0.2991511813883756,0.20816213297148514,0.20247553605491803,0.15085604659685597,0.15063820491623606,0.1943550466654795,1.1255480478023423
0.14661509878852358,0.2865404865297335,0.1993846555572058,0.18542014041276939,0.15819943350086174,0.14112306458468504,0.195294647038636,1.1278208132065346
0.12311303366374779,0.30692018294335116,0.17357369534498768,0.1532746925395459,0.13073168436908938,0.11153357299301461,0.1557111026017362,1.1005845950772448
0.1217393671346619,0.3178554962051214,0.16780922062863687,0.1491151391635458,0.12072553667295595,0.10813779451098302,0.16087219304236577,1.1242155469625512
0.14821259376259394,0.310432706815448,0.20945990878133403,0.20199167779314176,0.16107370625172893,0.14821813756832095,0.2008448188426772,1.1122139838485448
0.1426588252203733,0.29793308942185803,0.19319854708924505,0.18559627604882015,0.14855059059935802,0.13593219100661327,0.1857850947889624,1.14012669579149
0.13011775529161992,0.30913430501194816,0.1760147792335501,0.15435566058639083,0.11695701294689098,0.11682655702190863,0.1517701484382548,1.1543589758475434
0.1292337861451904,0.29603722295447055,0.16555705059203982,0.1545836358661256,0.11082852410007475,0.10827728669916696,0.14178147751068304,1.1215598228421368
0.15166568854820398,0.306035869771926,0.2143490858368352,0.20404246665475767,0.13090401706241256,0.13119727382448632,0.1638185066525616,1.0698404897168108
0.1426141261527443,0.31604696315425684,0.18737685582778463,0.17599769442914373,0.124130167201116,0.12797586948581066,0.14225981336732815,1.006068556559793
0.12694359416297166,0.32244713691212695,0.15319413024164424,0.12606927547709695,0.09996566684291712,0.09465290425672215,0.11298888448414762,1.0742521111246315
0.1251462294773896,0.3310006775944233,0.15976507189996408,0.14140153307527414,0.12169669048405975,0.08179179662703041,0.10617733757909915,1.0018558406854337
0.1421987826631873,0.3195812828214862,0.1997621100924772,0.17794051430508714,0.1012699016375955,0.1120837445682716,0.15004443070419934,0.9661457629791568
0.12232350219016107,0.29461714774182785,0.17733026114951203,0.1567635596639635,0.11473797682170599,0.10044382709785797,0.11931418600306379,1.0258500415192215
0.096981074177367,0.30419203682548196,0.13540771859249334,0.10843546637723107,0.08165679229240765,0.06794872082590005,0.086514267717652,0.9844992727930968
0.12355716472515878,0.2925737714291217,0.16918509194154874,0.1547432591282135,0.09230470552821862,0.08947853660752784,0.1207271852867137,1.0305741042797258
0.13020908232542364,0.31558456444839084,0.17821541541082433,0.16089017683387472,0.11365065238647554,0.10011443957718127,0.1373975015244593,1.0402426518181092
0.1221258086474633,0.3057120087643382,0.16117463994742673,0.13695297963775013,0.10748630022275955,0.08467933303894612,0.10271864500869671,1.0064197717404346
0.1023744049306503,0.29367408934538564,0.12694575644546444,0.0928955643178231,0.08208617832226317,0.05734349817794024,0.07335562846445662,1.0050821116715025
0.12170989087591226,0.2950204103587586,0.18425052491695298,0.1727920948970239,0.1231751460571042,0.10809954897003422,0.1235730148610225,1.0192978119992606
0.12698357983699668,0.30966548771460534,0.17797594333519431,0.16219718525677984,0.11879184200491799,0.09620373434687357,0.12398429259467476,1.0024156470584253
0.1085041607214999,0.29042640286516425,0.15404816138293848,0.1301690290779511,0.0869690745952414,0.08705359423712383,0.09557169709267328,0.9676046124445953
0.11724263264324604,0.2978367548860761,0.16773392616178417,0.1485086132645627,0.10666666720707292,0.09321826856362272,0.11399631155508082,1.0441490487882001
0.14292378264433195,0.2962536718338482,0.19829686310906497,0.1786885502647172,0.13621569904368305,0.11889170028041897,0.13914381208644655,1.0633864830467918
0.12116330071559567,0.29850272680340256,0.1748670534335484,0.1645339771179243,0.11976918284363045,0.09276674716792432,0.11833440410782951,1.0250718936408596
0.10452732688099953,0.29292016690873124,0.1495542564244722,0.1171548620635162,0.09242942338715804,0.06993856302077298,0.09266898265997058,0.9710127775292582
0.12884736650063017,0.2872447182757566,0.18636824205906372,0.17158406077070884,0.1271831051631059,0.10923235302182362,0.12725299152956637,1.0099599717152885
0.12400696388767182,0.2512250246842269,0.18437119707159116,0.16846396760380933,0.12100565535500651,0.10946604261947819,0.13830451827509027,0.9659094260902865
0.11427571065150952,0.25196808348446276,0.15798106036451004,0.14184011325208812,0.11429022411105808,0.08698833406250779,0.10147422996040556,1.0096329839533436
0.09754505487408548,0.2532012895195264,0.13380385002574574,0.1170364160759045,0.0923575298044026,0.06398011653995998,0.09136869904644601,0.9270179756903311
0.12044410434809517,0.25888093918767247,0.1813233908104512,0.1758175151150621,0.11490199884751681,0.11292862207730535,0.13812264426624957,1.0156424372747308
0.12252755402917173,0.2550186564983675,0.16284712139840357,0.156273616801478,0.10414132470624336,0.10148470856861141,0.1172962033730608,1.022026565614841
0.099123448625778,0.26642338155028034,0.13864133042349883,0.11318020792621362,0.09430840512284165,0.06995554583676053,0.0873779636873806,0.9491277382491775
0.10192951563779364,0.2763461196994831,0.1399674888969872,0.11892763427653728,0.0818018807944747,0.07731545595008986,0.08926162561925784,0.982979956241569
0.11616758851729085,0.2652251510341135,0.175064666811745,0.15924333148179065,0.10970179711572715,0.09247241884435035,0.13177576067613042,1.03621816445218
0.09251275690857533,0.25174708877411317,0.15439724258337603,0.1464878820112716,0.09018651201626134,0.07550964054477152,0.11058418101983451,1.0102687785005025
0.088186846255296,0.25310000212126293,0.11497628008174166,0.09408690739844691,0.06632845955215243,0.05022270716063833,0.07355950693263573,0.9688181909683388
0.09886480323181215,0.27502099064509933,0.1299306599206881,0.1189958445768165,0.08699296159473188,0.05290785015033099,0.09003771260724859,0.9757147683811148
0.11532576337849565,0.2848673794825729,0.15626427543805035,0.14214192202946646,0.0840745269340604,0.07684554475116721,0.10822852738395353,0.9323192310201468
0.10439453917538999,0.2588291754727802,0.13181942134770744,0.11807660424593955,0.07344290140736374,0.05418813372051705,0.08715538631299541,0.890115770108301
0.07442301256972285,0.2732007835843294,0.09413298393880015,0.059907683272452085,0.05598678900269344,0.0217270269434593,0.032912496718327904,0.9293751869128344
0.0947023529697733,0.2677755901159414,0.12871787959647427,0.10371011321259224,0.06256474529447979,0.035530746520594896,0.05955284309175123,0.9263565992084379
0.10062979337627675,0.27443235504521307,0.1622614637486159,0.1378950592229708,0.07459742005386123,0.04767226554117868,0.07947662241492334,0.9763787353498874
0.09294618732163452,0.2888981935218817,0.12572376824416936,0.10391611353143937,0.06246235823066304,0.032542816402223,0.0476367047743642,0.933852101370725
0.06218241919876374,0.26857554827724517,0.07978316384041272,0.03684646402588005,0.029528235268076193,-0.005445812264525032,0.008794015022670087,0.8952530494940237
0.08650272697696836,0.29169105167983744,0.1132933823956719,0.09048451529579543,0.04145278832574605,0.01531677562653413,0.04424394426922425,0.8696437446199667
0.08559902343724037,0.2713036234630661,0.14296647548979524,0.11490003690341506,0.05251372660379912,0.020349939145092144,0.05564979106700474,0.9315457160890204
0.08246452630934899,0.2857778128453585,0.10580302784483926,0.07395850051659236,0.03370976732648945,0.001013772287849144,0.02271506511668743,0.8763260872808397
0.04990140994282957,0.27844783887228963,0.06807174606457259,0.013636062127626731,0.021404186241124317,-0.018784622066602252,-0.011206062628227828,0.9025729949910186
0.08546983073923957,0.27345809035984936,0.11166583647530436,0.08519675513895908,0.05197831574308448,0.006589268620982385,0.025040430845299663,0.9271122523051447
0.09128978571302697,0.3049303338833908,0.12064896672992113,0.08359870811530394,0.03460436334835493,0.011961836956317955,0.029319282081895923,0.8887798485256951
0.06763750607709922,0.29476757853464114,0.09237517487020719,0.03751925936523706,0.036346170877090266,-0.005021734636467621,0.007904746087485346,0.8612897065907354
0.04307769529947181,0.2955615645500944,0.047113048882271066,-0.0284307982843441,-0.004354174571580327,-0.032677719257554354,-0.032096568789868475,0.8614264488338061
0.08945683158614606,0.29002810482901425,0.11663685437279016,0.08213442647531556,0.0379619044339282,0.005519273967082982,0.04037652619455749,0.8571759407570014
0.0860429075292628,0.3019091573802275,0.10807966850721755,0.060797715590317526,0.04663577069875619,0.011897211129555782,0.03081863974207981,0.8485811601706066
0.0629436956033257,0.2658826969332667,0.06421625383875355,0.019716284712603397,0.03675217109491663,-0.015648111709824747,-0.0050680620437267305,0.7753563492844313
0.04105306534516828,0.2643773781342763,0.0483880401577962,-0.016825867982878967,0.022378769577451954,-0.016566535296249837,-0.021959784795321537,0.8168451686485266
0.07033367905626092,0.26639716430955007,0.12131190479803909,0.07974987553734046,0.0725334816984333,0.024152195104428946,0.03889142218820414,0.8449128926163216
0.07105789002313376,0.27487492182665907,0.09730416598337621,0.039824399338808145,0.05379515468577946,0.013322345493480766,0.02570083296303185,0.8156067671343241
0.057099818694849695,0.2791287349558299,0.05241878536787443,0.0036442362248335753,0.04534953793566779,0.001494196015766944,-0.003715107345761035,0.8430472778875827
0.04317320831598076,0.27220375352034104,0.0335225878933092,-0.009082312997140712,0.029062237574143182,-0.01690886719429811,-0.002282255861312581,0.8187797560606945
0.07985987153667316,0.25753280719505567,0.10796579762788483,0.05819111084333147,0.05519314636819521,0.03851567061849318,0.03271048929913819,0.8443480346826667
0.06979966130056946,0.27507542292817716,0.0864792676331182,0.02809275758744311,0.05773884268704402,0.009659688835906895,0.01882172407917468,0.8347946722703024
0.04577464954514168,0.2777867290999064,0.03941217308392822,-0.02282003722159429,0.04213726355389203,0.003993078447943718,-0.008688556984139143,0.8293045320339892
0.03970016485157532,0.27930902335655156,0.04012917389331601,-0.026905191017459223,0.03588240176558685,-0.014798023628735316,-0.023111252372652952,0.7740805677119733
0.07301196010730181,0.2637322769523322,0.08928422944707247,0.04220711861187765,0.06761128236651866,0.010283078193669564,0.02101171533314277,0.7783513959751635
0.05186364062531508,0.277876738359767,0.07342405286308966,0.012127543733199044,0.05154721492098104,0.0023486812896060553,0.0012115565727218813,0.8077099181922063
0.031259744339445325,0.264198164535802,0.026476279421033744,-0.03690085985038785,0.025322476238614215,-0.01723157611932173,-0.022888137044549225,0.7539011739390654
0.050482774443568475,0.27873549587642943,0.07083309581417761,0.01979856167502802,0.04324474959309915,-0.007474426340582278,-0.005492511534410946,0.7875685317027488
0.05831860880019994,0.2830874583333212,0.08921185043605605,0.04229635670321342,0.05158610562669873,0.012343357172119903,0.009194923796298268,0.801400451451753
0.03917027281488134,0.27019763222720655,0.06567378201140389,-0.0055277230636654505,0.04903853379273155,-0.008033018968052872,-0.016420136922795377,0.8197040535753326
0.010230127553615258,0.28069459483217923,0.0031259260188100184,-0.058847344961254114,0.020089280659157407,-0.03584715043102572,-0.05242571883071051,0.8445630268546981
0.05438755423222153,0.26994247758203693,0.0799604766188363,0.02812009390306406,0.04876481517284324,0.0044277670882624486,6.611758867378822E-4,0.7831943358688662
0.05808570556745408,0.2654569766755694,0.08534208090617855,0.04043077301088027,0.041095730400197275,0.004017108080129688,0.006465563042486257,0.842607183645144
0.04713234396713147,0.25943027310736994,0.04799073961429699,-0.014647652667043638,0.047672444567429875,-0.0023048525745123704,-0.014775872547375203,0.7946095872639007
0.02590604211246978,0.28023035718343575,0.012044629893779085,-0.061685998665266854,0.015222456208931548,-0.028958522005762658,-0.036537663598090735,0.8150882228011989
0.06470074742689406,0.25549456821528604,0.09317357315531083,0.043974004435460935,0.060476821268586445,0.019899259846187484,0.01324034188388642,0.8178193003261979
0.06049732470426354,0.26625323578264,0.0710097281450643,0.03506583294322307,0.06115094594657031,0.013605139475974925,0.0021305238476083985,0.7707374188843095
0.043913246311364104,0.2536773679573738,0.03922629020828554,-0.001693869139504728,0.018420244105107515,-0.014126189444626626,-0.01940309405598074,0.7248005168140996
0.02805593535875545,0.24757845347166574,0.021489601952908208,-0.03633792286070581,0.024186267657296784,-0.04147817101543548,-0.03503259412461923,0.6851872422958833
0.07871789698525747,0.27606848549989516,0.10009762795337446,0.05318377060441179,0.05232216688284193,0.02271890058762729,0.013176689555672598,0.7491676994404168
0.06607555261986835,0.28087756903818173,0.08627882403584197,0.03340915703509862,0.05560706166048918,-0.0053974838947117776,0.0014253513930303117,0.7597918954118703
0.04607830977552889,0.27535069654838246,0.04638776664747541,0.004390225491377693,0.04286655659615472,-0.02215187907821479,-0.03429473219822916,0.7445795156139023
0.02479432486872669,0.2728222516589335,0.03023942866907134,-0.025251181589837867,0.007038679950584524,-0.036940746915388484,-0.04465597604211468,0.7547502816798404
0.0700359320841396,0.29418001366053925,0.09433266076722784,0.05371074800124064,0.04997437141187275,0.004271801999056504,0.017222657959898028,0.8129789960004192
0.06882753710430256,0.32252282107103025,0.08576109454889323,0.03969230003546589,0.04145648750896998,0.004533361222835743,0.011842691603037265,0.8092706943886511
0.05011799956571683,0.30133623420212163,0.056158935344047214,-0.0020312861232714414,0.029438394937963602,-0.023195406510893326,-0.025304539436424314,0.7992330797982498
0.0583968175870457,0.2839656814329118,0.053208651533444104,-0.00305480527828098,0.025608039776987186,-0.022690465760642303,-0.028629076669174306,0.8135994758563103
0.08457936362643433,0.2925394461135094,0.0995958315538077,0.06952742130645448,0.04664623928787155,0.007452624098932096,0.034789380208501336,0.8448589027950685
0.06551435880048659,0.2990352031095938,0.09039617486793995,0.027372957141840445,0.052902543846092324,6.912533928365323E-4,0.010815560707700924,0.8456449370313012
0.06352465328535864,0.30253082895069305,0.05216946706739603,0.002641318889230713,0.03785244661585816,-0.01940414167801484,-0.020753543113292708,0.8824768152707931
0.051199695426775854,0.3061388123167169,0.05714350908374078,0.01849399430805859,0.03725988092815906,-0.010624320637020734,-0.018094675068680822,0.9405356137991356
0.09536019856880003,0.29652255903612545,0.12319457428177823,0.08529260274424162,0.079931682372736,0.029861429182954653,0.03555821267186973,0.9649969308930058
0.08767104673375156,0.3068569340022192,0.10203470912257737,0.05949972621757499,0.07585408357610374,0.02508455609608555,0.037760090296160176,1.0105634644984427
0.07110632393440607,0.2909403237010696,0.0594047509340885,0.019256524096991284,0.044602365486400244,-0.007551792844888717,-8.359786954801396E-4,1.023030177995187
0.060661139241804524,0.2844897728905333,0.06747219902541193,0.021635917067073986,0.03426129884851456,-0.0042980712097996565,0.007870768457199277,0.9383741508217391
0.09904891964455463,0.2694173449924018,0.12974451601992065,0.10667745851454291,0.06943192891727477,0.03646309082198502,0.059120249568248254,0.9731111938365756
0.08874754626722184,0.2814596681398726,0.11667048922547191,0.07722866155520709,0.0606104100887291,0.02857178873488956,0.04070401204514224,0.9003109326967249
0.05934050498098124,0.2432375471399606,0.07626715515039265,0.04074651837549043,0.036970917413907185,-0.007587034889495987,0.005114719666818761,0.9002726248361638
0.042220134518924174,0.24264177837999454,0.051686098893685264,0.0028685750081076937,0.025861373371992746,-0.01813419928919427,-0.00985449790971707,0.888630766459031
0.08664831629473653,0.25025093227288114,0.1224979522678262,0.0878384215886553,0.06214440996087326,0.024720435731074585,0.040530060960541923,0.8405886338544287
0.06717964970982775,0.27250526505458633,0.10701958740945036,0.0598081801047806,0.06118575469615817,0.01824840059336325,0.01608354038812367,0.8311408853266308
0.05891115434646808,0.2492110061269328,0.07060098130536914,0.01776234698787677,0.04259802085623465,-0.004395446975543918,-0.007688186280839065,0.9005841343448526
0.04689828793919894,0.26950514984397106,0.035878909373396536,-0.023231664814941475,0.0256964159673387,-0.01713950220497245,-0.033987276744808455,0.8846854505068575
0.08035374550146228,0.26639990468864516,0.11224523706024195,0.0738113641966155,0.04883128157508762,0.015840808694157688,0.01492119197275961,0.9262457208878767
0.06315951027733455,0.2771283775754542,0.10463262630795513,0.04865387600802113,0.049229603856649526,0.010743761215535799,0.012057640514591472,0.967932638210265
0.046876081928741715,0.2742722566837563,0.05118095302733411,0.002235815336253667,0.0422622240587393,-0.019047576013781178,-0.01069839228695002,0.9328187446166167
0.03696881458575608,0.2570549658337264,0.05199451795231034,-0.017580404571662038,0.036699980086947595,-0.026907738104741463,-0.029829422093735077,0.9734041323187557
0.06961936501806376,0.2546209584947005,0.09966288798593896,0.055486283171793244,0.06441220354240666,0.01007743380764757,0.009094048643728776,0.9844831011177109
0.05776814596511274,0.25154152180834727,0.07542424180334681,0.024163161714613014,0.0415006608292965,-0.011112535183614946,-0.005304875356742548,1.0000199887732744
0.035946688622423846,0.26436850805884277,0.030073076511570745,-0.02763809114983392,0.03903207645803362,-0.03771783492243937,-0.04887674271522842,0.9666600050876751
0.028335459284860635,0.2549777998493098,0.014478704521220605,-0.036618219168464826,0.009413431654154508,-0.039551245039328,-0.051305537549814845,0.9677991399031196
0.06851448588589505,0.27324583429400323,0.0944890957265502,0.04169033458740025,0.047842209805411214,-0.0014072279852027103,0.011898006570956403,0.9545002304097256
0.053125799089082375,0.24665200526851117,0.06661715280551463,0.016433775532595438,0.030876869737366235,-0.0270351450815426,-0.012757636760463958,0.9420055447782374
0.0361086444975772,0.25703585680906893,0.03133649780777466,-0.03633093797881976,0.02238836579840415,-0.03344783705616069,-0.062322089799726754,0.9416899000295982
0.016011836827929143,0.2625435952312292,0.00462411611377508,-0.0819852634643535,-0.0045861784379309985,-0.060151801769128994,-0.07329604482991166,0.9635718663608936
0.05802207505911667,0.25511552602434356,0.07798049313633611,0.03177554276058078,0.03500867004791098,-0.011437000511912588,-0.01071763883661245,0.9820339537682802
0.05196050467802999,0.24273086244014025,0.06424361888724836,0.0033429543907077196,0.038624301789884,-0.020650607765864294,-0.032680862044919705,1.0107592756583892
0.01850471112265186,0.2517396137294443,0.02485941993758259,-0.04264653162620765,0.021157030745094244,-0.04155350624299321,-0.05726811364823245,1.0046499080610007
-0.004886662540251842,0.24865774641381852,-0.029736199412618524,-0.11746839529576866,-0.009735950047268805,-0.08500138890920354,-0.10215001524245493,1.0000333716157086
0.04177628638358405,0.2450053154983316,0.05234165316743959,-0.0033085436681424296,0.022803113600963005,-0.0333944531569732,-0.05021231834578313,0.9884290952998732
0.033197692359091445,0.26057639798248616,0.029268314004164346,-0.025455567807901678,0.011546217959666177,-0.04953048044374282,-0.061132571213232255,1.0040149340642261
0.012057480375900443,0.256120139855821,-0.0012013970898609942,-0.07081840876310522,0.01928173613581542,-0.06688352151830171,-0.08419389439359581,1.011383354282972
-0.014776753424742724,0.24781565710936007,-0.04818788268879324,-0.14036485059963683,-0.031048292090850183,-0.09548201027238985,-0.1136302278658817,0.9643382598918511
0.03558705029271304,0.24224653856144637,0.048632759115506054,-0.01657682016345168,0.010946040731152861,-0.05001891882957975,-0.051213208652383234,0.9460174550770875
0.01877090820171176,0.2551354948031583,0.016284325916506238,-0.039033670669479416,0.017208223047965862,-0.05722573756779773,-0.07053222822197568,0.9823904037138709
0.004769834387711015,0.25156100415091925,-0.024423328636719602,-0.09500682582020112,-0.011806088291965736,-0.07091513417912473,-0.0993308668828857,0.9862744996447377
-0.029625265559251737,0.2516731399442028,-0.08814277155746926,-0.17425817216523407,-0.030008035152549715,-0.10953131903188684,-0.12490279299512556,0.918394404044758
0.027150307802292852,0.2411578765974697,0.019864775308303086,-0.0420585457995149,6.561153516978872E-4,-0.04443516144846516,-0.05165149107088474,0.9733518079754816
0.02430156881605653,0.2563997274770568,0.013723242339138308,-0.05305058436636652,0.003169987680912882,-0.06261851461178469,-0.07139271054110073,0.9621309764901893
-7.688691630125048E-4,0.2524705191167405,-0.02247553191677891,-0.09057591019564118,0.007488681483569418,-0.06793678869408855,-0.0866839344579158,0.9577469462552596
-0.02991930445328627,0.2501808426309455,-0.08487242170793374,-0.17418576258865945,-0.01555685177191364,-0.09334063051400932,-0.12235362101770074,0.960774749408763
0.014169406955411398,0.22928209701854257,0.03430058318679191,-0.041199946585115485,0.012836929653844175,-0.0483859287714392,-0.055214367372036964,0.9697893872758533
0.023819335659358187,0.2372187106138206,0.014006238325929527,-0.04211855957922249,0.025621663411291445,-0.043314569589957254,-0.04787719961624958,1.0143838465228259
0.008689620954344812,0.25754891528794516,-0.012675780090430015,-0.08121146962746173,0.015315087232754274,-0.05438099258959606,-0.05818588219467519,0.9310340823848196
-0.020734840980189788,0.24834153608285797,-0.07774052091527912,-0.16136485650970472,-0.014283717294057599,-0.08781318547548177,-0.11403766905718675,0.9580644982964889
0.015280463245930041,0.23280634719865453,0.011209358920136898,-0.040302999243893446,0.02504383989929713,-0.042660553423444145,-0.056230109719936985,1.038525931061365
0.030472367794143827,0.2290792576550873,0.02140601802182503,-0.03489013998548703,0.023978112010586944,-0.031124125624377188,-0.043165131005346934,1.0255643931303327
0.014586221199287526,0.25401465224302827,-0.010058085250232619,-0.07114992049834157,0.006862155738122147,-0.048330657630650024,-0.049708977557160576,0.9749709442161504
-0.020653090975966813,0.2472012604044061,-0.06848857924272743,-0.16310239614728184,-0.007554880219544156,-0.08014687189292859,-0.1089389785772067,0.9911003226590633
0.022931767360715605,0.23578951299853337,0.015166050537084266,-0.03192832994551584,0.02968045861352192,-0.04459098259406213,-0.03978546246774789,0.988786918857871
0.01881313023275538,0.24346101993303404,0.01284565329293121,-0.0367901823166152,0.02349092578669018,-0.022336143059649937,-0.029996018776521475,1.0026187107487976
0.013708526871395744,0.24909387956496126,0.0010809257368467548,-0.06833628047324464,0.024755974126478442,-0.0436520599626437,-0.049592347255573044,1.0265389466979116
-0.013389395387476365,0.26206559315884914,-0.05712429853811275,-0.1548356504062422,-0.007687473516903837,-0.07832743002535594,-0.09470104823340052,0.9210470399259986
0.013096510648485698,0.2459433110754117,0.017552014507653146,-0.05071575430350265,0.020037201954588885,-0.03523946727297932,-0.04649461567213917,0.9650915244123079
0.02965919732408111,0.23730380844563354,0.026830602519045878,-0.0384936194155048,0.022303454678106297,-0.03148000233138146,-0.03045297307587981,0.9570519574788596
0.0057653464120355205,0.24527223690287853,-0.00101905608047462,-0.06836973544913173,0.012194894918905715,-0.04154758927386157,-0.05722521856143195,0.9129689377301256
-0.02089533252957442,0.23736795037398095,-0.0689371263975503,-0.144980522264339,-0.0015461603847462585,-0.07533075052000879,-0.08837281153892179,0.9446375660692513
0.024235839982376578,0.23807824854388746,0.028994686382087007,-0.02410077547216984,0.039597658973911286,-0.01861962424046152,-0.03559510702173243,0.9707925019731997
0.03163526386340224,0.22965658156719845,0.03243019050346316,-0.01589463897850335,0.04469790081291532,-0.005147505553782441,-0.008887460427157058,1.0028067066458703
0.01625583314048715,0.25311338657053384,0.008807495386462623,-0.05052796503028401,0.0219543066312405,-0.02378346240986127,-0.042052168889146826,0.9914213744399091
-0.012083762406756633,0.24223551244454994,-0.04779253637531814,-0.10870027731186283,0.010044623746240421,-0.0634286926123374,-0.05914280212997344,0.9159708426145018
0.041163370074797985,0.23861956099198262,0.04355131253640517,0.008619197654463555,0.0375782090389188,-0.010154245669496543,0.010126543024693858,0.9800886768546411
0.03967281392402089,0.23949425633262234,0.05223969902298478,0.0119551499849312,0.06003679643602096,0.007109168558586178,-0.002046707537394539,0.9859475650077862
0.029777918157628057,0.25194611173919434,0.03155920945869603,-0.014138127913369459,0.04458165220364773,-0.004745323742083176,-0.008315928027038573,0.9650132713422136
9.643531315172905E-4,0.2621014671530628,-0.008300331036127307,-0.08233337560081726,0.01572297530017826,-0.03110903519765534,-0.03789569337145125,0.9869010210732473
0.05201946371200534,0.23775634817610686,0.06628702322134632,0.008167585694873053,0.0661705700817717,0.014680001228531712,0.010425959413334317,1.0212338743661127
0.04606517524727773,0.25621406965616766,0.0772929778921559,0.03887013648975458,0.06349901053127632,0.024503205447593632,0.043370369994660214,1.0330639195189613
0.04079329912645947,0.234388090348443,0.04617833588658381,0.011769875177844728,0.04553859060951774,0.015437798637129869,0.030424932148590583,0.9492531197956939
0.007127490726145352,0.2513441357850903,0.00254705574479962,-0.06238969398193962,0.04745077780195495,-0.012656876346295165,-0.003678935838978955,0.9664580030478569
0.047586266096025225,0.2577851993517923,0.07136720828881617,0.04622331760775806,0.05722951137170425,0.024135764850344243,0.044002634656908124,0.9176628026431968
0.04261028969141416,0.25324964950024015,0.08141718105252459,0.052906221667949976,0.06212870326201328,0.030911704935630058,0.06058687036779328,0.9556788906555006
0.03473606637006293,0.23243470156607463,0.04963875025257731,0.022326738161606522,0.059704112855956906,0.01742607857634889,0.03407552621490243,0.9516681232973573
0.017262602170184622,0.24719033362721543,0.0016005020794257667,-0.05361351882533834,0.033153493396439186,-0.016673870181040867,-0.010294980310656331,0.8908452258269384
0.03601438046474506,0.23378607362807127,0.05519637504251387,0.034718082951825276,0.05569667287532337,0.01728888964598408,0.04269692731764932,0.9482875768297012
0.05402295058855066,0.24126186493314716,0.07850229719284917,0.04907945404615441,0.06314836960306333,0.030765552627413897,0.04669027386918892,0.9328528647486124
0.037999622023587205,0.25538165134773705,0.051110827284336365,0.022906242663600796,0.045366361597288914,0.02490235109498978,0.042074654747171335,0.9156949693108676
0.010524612320287263,0.2357237997860746,-9.483011361145598E-4,-0.0538571732756353,0.04319896444221407,-0.014919742435438409,-0.0030466304342446986,0.90320761168496
0.04044840245534817,0.21877617347367215,0.056241186375946085,0.0223036716004606,0.06256380907046641,0.018257516174434194,0.0397103185785808,0.8981717056665771
0.0507514692850338,0.23000090576655355,0.08307170919577378,0.05699904523445762,0.06120100084919929,0.036044341529649665,0.059431643644653,0.8829907333953967
0.04701282648498902,0.2527301046823183,0.06553859764612278,0.04347319991534405,0.04478050143266353,0.02176367435509786,0.03361263459974718,0.8761991538292233
0.024200357462789274,0.2460210239065941,0.02054530863134887,-0.026211443225192713,0.03245659498727505,-0.0023822237260321152,-0.01709422315868184,0.8830062191968775
0.048918908715786774,0.2192171945290248,0.05896540548215113,0.029575614947328095,0.05638118950093905,0.022382235596036658,0.0339857134765661,0.9038076058518416
0.06587946557534861,0.21157949824329186,0.09727115836091245,0.06934384865128669,0.07398902511665423,0.04323856613606571,0.06579264004786563,0.920701097815369
0.051863741852786034,0.2090360073686079,0.07849078540689351,0.059487200708599274,0.06066588184691089,0.030138799134521783,0.0470592161023075,0.9005086875968173
0.029484937625438974,0.21376912282133684,0.03437360110378347,-0.012995201556346793,0.03383647861977568,0.006242379985164397,0.0023924464618791824,0.8707686617764866
0.04250577414460397,0.19745600363085197,0.05391272062925695,0.02529582972411528,0.03827647974557964,0.006294274862060927,0.015482239680966105,0.8041233378381938
0.07860361742095062,0.19094078886875532,0.10563723527718827,0.09041237515448095,0.06327318283490646,0.04180305945595055,0.05013995868757755,0.8744850048613126
0.06706847567273436,0.18361016786613957,0.0911234620268987,0.049812377285549374,0.06346309493871216,0.028709109818299293,0.037145153817136095,0.8416998137929855
0.03959312604049921,0.16482660184665585,0.03918773188504595,0.011446781585707257,0.047699432404810616,-0.003724446078229191,-5.344108794365202E-4,0.7945599106314445
0.03840648156668833,0.1841017161813914,0.04374551196075659,-0.006775533709759234,0.01473063214956029,-0.02331725137851303,-0.015815177822016076,0.5038857643667661
0.08323731826047005,0.1935764457132834,0.10901482391802243,0.09568955993732688,0.04333925475009999,0.012638629435356924,0.03919844122944673,0.5195410754292674
0.07416350326044831,0.1889794741301685,0.08849368330751925,0.07041046463168148,0.06313793177758104,0.020920367290165755,0.03751191806708063,0.6502037103521163
0.04973564045863187,0.21935086699070486,0.055946898792213276,0.03035337084388465,0.0421050944187951,-0.0044037254054497665,0.009235904934989037,0.7022509809876873
0.041656005405215114,0.2056319968268621,0.03546207030440903,-0.004104742579060174,0.012872551540431917,-0.018837550846514704,-0.03559990750469098,0.5619108616329601
0.08206909400554846,0.22744727514806365,0.1041948725005794,0.09200444790295728,0.030734186041757452,0.005153250223061039,0.03548005152357787,0.3749664642107388
0.07220642123392598,0.2189003191590578,0.08389874319078187,0.06968617586602098,0.05142474312031769,-0.005875639134204354,0.006288838861002441,0.49240251154561254
0.05657118935220888,0.21234304015322472,0.06729021222275458,0.03186229320293693,0.0496759933518919,0.018003320562320946,0.020120882122992484,0.5778333459999337
0.036493326900644316,0.20639363479653097,0.03638519849247642,0.003936390539197866,0.022263916854475617,-0.008151317316827783,-0.010022096179199809,0.6505188813219444
0.08239139514089355,0.20518121216448224,0.12721180536727708,0.09909237763202698,0.07051747442174798,0.04562176713297431,0.05722555141481833,0.6728409097709105
0.07502932345684993,0.20533012810191942,0.09863889868576227,0.07646286751111643,0.07622427442873572,0.042848920347363935,0.03672616251066637,0.6782445324799472
0.05298261527051194,0.23448759691160825,0.06903445869909912,0.03662136770312713,0.06967113430605912,0.03833576833920686,0.01389944986967342,0.7254473671198503
0.04164140450055952,0.1981770204063435,0.026992476867542737,-0.016547785753437932,0.039445332448470066,-0.004116477285951973,-0.027325193652056934,0.605154371322688
0.08377544520877164,0.21773328148457904,0.12305421341296004,0.10082163275449059,0.07412224788517126,0.0401178775491796,0.053714752260592726,0.6701938873597646
0.0815265651100452,0.2033795787142476,0.09787592886884068,0.08093867191697252,0.07625825139456473,0.04196685288622662,0.043511900852942736,0.698076477648975
0.0509814136949531,0.1851820269297422,0.07926542864112682,0.03330430416187277,0.05817182787231903,0.017885767270337784,0.012682042522505653,0.6331694401443012
0.02997159481987287,0.1967847847682841,0.015718596900473874,-0.02400759225559995,0.031017190940107686,-0.011582353946090355,-0.019552009159985225,0.5776583583431899
0.06542833169679144,0.20562616813252418,0.10545352416290993,0.08108305928098852,0.06709750919561934,0.037123669986681956,0.05356881092837044,0.5743728546119002
0.07703247135650043,0.19097452596940045,0.09187488952378865,0.06981181720374378,0.06298660304443911,0.0447789121125755,0.05812148122257702,0.6679829823797403
0.05636303388861353,0.20757173058865597,0.08232945094620006,0.04232587306414226,0.07171840263779519,0.031222644314545852,0.03381555524013541,0.8131498655568583
0.03043314013959061,0.2111322129665781,0.026106235284217894,-0.027957455447251072,0.05960815657750295,0.003191798459806109,0.006931019409744821,0.8268966054910122
0.05144142602830875,0.20488017797813898,0.0840921933471757,0.05714934258889329,0.05841441363043713,0.029852839111507722,0.03570577865258124,0.8177196005372769
0.07081047383096452,0.1973161332254184,0.08960836327885922,0.05930228395130793,0.07232126952057796,0.043158359975985015,0.05708955482266585,0.8192435168794451
0.05111691464997277,0.19337734004656215,0.06344877858976528,0.04712310723292511,0.06661499502711432,0.021681301784701387,0.03283857611763701,0.8312791103487249
0.03644447535274653,0.21356249687958742,0.02405844484501171,-0.0323355348373466,0.0453540220587287,0.003334596921184751,-0.008815508273082624,0.8741741736429206
0.055042516209811036,0.20483619800601377,0.05442880964794509,0.026420069449766492,0.04751598617268305,0.006793022452296875,0.012891042359060806,0.8775188702283325
0.05696744696998057,0.1924015332441095,0.07193518547279923,0.04521766280992043,0.06461755102849841,0.030512144446805563,0.057249797196429766,0.928621835223762
0.05356338451276696,0.1927092807200297,0.053883527026701246,0.016027884703614746,0.05187447466430485,0.03122132624258485,0.037822525192327046,0.8511211047663414
0.016415272226806367,0.20509581943662575,0.014484275587252977,-0.03177460487150587,0.029949108571705227,-0.009149485021881702,-0.006307468882356994,0.8673562304881817
0.044279917501815896,0.20309010477219433,0.05907816656400912,0.026827043098897697,0.046352849053697597,0.00619671162625078,0.0330620845245805,0.8947331535209464
0.06126908987563161,0.21370159277607023,0.08173907497628619,0.050681561216423386,0.05660957436424274,0.04376302042935903,0.052104562626834744,0.8585450400296736
0.05446589318915839,0.2128522557359711,0.05770971471122559,0.0165037230853575,0.05766947489641184,0.02586660312350852,0.027796323862179735,0.8727477792288558
0.03220863849928866,0.22230308831267062,0.006464360714781914,-0.03892237798772329,0.049270801220838795,0.002775690831942523,0.0042522275046829395,0.8734224961205639
0.05196908673001428,0.20213546212314143,0.054141869560598896,0.0022415541999285197,0.05581373306607301,0.01809911454015676,0.03180182737038752,0.8300496227609975
0.07144779314221289,0.20590255400720184,0.08857252154621749,0.06999006721690458,0.06715195691523416,0.05408976393536426,0.07331479520241956,0.886069785038964
0.056369261053556496,0.1944871127396331,0.0726115115939991,0.035366364145610826,0.07163938909024274,0.048132943587583944,0.04252642573764347,0.8927948830452129
0.048725100495781465,0.22500122895834862,0.03968862569856078,-0.014918932516407609,0.05628155258182601,0.0077291757116849874,0.024633561794764808,0.8066789327832103
0.042863214477178134,0.22507800182515816,0.04301469841523505,0.0011746985500811263,0.04996435454552636,0.02241173369741956,0.03092180175736626,0.8323953990022994
0.08421311399173897,0.20480470591793595,0.10641151209682022,0.08226970390556362,0.08134911602222097,0.06662254940678712,0.077937340457206,0.9475474928140314
0.07500755432248471,0.19514039185364396,0.10053264363338414,0.0638234214566235,0.08341224881816181,0.04615945254303551,0.07276698493597986,0.802075923534846
0.057615665352780364,0.21111497908579122,0.0637422986419539,0.02200801744510077,0.0607354451145719,0.027974413325495044,0.04242450432182024,0.8280893648611458
0.044082157135864886,0.2059875839727035,0.04402607909111954,-0.020484927470753107,0.041493708334029565,0.010732060028204858,0.015582040671961271,0.7969874550078992
0.0889741204361939,0.20342914851722668,0.1260734899605781,0.08236908956982057,0.10015191500802055,0.06485041029311461,0.0735100958596977,0.8244799082610005
0.08436687431099275,0.19002947925221442,0.11055706172465662,0.06968288338423193,0.08853888573872017,0.06601504549018422,0.08142728269032203,0.8503431595126232
0.0778281003103057,0.19113763095811853,0.08311822192068596,0.024623323128437312,0.08126807042480425,0.04988726669510473,0.063719614830774,0.8019976826205557
0.05515476626126946,0.1927412298769567,0.050553841962262154,-8.041881037186342E-4,0.06909370822076163,0.02599429258290194,0.01709425809999302,0.8741991881811289
0.09774528002670152,0.17809070999341442,0.10923371816863196,0.0875234404569442,0.08733023699137131,0.07196447541835074,0.07464218847826945,0.8566415001442079
0.10489578536186944,0.170277467208064,0.11377499843674539,0.08274250231784978,0.0972306316857453,0.06361449025965765,0.08549599440877663,0.8756464809650881
0.08613234515243269,0.1923187047062808,0.09208117048171989,0.0637080025592767,0.10004255566805513,0.05945980889599005,0.06903643444419316,0.895203018144318
0.05592062984214364,0.1959540791411694,0.05525896934689227,-0.007584676959387682,0.07239528492530174,0.03121705685750908,0.028391448840834214,0.8832329218667256
0.09714375632576285,0.1798166784881813,0.11235248308310904,0.0860931320992489,0.11149744665752946,0.0582927177005489,0.07983325352204199,0.8529656829095239
0.10617321833121791,0.16772828773984086,0.12825991271722437,0.09461154227471233,0.09675359287306932,0.08701921959467156,0.10721512293210811,0.8895331848540123
0.09016214027866899,0.18175845818920883,0.10290013180215699,0.04996690112586796,0.11642819224350433,0.06760350144699413,0.0946661888284453,0.9052969867479475
0.07227828021228798,0.15797112875620145,0.05165400667350651,0.007619826063524259,0.07559381725843493,0.0377481360089919,0.04575053205543831,0.8924889450911757
0.06217720958333555,0.18298183726629572,0.08026498375166113,0.032036486206569174,0.08223157334807794,0.04600797410653395,0.061099438952026276,0.8254623730757119
0.09570161725884922,0.1502760900004365,0.12177842228828932,0.09609022396926643,0.1047532028410993,0.09297507712780756,0.11008466629843179,0.9244694339118059
0.10032496102205911,0.165546171317037,0.1192349137846331,0.08359520197742584,0.11374350707963848,0.08376006436787574,0.08908410760855463,0.877651160541284
0.0704074097054279,0.18541334361125453,0.07112400196089359,0.02578272279767627,0.10327259643699785,0.04900860807132912,0.05656832143704346,0.8978089181000019
0.04219256440690793,0.17753113773418996,0.03400919913808087,-0.018316067913074965,0.07319803850690648,0.03704536968532492,0.040485686697700786,0.8594255697464075
0.1067959015305879,0.17691642128410623,0.11648062355949772,0.08635314831040847,0.09985158962087431,0.08065161519252807,0.08726349680766324,0.8789971258210131
0.09144569606097529,0.19909559370133809,0.10741958468920097,0.06403089674575288,0.10801239710589752,0.07384531745294891,0.0935748721499903,0.8537582552272267
0.06865426732070803,0.18962738731481826,0.0729975131588136,0.020252574716923072,0.08641500918179999,0.055597484274505726,0.04220133612412748,0.8473158002366987
0.041086450540485174,0.1867752664735767,0.007609328217462592,-0.05875401352280429,0.05943850626977784,0.017343950511980313,0.009031169197666888,0.8447996067818897
0.05744001574840088,0.17796987221252958,0.07329144513393152,0.010995947891960444,0.08465384435938904,0.05103975893021387,0.04626478118440771,0.8870697535820778
0.0708525628756362,0.2002999752023625,0.07762067696114235,0.04009413969398078,0.08718890857962809,0.051033898444122795,0.058837362101647486,0.8370818768813476
0.056301146811365096,0.18501777308061423,0.049689578700168206,-0.013011968022482152,0.08091619948501574,0.03684044242097808,0.03786437006164127,0.8537442470083393
0.026229970443560326,0.1842401529158574,-0.0013866124686419444,-0.07642574225734679,0.04888664282788889,4.6338168775974503E-7,-0.0073730861344614585,0.8475264207684783
0.0388580262003392,0.18690409258662008,0.02920300971820123,-0.021552933189700054,0.056911961938827464,0.020209764732528203,0.0035057550547691278,0.8420109121772181
0.06044665613832294,0.17452005713963145,0.06722407605253108,0.010048508144044467,0.08185730331773976,0.04913802124014775,0.04866727678274722,0.8523904733454613
0.04047523256359455,0.17509089931169644,0.0330699637731196,-0.015519731656628417,0.06139675736881004,0.03521781606671313,0.026378172315435842,0.8591021592500702
0.014903780836001362,0.1944106609603074,-0.015832137122392037,-0.08867695680190661,0.0426481362660202,6.763290233580059E-4,-0.007006830916477589,0.8182143650998097
0.03438746058691463,0.16833379674103244,0.00246677204638212,-0.041346108344010576,0.04255079942648046,0.025942557342299735,0.018396506327247746,0.8163773947815067
0.05754016618486471,0.2063753354199029,0.06270615970884244,0.011975506788859365,0.08188271032077532,0.0534721335854995,0.046824216293961315,0.8859857439894051
0.04971647953588958,0.2136881119151655,0.04201821735095436,-0.01749745360243484,0.07016059246504523,0.03385895808814244,0.03680150687523659,0.8950160541153099
0.025366433323006417,0.20108920099013713,-0.008514232793582419,-0.07854049543485475,0.04909356352182864,0.005222218894996351,-0.006236042912057052,0.8909840787727135
0.023716579636377244,0.20842202851890576,0.0025112939914657384,-0.05500092008197465,0.04338158722807699,0.013192316332176456,0.018896823853537845,0.8543403705546575
0.06217164560140933,0.20163071158761803,0.06625707214781235,0.021609112506735702,0.09321542318638788,0.06945413255953803,0.05839728318927071,0.9018821429718152
0.05535953791110848,0.20539647270945074,0.04846231084804973,-0.012837671444162594,0.07558479077533078,0.047975134128620825,0.057531460430275176,0.919461603650033
0.029875615161991616,0.20797160291211078,0.019624060898930526,-0.06970170543440289,0.07012800866871328,0.03306672561130788,0.024282398193216786,0.875161751874531
0.01603759086054624,0.20752906359844464,-0.01545369137063039,-0.0978349277367815,0.060739816708998765,0.01204217377410855,0.0011287588190244128,0.8907291763413698
0.06541714909304638,0.20874676059852132,0.07582398542386683,0.019834425414548884,0.08996062435386336,0.06291881445188806,0.07165275339515716,0.9065985283324887
0.06666547323036816,0.19787385671651125,0.07253630315332267,0.01417008585078327,0.08716950152885518,0.07148305217815919,0.06407147255976486,0.8921123474307375
0.05063493473281161,0.19485400891962013,0.04353045874597245,-0.020337924246258736,0.0799687441198255,0.04171925104206454,0.0454762264579532,0.9312572391677111
0.027181906006132156,0.1952033702143549,-0.011123660584862399,-0.09144955550234309,0.06211152143411726,0.008213085860417389,-6.795981384807525E-4,0.9150743041821696
0.04629597945143926,0.20255660001563355,0.04212759102684728,-0.022118667138793978,0.07588748700164244,0.04509738785855466,0.045034548342597305,0.8826663052140666
0.07481841925903232,0.19988946236495514,0.07732060676544984,0.02136723543227591,0.09575826930006627,0.07245743523352183,0.06186531631407423,0.9185330037083442
0.06129807535241368,0.17762161964422465,0.05229071148494353,-2.7410944491626E-4,0.08764010701133235,0.06113554286452818,0.06043710134990152,0.8715279863278456
0.032816260305324196,0.18824575062960988,0.013434996205815211,-0.05665918339950537,0.06995032805668143,0.030105542782230828,0.01853533964036277,0.9290951567346514
0.02086101163302328,0.20116378160216283,-0.015479184192419032,-0.10253925081475629,0.03824198917077639,0.009623955051234643,-0.005461892911531776,0.9423149014682536
0.07868564050897986,0.19695919023408331,0.0715775873067078,-0.001769643748254135,0.08329259854969676,0.06100363859933974,0.05368029049878903,0.8869113273732776
0.04971756072143516,0.19383524329128127,0.04571884913289949,-0.01854048795967414,0.08650803318886942,0.03749880595731778,0.04624196015107187,0.9010135383887005
0.042756044136585084,0.20516665140669596,0.03222823140701182,-0.04133225992177475,0.07643340360006029,0.023838396748245224,0.015553918830653806,0.8527911693404124
0.02357077167979828,0.23022552769493532,-0.015115796327839482,-0.10222916685311528,0.052713793930286724,0.004962915524066422,-0.021019725971886408,0.8563387185086222
0.06656822874315557,0.2326420206884004,0.07394429078033987,0.013940914787423429,0.07753010144102321,0.04967751904578851,0.045941659454834534,0.9267800568591456
0.06225184431985536,0.24804040711668118,0.07075752645341668,0.005253749333006374,0.08353163133830967,0.04102771220550444,0.02962289170363482,0.8825366839274719
0.052473005106862036,0.24539231998039504,0.04283610603227592,-0.031928865448502014,0.0767637602681202,0.020891941726734968,0.002662940401177853,0.8905151564659008
0.029827066882083347,0.2471402712705964,0.002768788180107002,-0.09312779020373507,0.050372777879928915,0.005336269431358473,-0.021062210921878665,0.8862177208528144
0.06987243491799995,0.23659381810497326,0.09364579851342533,0.02915758614326788,0.08859711862878776,0.04815892246944108,0.03971811411161755,0.9611399971131733
0.08581620242558152,0.24734545560508606,0.10288496843786779,0.03969377417353816,0.09372600747821398,0.07390081795723497,0.048016263288058976,1.070496272272808
0.06477270209172108,0.2529940750217437,0.0776149268758549,0.022229834128187072,0.08656136113099794,0.07049798878197822,0.04306971900769525,1.0431178237394656
0.04213217800593358,0.26029670557157597,0.025986842966695522,-0.03794839667878708,0.0767646277932166,0.02445664221170213,0.0034020956117270565,1.071904608697971
0.08800756332142645,0.2610335112722755,0.11906807880357283,0.08176711891673183,0.11237207106589195,0.07497511742016123,0.05987504043834955,1.114101964091169
0.10099151094874095,0.305719064507865,0.14700188597285954,0.10890918897429898,0.12404706756206027,0.09651083478811509,0.09045360724951894,1.1742891471135481
0.08150504314651104,0.31278845449144166,0.11993195152807792,0.07550910694490251,0.12023367825633316,0.08830256728515723,0.0894989418201692,1.1953425237611242
0.0639358410130517,0.30509217692523194,0.07676565867227442,0.016460346037580318,0.10506569333631285,0.066615343844338,0.0352152377461073,1.1753103814419459
0.09179917867328187,0.3164833788827664,0.1334896340751084,0.10212858433336215,0.132363708858668,0.0906422938919382,0.09475038447080535,1.2405025336600266
0.11422456892625063,0.30105771459428093,0.15771121371915042,0.126635535541956,0.15271208065783096,0.1216795914176991,0.12979014731727442,1.2150289901431122
0.09805292872005748,0.3205246154128735,0.14423318458538306,0.10789510263167601,0.15182323670934886,0.12264584963413505,0.10898516464252422,1.3310648655572634
0.07940726105504292,0.2976052925084627,0.10397440528306708,0.06639300653222296,0.12368591017649389,0.08839790841534373,0.07431670000015671,1.2435444866446863
0.07799881123180143,0.2922857996154355,0.11254961608583519,0.07681344419673185,0.11817527707074435,0.09269972168608008,0.08554628128463919,1.221794755670335
0.11568073472464054,0.27532409786075024,0.16244830017373532,0.13240242444440953,0.15580759938145766,0.1441568217515094,0.1392113723577661,1.2345156552180854
0.11465568806199429,0.2842094308775779,0.1515861449252037,0.10801930096830924,0.16080050263527634,0.1354093660339793,0.13743712221151114,1.2210817144136643
0.09253764867516114,0.27579221978857255,0.11919305080308315,0.06325452486934198,0.15143659173388513,0.11117715493980317,0.1152793683281276,1.2242332292432117
0.06531353967373534,0.2864412915981106,0.09823237534594967,0.038141497694319,0.11479758163263827,0.09233878151958344,0.09943933842704976,1.2106085574158114
0.11519265804498842,0.2776172742219553,0.16808455082268872,0.13104554883666472,0.152262853843377,0.13907453876186238,0.15529724565633338,1.214148250138562
0.10780443335905421,0.28740341322457985,0.1553349201444604,0.12489576324556138,0.14794074202661225,0.12877539004305302,0.1503852854114634,1.2321215129835
0.09780680620214093,0.2809898621688134,0.12514375519204066,0.08959987352388943,0.1385856066464753,0.11398825152709688,0.11920186230182087,1.1817925957073536
0.06998047231647099,0.28283422535934666,0.09026031433300044,0.04637928351240751,0.12045658531418169,0.07901054796520461,0.08207982922463031,1.148051756293872
0.10264394609757588,0.2821960922540214,0.15648843310558222,0.13447403743685446,0.1360532030063845,0.11923681627794452,0.14094034953016601,1.1892480316720369
0.09681836201785736,0.28466062464364983,0.13770044264004067,0.11835147099918025,0.1341756610086081,0.10913801096748693,0.14328700029318542,1.2080726856418056
0.08667691310606965,0.2839058563516441,0.11171909113214873,0.07245898368952121,0.11454665462105076,0.08392199220940336,0.10811129873018137,1.1616867128619042
0.06736796109561168,0.28091262233123787,0.06251223751327664,0.02772994514364318,0.09745788403305254,0.0622857940433162,0.08178170672375724,1.1743997706222087
0.09899292342320315,0.2709156490549916,0.1494529721074099,0.10405021528273066,0.11460678666723223,0.10093389078064773,0.12650649140464684,1.1821134720586508
0.09914860801529542,0.2689051472064003,0.13328835368554548,0.09396020439995824,0.12025635092209377,0.10360539743322593,0.12014848869686029,1.195760682571054
0.07832185343289294,0.27497040117991783,0.09692412536378915,0.060454052055528,0.10259959610218083,0.09028495103823375,0.0825045186333768,1.1500307005237504
0.057618724289593574,0.27130337160622287,0.04123195437233424,-4.794509295436552E-4,0.0735862496271191,0.05270358012941223,0.05194306823187604,1.1305773221470663
0.0797432491559536,0.2480699866419528,0.10952928961669658,0.0730930071764813,0.09647023198414222,0.07455578787364135,0.09029593979966193,1.1307200078669182
0.0909248111901806,0.26753429514200633,0.1049446502363734,0.06846955275798966,0.0975695698251518,0.08250365044302327,0.09376571541594296,1.136838685549882
0.06944767321234124,0.26469615130574287,0.08812327142804668,0.0382886949381782,0.08697054107077593,0.05553961877627375,0.085814361815717,1.0540817281334869
0.0501289522011035,0.27108049318411453,0.03724129902457859,-0.030150013069332498,0.07685193614194323,0.04281193681555591,0.03524278752252293,1.0791221737282322
0.07768416431448492,0.26255179983555693,0.09814342195455775,0.035869393557714416,0.08350106075621232,0.06676039001115948,0.08063591408813646,1.1524634257736541
0.08218197549954252,0.2625442288988311,0.10861340991363458,0.05881190149806104,0.09427285772283162,0.08602383942147128,0.08053165561386111,1.113972047906246
0.062225472858871374,0.23618686517270995,0.07922615884729835,0.029916018324654563,0.07181033599864352,0.05332459858511754,0.061597956253635545,1.1398932987932706
0.053564864848955424,0.2600611843419574,0.03011876367305042,-0.03376100941778444,0.050045607110390584,0.03472609894839941,0.015840823562718542,1.065881124217259
0.07945696117470247,0.2505809255015141,0.10730884080279823,0.057402140532284714,0.08450232633284617,0.0697125191214333,0.06926252687882362,1.0368901031345452
0.08804442403446733,0.24012989689187833,0.12382601580542973,0.06687260496195715,0.10002980022333299,0.07607830687167903,0.07167939776552344,1.0539446536583217
0.07384813112658445,0.2591273771449886,0.09341222926015616,0.040463145012772504,0.09454416497166987,0.06934689911818423,0.08053866778526116,1.0983366071772465
0.056374140334210295,0.25901513896073974,0.058039551276157314,-0.010032032673958243,0.07877222673155006,0.038439216537379604,0.029712318944047203,1.0548400242131
0.09394220986508428,0.2498988864530431,0.12817870466155917,0.08972908141182989,0.1094146724295423,0.08246255651013915,0.09133466517060428,1.0721995240773508
0.10333554732932566,0.2495234036616367,0.13700891945107935,0.08315507861494983,0.1298912881752138,0.09796504543211633,0.10945391166388396,1.1019868036751717
0.09128642447710947,0.24947576727483017,0.10926752838707937,0.07032700365695471,0.09879351773728338,0.07955229255167875,0.08980225171452243,1.0772982924568721
0.07059232563220161,0.2431380220221069,0.08059635943726369,0.011590586603633829,0.09315091825001219,0.06248979798902433,0.06639978126478101,1.091201421780583
0.10647190933333801,0.25606323579419177,0.15324835795399144,0.1054865179584715,0.12691088747321197,0.11685188420241782,0.12799842016315616,1.1114526293981062
0.1114034941709515,0.24136232150491338,0.15384534473889525,0.1228758363742099,0.13092695920181968,0.13350412596718436,0.1468895991473953,1.1068867398533748
0.10289685302066955,0.25406992656951916,0.13048501116168032,0.08952937032066767,0.13127009604561055,0.11136865408031868,0.1266118880275438,1.1159485704739318
0.06946531763846046,0.2533634495423844,0.10099801718587137,0.041124800748118806,0.09570363375911335,0.0796584785115137,0.08501495738170249,1.0819308674961694
0.10765466327296665,0.23837900346784296,0.1546051586005274,0.10524529370559117,0.13508290203568557,0.11901984646620771,0.1360325949263649,1.1199296600578668
0.11678311133713898,0.2515210205615783,0.1572233552213194,0.11326717541971523,0.1372970077701616,0.11882902506680663,0.1508049268655443,1.1025882434937222
0.11026205853462513,0.2522805578832056,0.14296845112849305,0.09173371807913305,0.14220322823003026,0.11864206070892715,0.12939915962418327,1.082638913109412
0.0799949682264167,0.2542878897934781,0.10445380801266435,0.041976461436342975,0.10909863871802339,0.0913706012958867,0.08527927125662688,1.0526425176544136
0.09548722350288769,0.24701045175356479,0.13278087097508046,0.07368554536645355,0.11579124982410101,0.10311187717904083,0.1110184624699804,1.0992077202514872
0.11120199950692644,0.2520840755734774,0.16345042683444924,0.12571619032867692,0.14138950903416378,0.11887590209559257,0.13376066921954802,1.066733778492381
0.10783553322091166,0.2530275146428205,0.14419709157163074,0.09017835866778898,0.12142027092934732,0.105230920856633,0.10645650335616912,1.0796604311805942
0.08491948423490873,0.24895634524641921,0.11721796705376042,0.0383943839334692,0.11114845889662328,0.07262500933028741,0.08546027032155729,1.0496922404898474
0.07135786809798081,0.2438931325835302,0.10193941646918835,0.04100902924353009,0.09154987837077623,0.060100888808671246,0.08324400295030777,1.0522632206179632
0.10459711125925561,0.25638174656217244,0.1575781421629467,0.10115150688776584,0.1287629831677236,0.10185846825116149,0.12351776701761856,1.0513163900301918
0.10582204959766908,0.26065342434121375,0.14651419703078217,0.09269422689829823,0.11373714922164349,0.0871716769627306,0.11187455223879587,1.0804373124691375
0.09418258879585532,0.24520239140415778,0.11155100649812769,0.059642715128352945,0.11527977891257021,0.07520500286665975,0.07660965520950506,1.0245209407900993
0.06639454119797293,0.2526211675667233,0.08044921455254966,0.011773194792569774,0.07262443790797869,0.03973458257898597,0.028467555135154064,1.0406315436781886
0.09441505113209106,0.2602798626758311,0.12266963961168766,0.06069419265456903,0.08347025510978015,0.05908415256393853,0.06482026520825866,1.0136179007232986
0.11149497342795392,0.254617088394056,0.14096330903793905,0.0994080918231588,0.10779247745276697,0.09004286771439796,0.10024808367120261,1.0727632910817078
0.09767237992451501,0.25023639376026136,0.13900211581317962,0.08661975078785304,0.10259027990303209,0.060074453067970664,0.07664025043091616,1.068872025337419
0.08507333122201705,0.25935311630599994,0.10447497833391438,0.037722011070736076,0.08497626612461218,0.03734261998720289,0.04045755777970328,1.0209230671010618
0.06885350972728244,0.26443371139199895,0.06056373259912692,-0.0077260077297984136,0.05862014613670721,0.005977592733071556,0.0069407346872964815,0.9987091537197246
0.11761583456001341,0.24364854670713812,0.14640641469491125,0.08433904371824816,0.10261190904037852,0.05819960303051655,0.07516013552526439,1.0739882235053446
0.11680903343221948,0.258206764756673,0.15815634828976857,0.09177556623130362,0.09727379765430927,0.06650390519470836,0.07483166917344228,1.0490437157780474
0.10975850505112078,0.25154264398050297,0.1288268982441739,0.07077028171355924,0.10169213367887077,0.04193338610022384,0.0515347162534943,1.0283607236769665
0.08648344722987447,0.2573941843449276,0.09164011483426529,0.016356715461021146,0.06353022305693308,0.019029022872944102,0.010642451959699876,1.0048438842551772
0.0719111387794455,0.24246407942441814,0.06921546623161412,-0.012897903041258124,0.057344957646992066,0.004050434039653562,-0.010356495344511685,1.0123126419126716
0.11793684582426421,0.25220798240313397,0.15610956778541385,0.09419234932762297,0.09876333708079485,0.03909623767712252,0.044948211977734624,1.0456851046094133
0.11835388147320954,0.26261263403376917,0.1487926434056149,0.08404723573673721,0.10021294248974269,0.04725971477650238,0.049723277392933675,0.988585863213974
0.11262696025939122,0.26043594590536695,0.13533456039943023,0.05139547446884946,0.08415010743864998,0.0467781707914122,0.032764819484916316,0.9809438230503132
0.0762132884007228,0.25558242949871723,0.07184871819365052,-0.0014726227443320296,0.060050831611375005,0.012535562537169108,-0.009406833980337264,1.0593000945142237
0.09322903743862077,0.26682266711927927,0.1158916478559448,0.04320204631929147,0.07849600846740139,0.024431197420079643,0.010136654758877843,1.0341619237807913
0.1211470579859874,0.25376081703312203,0.1517551848937307,0.07582551208550853,0.10154312566218521,0.059908707812447365,0.049886888545659584,1.0119475532491815
0.10941809971525439,0.2566698460958039,0.11428465461523836,0.05788359148711453,0.09665540530585694,0.04242549532745331,0.04143899073667089,1.0138914810858632
0.08066449005718751,0.27206403327746154,0.08827691803475161,0.005200707969887803,0.06411088474643532,0.017420681625052028,0.007187907569166198,1.0125338115335514
0.07781889748892816,0.2549228924221476,0.06538365639241264,-0.00709971099652208,0.07836410185104954,0.0013038500429288055,-0.006576630147904163,1.0287672914234447
0.11635295321676277,0.258743414794207,0.13877580998408467,0.0822627725641094,0.10776963712721342,0.0662434272406517,0.05272792397393545,1.0291330787676423
0.11287544803655158,0.2581327562462239,0.13170165121741328,0.05936456803446573,0.11674345409083253,0.05637858969926528,0.04824237774653888,1.0018686632224718
0.08708010686412525,0.2484845550172707,0.08942314920922119,0.019113231381879803,0.09064133271475429,0.04406844376098066,0.017667905748037137,0.9873817509273461
0.06310877842835058,0.25023936969764116,0.05010116735851292,-0.03838911636280278,0.06388619019127044,0.014351732163939573,-0.0212018202211395,1.0048729348168537
0.11684670236501354,0.24831677225998594,0.1381528612451756,0.07828233699079014,0.11275971374870859,0.06791174534141671,0.053861531172356585,0.9795842097382026
0.11809317772165139,0.2599554836461673,0.1333747086159997,0.08042057863562631,0.12335643660653345,0.07561613474717294,0.0550204806171027,1.0280531914136521
0.10236814360088688,0.24817071798191634,0.11464304498324389,0.04612996741036359,0.11507083091578459,0.050601437963832804,0.02718731659968108,1.0525884245288872
0.08206017669366458,0.2644084604667884,0.0619469764204248,-0.01960223394839946,0.09209999029271776,0.025085721770661318,-0.006029586708568119,1.012826885666349
0.10946176855737921,0.26324092117023024,0.11924670605323626,0.06769445388742378,0.1253074705253472,0.06665904217233967,0.03693266346567527,1.0084971251804429
0.11565280050487185,0.24877814972293008,0.13765346562392722,0.07607410428322427,0.13930722065153409,0.06949705806427953,0.06726913566134753,1.0002737758619624
0.11206511758761209,0.2768586394497309,0.11108477002975667,0.04382881952471841,0.12791256367915035,0.07040002174497902,0.0528150889199392,0.9767663434498178
0.07717676786009947,0.2835425195759477,0.06382810211625375,-0.01588557872679194,0.08289125119052256,0.04364127270520358,0.0029732071932569997,1.0421225430032743
0.09439287403543112,0.2593934864957344,0.10415918822746782,0.019404409603389287,0.11731020695675547,0.06397633543873654,0.03968068611883383,0.9698170954289977
0.11852573418682592,0.24770710510226077,0.13594170317098847,0.07445238706986437,0.12403693447952886,0.07645135438342426,0.07195705071041886,1.0000287196976605
0.10361919517025125,0.24288731779665843,0.11337641514094603,0.054234917847434,0.10823823238625858,0.07122887852320453,0.06425062276200658,1.0066764105323387
0.07916215538559876,0.24422678657952293,0.0787626316812632,0.006743484078469417,0.1021120164154352,0.05062372184102123,0.029113977631476214,0.9883010634482232
0.10565256133359911,0.2576880695765992,0.11751326817127707,0.040044966132444675,0.11154101250577338,0.07123783262273804,0.054698877567287876,1.0300042209885716
0.12509331898682616,0.2507816073552888,0.1384213774367841,0.07804104124250501,0.13119492824526632,0.09485784027722602,0.08442181192310899,1.0125733549175089
0.104183572067623,0.24994898357259168,0.12519362880485221,0.05693525376043187,0.12369162936240635,0.07701388160796221,0.07458789826737572,1.0121001904545759
0.07503860393041818,0.255465743638918,0.09084448519104049,0.014272029348219487,0.11856530912537093,0.06611698871608387,0.0412813786234771,0.9964494611357426
0.10040429384191252,0.23470803120193034,0.11988304394257755,0.061122332463676085,0.12805627761633262,0.07018706179920255,0.08252359603432449,0.997809322896283
0.12433881772875452,0.23857784347013955,0.15078892068567287,0.10211217179855636,0.15386369886146845,0.10533189257027271,0.12251722746346069,1.0301951879405127
0.1076067060160333,0.2371990895713235,0.14342199867088784,0.08075509999878586,0.1481484190261989,0.10038346129238683,0.1029488950046449,1.0395094046881583
0.09928907703344873,0.24745519161936785,0.10822750867376581,0.03747194646292405,0.13020603718024318,0.0807005566502011,0.06827322937991381,1.0418927553867845
0.098441889026294,0.23691126550682412,0.11454751361901906,0.055575794503762564,0.11890448011490166,0.0752035050126836,0.07642170428194908,1.0541928114203125
0.13165188356143706,0.25231010231644785,0.17184814989209038,0.11741855337469587,0.15753112249211745,0.1225359717324506,0.13189465132641318,1.082832791268445
0.1320888913683988,0.24533745118922792,0.15196737837257482,0.10878432947053356,0.14870102819803793,0.11063080854288544,0.12757659134701554,1.0487606364671638
0.11060391125636967,0.2565617279910551,0.12889284430740605,0.07233704284097456,0.13803910472215633,0.09312052398936124,0.09771467188227062,1.053354931593137
0.09400336573259016,0.24105373088982449,0.10254439986447635,0.0318276123192004,0.11536860023348898,0.06347555137825721,0.0670911672805035,0.969447044289764
0.12869011977569797,0.2540862605419501,0.16463447075398635,0.10447298172626618,0.16208817562742386,0.11882255817163508,0.1331261136506628,1.0315187737450957
0.13322744215122295,0.24145066485330471,0.17344808208346288,0.11733746098771758,0.1452844099497894,0.1260618263781852,0.13860348345583476,1.0232037458136547
0.12797412717514897,0.2623909565119408,0.15524457884254145,0.09072672195031242,0.1455989052351969,0.10121554962603718,0.11261231742506764,1.0111548406182376
0.09939699333852658,0.2431302066587335,0.11367669513900026,0.04031940044818417,0.1192626335330971,0.08064154851655439,0.09315528059309408,1.03823539946848
0.11535065490610204,0.24874855733431203,0.13627933026247288,0.07490643668779845,0.11498677875008306,0.0881110186642629,0.0990250066080476,0.9918287173087605
0.13524566057181575,0.22655359536104056,0.1764936772735947,0.11990275744605955,0.15592743250006202,0.1241318372619722,0.13683458537724297,1.0065729574848163
0.131757182057288,0.24988301234882668,0.15850287590310969,0.10469498794919335,0.1499256366193996,0.11043447615493163,0.13604062632887884,1.0137860758193904
0.098689899447955,0.2526818512701064,0.12590897836784037,0.06314504498544005,0.12678601010985283,0.08798094838706956,0.10037789398829924,1.0041597677228031
0.08781072225704448,0.24893208187290952,0.1040360322813489,0.02065037476823436,0.10059801435949006,0.06746447507140843,0.07788166400766128,0.962067944038602
0.13086897912869144,0.23278002982889567,0.17041552805711185,0.11305509576878993,0.12944474762354574,0.11179527039299574,0.12265364885648697,1.0012028833582267
0.1367339509324057,0.2550007481438092,0.1735547298630637,0.12521660648689892,0.14895823760145377,0.12332002862906731,0.1295272909627431,0.9984205067830982
0.12461355024551435,0.23304132406228242,0.1495779070872712,0.08660634777829113,0.14482540642249528,0.11099595980532148,0.11466997278553316,1.0257314545779177
0.09657607285282713,0.24369715878366774,0.11506566085746855,0.03988825711581374,0.11760846728075795,0.07787414443554024,0.08907669781880365,1.0193328647286086
0.10035339072844464,0.25323651849904394,0.13226471131856352,0.051038132625546,0.13110066552524352,0.0744413135974659,0.06301065724472053,1.0323975396059892
0.12724972856786312,0.24571606430664159,0.17359698820201178,0.12417686997974113,0.14866543867327076,0.12158073210716465,0.13240263690838205,1.057869307514893
0.13331015168671684,0.25364831650505787,0.1523819451601439,0.11043025894703355,0.16940033391069473,0.11067633090672475,0.12217190286648198,1.0225496103246754
0.11644749759891235,0.25142908787731455,0.12684969840223412,0.06366919211638174,0.14715163379362725,0.09351707801947884,0.08500576696103614,0.9868777670133658
0.08300375296120803,0.27280279172988586,0.0723129787948821,0.0055638530961142265,0.10456102654162193,0.054353502596553215,0.04455541352912788,1.0867421951806
0.12194820361168338,0.25271869532202634,0.14573479953956386,0.08452224792486979,0.1340417837232252,0.09576791885692702,0.09406213178634236,1.1224782408934364
0.12380249789345849,0.2626106182487855,0.14997659375995825,0.09902651467721002,0.1441366496309356,0.109631665160005,0.11814584189443562,1.1086120837289553
0.10869789289406839,0.2346921167563343,0.14549053423566236,0.07215819506320235,0.1264669743706319,0.09523307827504934,0.10703284304635777,0.9307209742968242
0.09144378051340328,0.22642122447967375,0.09400351738703501,0.021835869221760333,0.11392236249453452,0.0642609804744038,0.062010734568159975,0.9427919237738775
0.10299085554799747,0.23582500856424685,0.1146921589052953,0.052637368828773075,0.11914672496315673,0.0773172442666748,0.06905432258703281,1.0068384314954653
0.12530840460175147,0.24014030675395368,0.1535693909284645,0.10342676763620759,0.13020278267162877,0.10683553804903366,0.09329720771767609,1.0302430452923632
0.11243556586434272,0.23513521290187683,0.1365170226140361,0.07988854888798148,0.13719104650714145,0.09387755713932215,0.0867446379396795,0.9861423333902403
0.0865399862380167,0.2427020935094432,0.0994104211011011,0.03829146606295261,0.10914501516241881,0.06240897488100738,0.04548088460746021,0.9435586764537953
0.0903177863442523,0.2441541745164131,0.09187003401756609,0.024843038525474762,0.08469757931025464,0.05011007300763868,0.04212067167647027,0.9534163828974435
0.12459113657146938,0.2475541150787983,0.15177648846310315,0.11011371282387244,0.12730169979462783,0.0942204745030843,0.10434793626290002,0.9791915849635113
0.10565866797041829,0.24509474424205402,0.13692362870551814,0.10107403218978005,0.12122502493438508,0.09531784648453075,0.09976836898973081,0.9712417788035943
0.09593553480056143,0.25252293745167853,0.10983923152624242,0.04882383626376803,0.12635038259401804,0.06582680629344,0.05552153060640604,0.9572752103322747
0.06798425324733558,0.2504306371167713,0.06519954354287791,-0.0021064900372476654,0.09009492598090474,0.04725087048336634,0.019962080753087127,0.9031083849308048
0.12055574065273957,0.2389526981781393,0.1440453579471738,0.10008007156972845,0.13174071414551505,0.09019889529026394,0.09117232329328477,0.9277481324262389
0.11104207497872273,0.23980921334237632,0.13404342128968275,0.09125280603072591,0.13102126175906337,0.10006856756420401,0.08703601050272414,1.021583402963931
0.09958089402448936,0.2544030581288104,0.11450220347024878,0.058821300067170186,0.1323416279399375,0.07788673108409712,0.07285301603289814,0.9737899650371489
0.06366706547497274,0.2398296730917015,0.06745408935494966,-0.005274841796104866,0.10069939980177625,0.045013563816652516,0.025253655722500472,0.9524055717291877
0.09577141679834629,0.22907093071400875,0.11841728777027412,0.058841403832276394,0.11780401079098261,0.06074569274097793,0.057235082587606914,0.9436300397224726
0.1202322897016206,0.24435141810210737,0.14423637477765489,0.08826101403739489,0.1374997189705224,0.09177466570841934,0.07500783597852402,0.9426156022855849
0.1008379057370657,0.24366230881993756,0.12034378648045221,0.06493931824401032,0.14130283063985882,0.08137505909472335,0.057189912980408555,0.9547560427213385
0.08371548298010842,0.22592107327300187,0.0754673211769047,0.011576481747812176,0.09970885107906291,0.05096488335832801,0.02582578575803643,0.9588242160772968
0.09419110098842248,0.24645214676370383,0.10801248006451247,0.05079045958986554,0.11295077026504476,0.05540169227288464,0.05081727039758628,0.9473665937225979
0.11454348065086073,0.23233850056548153,0.13925850540267098,0.08698543033447975,0.1359593503016911,0.0984075994900917,0.08530085534242901,0.971005902445158
0.10126492250693173,0.24697433776757977,0.12642640835169672,0.06317651196570008,0.12966881970147437,0.07464489038044646,0.06355462120524989,0.9182418250650985
0.08289821319863727,0.22404535662079367,0.08260868823321996,0.019385480307677196,0.12100009973518461,0.06262355905775115,0.046157506525659246,0.961421147752632
0.08564882329958379,0.2247176750351135,0.10881203365942001,0.04188416603467124,0.11385536475531764,0.07171609885102481,0.06018501360683023,0.94982186274535
0.11264671623410669,0.2399760415960161,0.15351236096701718,0.09229128155695837,0.13928760702589935,0.10636901718843808,0.08742771302651434,0.9890261328591546
0.10863339281763638,0.24986767083441927,0.13883019712342756,0.08215030351140878,0.13739617612344873,0.08476168738596328,0.08742358714424713,1.0061253814021263
0.08616124399432677,0.25160126224786766,0.0966091737788833,0.03371314334892014,0.1137209541634539,0.07074267307033767,0.054195026078009856,0.9855236443994667
0.08992926249778417,0.2328011893548201,0.12705748743076867,0.06485057230077396,0.11387368592790016,0.07778642249351311,0.0806265520611175,0.9652429787233847
0.127869657909082,0.2582147714718276,0.15869904121332692,0.10425437366717588,0.1376042069534003,0.11282219288387614,0.11043420820348143,0.977600531403757
0.10769138590802059,0.2370065494329022,0.14503835222316588,0.09653301893977606,0.1340990603215482,0.10379935163962202,0.10104062158418299,1.0015710807028322
0.08723016259838681,0.24743558962193454,0.11338352560873062,0.04138144419611815,0.09828389223658325,0.07565882650188836,0.07791026735488757,0.9200623486859765
0.09160056821887516,0.24748784593340856,0.13505595249961494,0.06437650934783032,0.11694073340520972,0.09149793446753897,0.08977491908454802,0.9766154500640671
0.12453810580540217,0.24170570314436962,0.16229023828571001,0.10854104003161734,0.1408515843427475,0.12702196386279305,0.12739468419270564,0.9894030325168823
0.1103661219935798,0.2502351258718617,0.1585458808265538,0.08951543249615347,0.13381927540506,0.11228582674885543,0.10121473507888579,1.0182071201621574
0.09059057926031364,0.24805144679764063,0.1066758780507821,0.05504862899100634,0.1137158599974977,0.07956066292989962,0.08125789546949772,0.9710870806579618
0.0955266235474569,0.23457589138728752,0.1292960219752476,0.07597221768726692,0.12408233932786479,0.08423204429354188,0.08991184072584422,0.9932214613502002
0.12391927286599527,0.23418055679056907,0.16199119152866057,0.10365007903445149,0.14914911105846593,0.11644996854626039,0.1223676954812632,0.988396573106582
0.1031032958442946,0.23588877326580396,0.1367660323576349,0.0872781485397842,0.13770437358714138,0.10332039604279844,0.12618002992639757,0.99248496316396
0.08950956272336093,0.24316512898679166,0.10859422520921415,0.05492056962003903,0.11113538773826567,0.08786073829196395,0.09273656451431458,0.9806771332504856
0.10654549737769144,0.25014102456110776,0.12363675219323,0.07561237315898356,0.10666633051004791,0.08836716951520596,0.09404378234942273,0.9838186389372126
0.12652074384320527,0.24803632187196517,0.163800416627235,0.11313026454220226,0.12580851716020927,0.11808044804514063,0.12073730643791562,0.9610848013313319
0.10899489156870819,0.24029593784985565,0.14003465502909557,0.09191406805419695,0.14277682127502775,0.10199113922956862,0.10578366240307971,0.9892478311074114
0.0916470917029408,0.24974691642042107,0.10672124145473272,0.04095739040414013,0.10436684196270538,0.07299542315103134,0.07477564236165687,0.9779494900928852
0.10905035655789143,0.2274600324151992,0.1358194170672218,0.08647879610395409,0.12259883065566492,0.08746529381491142,0.08137339805880084,0.9593156819508559
0.13143716586153592,0.222881474445744,0.1602193582706607,0.11783417493519303,0.14010562896534004,0.12179822863587106,0.12062834066424516,0.9688548766844775
0.1106859854360856,0.22660724576689292,0.14570728529977484,0.09406012123365727,0.12801914043326712,0.10835192392638883,0.11600081490231562,0.9764277376549116
0.09002233465450078,0.2361555859448221,0.11606803108442071,0.04561866748813339,0.09921230603953633,0.06761149347618055,0.06598087744948718,0.9615276763808045
0.09876678918610253,0.22361190217270085,0.1242128435965488,0.07010256446857227,0.10805344992370446,0.06994054159665429,0.06635427085157554,1.0181321595958956
0.12088126943330277,0.23225506936335055,0.16358892381379664,0.10734245024051721,0.11968028197855088,0.10610752108630814,0.10408997091808915,1.0156525062753954
0.11594925435697523,0.23511499357137383,0.1461105232078512,0.0909621845866044,0.11770423716384239,0.08421490508080676,0.08962317256126323,1.0084534940909378
0.09445882939849323,0.23226368532277858,0.11099640859119224,0.053097456181483454,0.10083443068421388,0.07501771827715484,0.057021627359281235,1.006862055259821
0.10879677607939062,0.2255518401916671,0.1351844062714196,0.07735348578554384,0.11544759451618548,0.07187659531154188,0.053867832172553747,0.9549012182331965
0.12635721768144556,0.22524884233936035,0.1670330501937388,0.11044218962406335,0.11594227781405836,0.09312802532933623,0.09043586168047305,1.0115812013556729
0.11903289617200842,0.21644319148825175,0.15803142635555534,0.08926074096489608,0.11370871612521179,0.08538100160886142,0.08943050575118129,0.9756255889775057
0.10027967846907344,0.24019995361475016,0.10625707735061911,0.04636539427296995,0.11188404440553007,0.05911005023445854,0.057020746431202654,0.9171688590024667
0.11746130872923609,0.23527642888357583,0.14778523864820017,0.08525814700048732,0.12254130937528468,0.08808074967131233,0.07070747864625583,0.9780992452633587
0.12722234533851978,0.21761674234042644,0.16220794068458433,0.1140894823491087,0.13971910931588946,0.1021839612580425,0.10209501629041695,0.9752645166944716
0.13382384550829374,0.227631221902412,0.14760931142319647,0.09664101680114806,0.13065503185394745,0.09632898268525047,0.08069698683290304,0.9709623631888388
0.09862296048022057,0.2202822019735754,0.11769255242893574,0.04766610647017398,0.11654893105373668,0.05695925925486717,0.04968675039864373,0.9634045906849571
0.12071347642921193,0.24342525861139205,0.156964681557553,0.09460285529141678,0.11986409228136942,0.09311557635519088,0.08671814464554228,0.9803708760067046
0.14179344180731457,0.21780341455927518,0.18028635912019056,0.13099786371643443,0.15311763188096533,0.11751636209846805,0.1067858414396543,1.03738505987966
0.1286504991056186,0.2294190285841125,0.16191127051576826,0.10420937431016063,0.14691383686068074,0.1003575677485394,0.0983482894464207,0.9741137954115248
0.10506276440122891,0.21624973824248359,0.1304881710148965,0.06151461960014611,0.13652174129985772,0.07197967010572773,0.05461644372005956,0.9475575345452513
0.1201605486843377,0.20235183443597807,0.15358450373442106,0.10009434117961498,0.135830248623989,0.09352890233537188,0.08566033749219816,0.9672516664191199
0.1414185920229771,0.23696553611997365,0.18735394357302185,0.12734900430198895,0.15264557846164578,0.12818487489298472,0.12605933020144397,0.9871934486019269
0.12802837451417512,0.22627230966101822,0.1652356664419068,0.10761743437004473,0.15695597714577517,0.1261196889744989,0.10868118086018484,0.9881928261094325
0.10278335536883855,0.2113311872498582,0.12517741957951237,0.05488210730687639,0.122465561641844,0.08380792812046783,0.07860126165297666,0.9896714930328548
0.10218892468191657,0.2161170677981154,0.14051181089141834,0.07113282121275621,0.11606860478140588,0.08864920507648372,0.07348417632706218,0.9198770159235393
0.13468810257723862,0.23446266872610497,0.18053019032668202,0.1295619325869417,0.15662284960680445,0.12434072943768858,0.11268813342501699,1.0106292160821375
0.1197047448998043,0.22969156456268452,0.16634291063980453,0.0982799437023355,0.14659606141333847,0.1144748631065261,0.10718980463826017,0.9843036742436253
0.09723206847612693,0.25070882257106647,0.11529439757290735,0.05258127635191718,0.13298547703020208,0.09022205079818155,0.07477924882440518,0.9152524330893462
0.1026957788377071,0.2432012644846312,0.1335478407280954,0.06644994189361117,0.12127039545545609,0.07515065733593408,0.09127264035068033,0.8703370608839605
0.13362802563935425,0.24591014887914428,0.17314188806624034,0.11758043293580003,0.1518936220062105,0.12951969453196185,0.12331468159999742,0.8940697002683471
0.1207788994346764,0.2546307167051088,0.14757594195699134,0.09283995468499494,0.13762679800398975,0.11600501122818788,0.10586127851693848,0.8994158186422617
0.09585561832762345,0.2329367349763704,0.11691996788294175,0.045693535166603176,0.1312523446289717,0.08775599688616696,0.07957907913268854,0.8698401858410515
0.10286320941636502,0.24186113975412588,0.1408418919935794,0.06423391046670834,0.12072422663361208,0.08699045927201529,0.07422670230950103,0.8797677541959004
0.1256504128268083,0.2490672669740032,0.1715949563072674,0.1021519529547201,0.14900157264462846,0.12401946771726642,0.11800325348651064,0.9027961669073273
0.12083400881694029,0.24524113809224604,0.16156065409532266,0.0840042801420739,0.14181473039972495,0.11247072929524148,0.09448347253741737,0.8728492964086719
0.10335182930651998,0.25539115112800087,0.1262393870038831,0.03712546331636353,0.12739969220757008,0.087094459154923,0.055282806058472626,0.8273302150356959
0.10513639581719494,0.2661129014356916,0.13701673930920413,0.07911843003913085,0.10934298311583399,0.08490827125426705,0.08666309156663894,0.8052265908742996
0.13068084026228022,0.2862175325671535,0.1883646623589861,0.13801131673726338,0.13479606526012866,0.11952039841374808,0.11993525795775732,0.8529315750068295
0.12028454086153659,0.286041665581873,0.1771707385613491,0.11389857234630779,0.13034279749293015,0.12193416830199794,0.09010733547440135,0.775647339107929
0.10571558316377005,0.2809052732514703,0.13957545046304995,0.07843300591610289,0.12076903096420712,0.08531076236312313,0.06273017784357636,0.8262870261630297
0.12051595029775847,0.27704024569896996,0.14974700753888598,0.09850588073745148,0.1171309411900872,0.09064487260709878,0.07547642592140053,0.8365566524129541
0.14348929822515416,0.2982178952259738,0.19879785971841787,0.14994663209412284,0.15679342865649878,0.12650511665208217,0.11677292988178525,0.8669771675253289
0.13247572878786243,0.2803597910356618,0.1838962812061687,0.12687480503409898,0.14623072427024225,0.11233925259639947,0.11463530880104773,0.9013443498410273
0.12639073136990858,0.2805460397415819,0.1457438189688223,0.08344830454104259,0.11781275150845953,0.09169674621788114,0.06824688362068637,0.8561338427293371
0.11208767145664669,0.2736244036369098,0.14885202817288007,0.08319672281597085,0.12600877290302392,0.07916927859436708,0.06521483244618298,0.8218992625747932
0.14637153938204892,0.28514938619599656,0.2014126739858924,0.1468233353245924,0.14591921238692712,0.12806949131739861,0.11684182220396203,0.9498844764202704
0.12945296432641973,0.2870001167123476,0.18594473021905236,0.13038712447469178,0.14146489963990122,0.11987119588176284,0.1158569168495497,0.9233721968212873
0.11609325506144044,0.29509525779620144,0.16685001714639766,0.10532471318879648,0.13747170887681753,0.1007647900504426,0.08889718916389824,0.8578676191457891
0.11625552950011404,0.3008043656228202,0.15549787211422528,0.08561015174099941,0.10772935200212415,0.08123097104557236,0.08641013174268804,0.8916160719130811
0.1403826615025409,0.27949330495210967,0.19825345609279457,0.14742642192151142,0.1441482938352674,0.1306268936724447,0.12666087247241797,0.8570769513355253
0.1342623037158023,0.26503124628283437,0.18291957784462232,0.12661740217882947,0.16146252511968764,0.122622596745557,0.1167408870163365,0.87436657175342
0.11190999581405989,0.2512086591165087,0.15211335974799084,0.10061842736979008,0.11852668286977,0.09216864113014425,0.08493276474052618,0.9341482380356096
0.10178116843522367,0.2683236968904181,0.13505622816274412,0.06304182645150584,0.10064881272596168,0.08251192115852286,0.06401987183497297,0.8917827608154628
0.1421677391241695,0.2636356362380297,0.19340954403251714,0.14221189360689324,0.12985402280396213,0.13482039091412337,0.13259433748661692,0.9955116794463802
0.1323309632591021,0.23157251431222958,0.1925422052407652,0.1441647072175424,0.15073466230876106,0.1261411407698033,0.14173307813877992,0.9877546004991581
0.11991669599010359,0.22570042829221781,0.16974875386188035,0.10852870892134893,0.1496414478373491,0.10989333916350102,0.11089263815484497,0.9728320847503341
0.0989642727741984,0.2410618584017834,0.11886135619912569,0.0699100827137014,0.10914292911082976,0.09273834608227799,0.07181491033085478,0.9874500755024709
0.1382484806122256,0.25846374181153753,0.1943446870240239,0.14415082528614107,0.13332629298345003,0.11611111361125875,0.11716165995716732,0.9809658137061114
0.13654492480921412,0.25953501234574816,0.19764916574560532,0.1440532206913119,0.15507887427943653,0.12931012857198262,0.13015058204242155,1.0103968424162841
0.12112059954069986,0.26310186681771175,0.16096389579863715,0.11906823762550586,0.1321974529405068,0.11581898067604712,0.10989110625415587,0.9084821423169438
0.10094617290558977,0.2420796177253555,0.12360012618709586,0.05652382783431771,0.11101983592383177,0.07228430696557694,0.06604988220153521,0.9628765792571468
0.11457645049476256,0.2368677235195168,0.14817318625116627,0.11057748918938366,0.1177954160803739,0.10184174616663055,0.0828031567425983,0.9669921994931878
0.13166814210358793,0.26755605757364803,0.1804041542702666,0.14103418710531784,0.13576855618826658,0.11182288606270459,0.12395545311570602,1.0042014687966758
0.12251375628758675,0.2427368958782176,0.1541246272196805,0.1020360135330573,0.11668875672783656,0.09549629011668306,0.0951390704727158,0.9788768643281188
0.09346025186072499,0.24702625671883907,0.10517395020896134,0.035338747395942796,0.09437880558317523,0.062331214109204135,0.04882140864987422,0.9075503424565867
0.10268273037474848,0.23616871925178087,0.13837190743218017,0.05983487752590402,0.10910718931191979,0.07510498808633569,0.0624628273642799,0.8968168889295296
0.12440494894692841,0.23286161849155143,0.1711237672351177,0.10407067685185599,0.1385900801196623,0.09321477290946244,0.0984486892763756,0.8465472797541239
0.11735475144653604,0.24199444436415088,0.14412329383367053,0.09088343854400749,0.1200689217665044,0.09420203373415074,0.08159029601740456,0.8664536592892312
0.089366938264777,0.253887988105043,0.09337979609321752,0.041050933346610585,0.1019651491840614,0.0583667810237894,0.046404036340253974,0.8320078311842986
0.0989972892930366,0.21895925966880742,0.10845061510351311,0.059168380168409966,0.10897776878418276,0.06694288602804645,0.04641110846696608,0.7615709543215895
0.12231723288828303,0.2379377625048085,0.15726695667435828,0.10999062040713796,0.1216512531572017,0.09155349750502133,0.08668202061573584,0.8093648614687496
0.11920140729831555,0.2813030237668928,0.1435590578063482,0.09808136092266762,0.12943286539002957,0.08940084969438437,0.08760714919952108,0.8557624020194695
0.09726609933440132,0.2630490657767875,0.11252537607868553,0.047964161103787366,0.1081284876825658,0.06557748395657675,0.05591521963199449,0.8594051230289812
0.08098402942993613,0.26908803124928365,0.10156806453875698,0.025737784490366882,0.08693769095279766,0.03822440422851964,0.02495186295295831,0.8748104482120351
0.12590392257370348,0.2712054933913115,0.1653110298118742,0.11707306321225287,0.1314859403143494,0.09737847153029262,0.09097635351906379,0.9459051552488648
0.11405553672961755,0.28516482228540135,0.1490150773657945,0.09321356712479792,0.12174752400617148,0.07678040455854616,0.07476591600390883,0.9387349517443103
0.10187177676653224,0.30421103577104347,0.11256230639177332,0.04788971263510752,0.12282764999744411,0.06666912743837629,0.04102985517828901,0.8836355133109073
0.07950386376564612,0.31659582553110577,0.07298073374183298,-0.002301287260693396,0.07468873398337494,0.0338618232310963,-0.007078689302212492,0.835006157006448
0.11752259363166642,0.33303518978366436,0.14687562259911507,0.09390507346214706,0.1196389608270058,0.07770174540794957,0.05615408654081057,0.7994126170457896
0.10997260011470412,0.3213304471283271,0.1520265720743856,0.08393491038169178,0.09967580108133285,0.07463300321756774,0.03607754589517696,0.84195748664959
0.11899836156042025,0.32969119401277963,0.1391227062826442,0.05080068236536089,0.09782915093976298,0.05314869062010664,0.0329553603234534,0.8531312576874732
0.084024606953809,0.31368767872334624,0.08440778760082092,0.0067027689936665375,0.08374992737421966,0.023533660806503452,-0.006281042770009647,0.8097375315936699
0.11227387801194262,0.2888694338098252,0.1498421983119554,0.07705625833420986,0.09571414597472713,0.06331320290740683,0.0564910847846874,0.8408077619431749
0.1123672016197639,0.2962677756678058,0.144535488185954,0.09105055970920743,0.11951560968377331,0.07397872842817439,0.056169747295947633,0.8591515685415038
0.09779827347297815,0.27213502530039524,0.1238459199041138,0.04425208541476332,0.12525349179899084,0.0497147428507791,0.0422341811411325,0.8735936561639244
0.0753794416875649,0.2788155563091683,0.08445166926898151,-0.009250536084582506,0.0813895008828943,0.039073345130195565,0.0031213972077341425,0.868932801905449
0.11780392376001646,0.283597355572533,0.15032871259912284,0.09260716690807846,0.11994079159428478,0.06271784527568326,0.06033437602135476,0.8158134506081883
0.12358763577468618,0.2785561380997701,0.16548914211517873,0.10477665985606106,0.1153215363007387,0.0710337321806224,0.06323452083287728,0.8056842685841209
0.1148721836530436,0.27416275541515517,0.14982599284941797,0.0793052247579793,0.11049114441654671,0.060915458334266745,0.04043600762421318,0.8073015744100969
0.09159917889359928,0.29948939296848487,0.1050058058673972,0.018281723494732668,0.09215836576530792,0.038632483048854666,0.009973541243342848,0.839306451480694
0.12296291592732632,0.2991572634702203,0.16525937487961123,0.09512699767605114,0.11757634562631339,0.06230771650707071,0.05696748032209953,0.8877315174813891
0.13090923713093436,0.2893885221086834,0.16903696703941962,0.09977704456021048,0.13242688026331756,0.09312256415435398,0.07183026437141747,0.8775311819227228
0.11641715719684528,0.2999394444101342,0.1446312541821848,0.07954853169496473,0.12064374336141083,0.07042243302653031,0.054356731668426486,0.8803226167166674
0.08889501779504527,0.2904790549847644,0.11169724556763583,0.03413226017656668,0.10163836234948032,0.05402648822901063,0.023177429969499102,0.8631561596807712
0.11211224822082222,0.28604898796159917,0.1474776022325729,0.08102720200993478,0.11494237679067067,0.06883471681644798,0.06003006922613254,0.8218971155475653
0.12872569148804988,0.2798328489043005,0.16822961953790605,0.12253788256977649,0.13185448637841699,0.09917552403512653,0.08240052688688591,0.8869952357931418
0.12369831593644967,0.2699985246408458,0.15951997624641323,0.0956748561314833,0.12803220422903314,0.07263634163748779,0.05979277997557575,0.9034394006719539
0.10727354599662728,0.26013976284698737,0.11575559392643144,0.05734776481207794,0.08114864213358498,0.052065255004083225,0.026297317815282988,0.8641274270211644
0.11729756563020377,0.2671980063912788,0.14102720115654505,0.09229461764067948,0.10156921593404596,0.06292394813405841,0.0639504685296829,0.8385366355748805
0.13433096587280827,0.24676792710256096,0.1809054951164118,0.13218713106356722,0.1253130573672669,0.09451796028574662,0.08707725152981721,0.8231407219635223
0.1190585274159601,0.26105996420353,0.16613504093036663,0.10101298067802472,0.12450734647066443,0.08927056155982817,0.08271112223108214,0.8721709864744857
0.08889439084457834,0.2406538611928052,0.11565626364274012,0.05465804576299005,0.10701601827731569,0.05926915757841358,0.03040870067555583,0.8405002114581888
0.11318792191105086,0.2823348292112287,0.15667500347655614,0.09370086754365466,0.12069634739683283,0.08104570871804777,0.0739454180853375,0.867882150652434
0.13485266546964433,0.2741837722811707,0.180020134970739,0.13753190903310242,0.1280506895743335,0.10335540656118546,0.10957045035644095,0.8338177364311362
0.11479286989379409,0.24738966565597895,0.1596743418579937,0.10527419850289034,0.12531510351201855,0.08763002644892287,0.08928506173190187,0.8716905851569962
0.08547132214017969,0.25469665852101153,0.10826983515417528,0.049289821269780994,0.10102250640340701,0.05891172041060447,0.05684647303023909,0.8642874838144025
0.11020189795668567,0.24442327090691626,0.1469676590566221,0.09351337531218036,0.10973333859355323,0.07480930009792887,0.06046183342171937,0.8719593924996665
0.11814062287644855,0.22996023160350187,0.16406661686950802,0.11573372157578954,0.11561700075291816,0.09941898275320266,0.08945097327404847,0.8545083627423179
0.09630676400732129,0.2603150041022188,0.12349802314317058,0.07248754972312182,0.10458010348667411,0.07793024713033495,0.05104854723389269,0.7762870719041235
0.06832923053700897,0.244726812283721,0.08884884219975916,0.025055828948047094,0.07517711386306485,0.043528990021546955,0.0243482970069588,0.7042047864268325
0.11172011446966036,0.2357377027111573,0.16051687788555558,0.1153263466819725,0.10459363570623623,0.0821953951019928,0.07824692654721664,0.6780802879097472
0.14841125985057935,0.2256030757628188,0.20166086383611534,0.18200504650059363,0.14435121362688047,0.11412578158087731,0.10084673989702919,0.7624159636368529
0.15145037412213708,0.21661244913307912,0.206036788891224,0.16467459390012926,0.14892834286114315,0.12101848464893329,0.1003344060547319,0.6659625522826725
0.14584048384751816,0.22581774866436646,0.17121749611027579,0.1341298164709091,0.12869843261412112,0.08539444382834717,0.06542197013887621,0.6435323976707578
0.16624298509358698,0.20322855787318556,0.20601053630018404,0.17725187187120756,0.13661055597040675,0.10931591807953427,0.09302746914958349,0.6288874115753683
0.15973439377811582,0.19079295876386237,0.21632654602329385,0.1742022235948189,0.14552313960031327,0.1082473191412654,0.10506160811891928,0.7068873226543527
0.15628387734319762,0.19720259056694528,0.19511404911116745,0.14899285492757527,0.1499116592655774,0.09446270900472002,0.08145444614506223,0.7080463220159158
0.13057777277797342,0.18572402852387046,0.14345578618063934,0.07019344623311874,0.10431865522749786,0.06191455619636661,0.03935041307958981,0.7238657900994987
0.14154415399679648,0.17216034867963007,0.18024498244564285,0.11905679097130807,0.12588977914185498,0.08658932650492426,0.060384720359616395,0.6999681474612531
0.16723596608341187,0.18662952043995285,0.21062387996687068,0.16178707414324653,0.13596385060115193,0.10514241649129923,0.07707033766629826,0.7518676451681475
0.13990701824173732,0.21670012494191343,0.17787167049271932,0.1225205847450882,0.12196920967121595,0.0749931573229505,0.057870307641034464,0.8166771984027468
0.09709917857377345,0.20235038974481367,0.1100706649899724,0.03617050970125944,0.0913162189012562,0.044487765498643986,0.009192591505409277,0.8688008877788392
0.10299489836458063,0.20065856523522718,0.1257199039075781,0.06391679887753164,0.09743140457719031,0.0444487716381082,0.0038633635317084987,0.8911982705418395
