0.0,0.0,0.0,0.0,0.0,0.0,0.0,0.0
0.01768923536841279,0.03169921124058035,0.010605904311004763,0.041143290316308215,0.07655621877475079,0.06687168191195333,0.08597944464437346,0.20685523715604243
0.009058078238741676,-0.014967264616612588,2.6751689241224716E-4,-0.03604520685728801,0.040252210901833216,0.0010476752615148147,0.09938174655711092,0.09025323169930365
-0.011588590060011403,0.033283473697642035,-0.018848774045508297,-0.025760336665096327,-0.03867122606362974,-0.05163830614309303,-0.03583827888691253,0.021596158918851388
0.033387631227425864,0.04955613774908743,0.0031827894692453805,0.02362674865457803,0.037174102530889236,0.07007659804980403,0.08201175604517119,-0.04198013809380215
0.02096472835728258,0.06478432307574528,0.0211084046941045,0.004009594154446409,0.05651693015219311,0.03621107483739443,0.042681635052369,0.14403694742387302
0.005095364827090061,0.017244179412913896,-0.03586611589769988,-0.023374365943995,-0.058213370310268145,0.026630277644459868,-0.0026368214697116837,0.01228657327057174
0.010523812716590565,0.05864311412545936,0.0015014120735429154,1.2156213612448882E-4,0.00789938096549657,-0.010289859201807139,0.015149511164193885,0.12222866542796486
0.031466589083468346,0.12992618638535217,0.021123944390554927,-0.015121185673081683,0.043169924497831205,0.09525971255215694,0.05636870948313451,0.1027502517947513
0.02207016653373286,0.057990697022723886,-0.011001536780317688,-0.016402935609292787,0.018705450307355764,0.009102482881337096,0.04040409654270176,-0.11985136061574714
0.0037251521637373455,-0.004758299786076101,-0.011812605363839629,-0.036992642290370414,-0.056164077223643666,0.008377217261793635,-0.0010898967301983184,-0.06651386208881808
0.025002103114449482,0.03463171932572218,0.030099612571531577,0.017398538101559693,0.10170421892576975,0.17530341823499443,0.10242017043194987,-0.01734206173503306
0.016346286719305728,0.10759221390825349,0.008480740456365023,0.007185066801148551,0.056503035448314975,0.10816603527648182,0.0590514069890803,0.10481808977918157
-0.006173706820606858,0.051779080503885855,-0.03519750662021294,-0.004826454881683562,0.022625896642181856,0.012993209710115791,0.01459236583918587,0.2361595707768458
0.03431965007295312,0.06402854378541056,-0.014840669827539475,0.0032731808208718155,0.021111190506586948,0.0628255295839499,0.05318340300229817,0.02727661211691154
0.033428837541349676,0.07375537616539773,0.008625627410920343,0.0387846746502713,0.13053687302055925,0.1405444056819913,0.12175722038821388,0.02300480364957816
0.023469638513126313,0.12891299351465038,0.05482243893167341,0.00973359517186538,0.08069994917636922,0.09998171208101456,0.10831583733162584,0.03701550002946366
0.007495329127962379,0.08871351678878334,-0.02982383351627965,-0.027588879121381315,-0.012856277578551328,0.009488778872232977,-0.06450832222536622,0.15127880899222618
0.04490513662071332,0.05146468849659824,0.05246732165036335,0.034302970986349476,0.07188420665339659,0.07505726623932958,0.12039574017279756,-0.055663937386729076
0.039915631200372385,0.12574652599081715,0.03657190647972249,0.01894945805554042,0.12497673811271541,0.10757697152452057,0.1202562350298257,0.022102513272905702
0.029800430702466976,0.10795902798993087,-0.018442162493205155,-0.006709141497434146,0.06808176974583567,0.1090796321668479,0.10628295858285633,0.08024900531687458
0.012727004691485376,0.10740928805515504,-0.026098159815539774,-0.005254129132375912,0.03228744004172432,0.032881823421735984,0.030708218620751106,0.11043143755202088
0.04807429243582816,0.10379642990179913,0.011799283678804812,0.021920190559207454,0.13057443407397476,0.12891109905154852,0.20348041067683553,0.0672903653622731
0.0380523092451015,0.02370499491537857,-0.012858377817546018,0.007714484958703506,0.09414937713728369,0.07307289723060811,0.16954036410364887,0.00802240770570492
0.017462324945722633,0.13818066061713996,-0.028689931663030965,-0.03268116032917492,0.05252394296036464,0.04550015059168276,0.05838731968211204,-0.006412994734041444
0.01852226575844207,0.031425878377965746,-0.009252320478048706,-0.014266141370852872,0.07667258036710908,0.09936095873076367,0.1185638244610519,0.05243248587130807
0.04779934123051335,0.04952255100911543,-0.012469226119903115,0.002322470782475477,0.09205193957049902,0.14468513117639611,0.19559937125769772,0.23611695622239526
0.01773032982866307,0.132881932896525,-0.009834101145577107,0.002166912376186679,0.09179891040973719,0.08716149984820741,0.12161307586628084,0.05751469906255423
-0.011626533093599541,0.06443101662656953,-0.06786594951798025,-0.05383250665111344,0.057811872510525456,-0.013146883889778041,-0.0512027307947987,0.0066551204264005265
0.029541098961574322,0.07223941554568164,0.018426112153284033,0.015262503273654447,0.12366988135374785,0.16015220971818447,0.13686515892029,-0.02540950001929282
0.027668544813699722,0.09399167166388861,-0.020459879816950556,0.012199382679798244,0.13337561513501497,0.17166893678189735,0.173282605963745,0.059381684295086154
0.011531007234089119,0.0424680721227719,-0.002665995578810098,-0.03848625571609119,0.07733615667862713,0.07282606884813228,0.048595640146591075,0.030462523046024897
0.002079215259955622,0.12630277033114154,-0.049594868006110605,-0.027405477883562058,0.02339556191038869,0.03617230332885552,0.07552623268670265,0.030807802592329375
0.028757591388002636,0.013764813432327147,0.020127429932928327,0.02794214152306174,0.12375313829467102,0.1790523279921811,0.17560121104574022,0.13716950629362695
0.022878820394036756,0.10167498336904277,-0.0035837244428468043,0.01629762238760257,0.09701155517821347,0.08183712997427448,0.13492649571860033,-0.0733694823332122
0.00449279031111928,0.06519325389396394,-0.07161254502079703,-0.01996740732514086,0.02015195888330283,0.005913018381689339,0.021842861166553526,0.09700500483506032
0.015114923249026219,0.10983963160206014,-0.03766934181661997,0.02986278470663781,0.0570850192438712,0.09335396908681004,0.11769804408812316,-0.04537217790491033
0.0012750688347381613,0.04893861510772568,-0.057220292553435526,-0.0049743338195741785,0.06586149413019102,0.13714870714095878,0.14526381330426152,0.030423907968419997
-0.008227557367538146,0.0604914944284588,-0.04426710180843543,7.52105409839398E-4,0.02272137638586395,0.07976258061913055,0.05118381125960997,4.068141372238765E-4
-0.01780333780637929,0.03328987507269658,-0.03384137255456958,-0.057558445035117284,-0.039692501763182134,0.007403794337577076,0.003937684543936254,0.09755179034687116
-0.016943138817183567,0.1780928843183372,-0.024315916477386214,0.016031451146275712,0.03156538704181273,0.1458020898063483,0.052324095031088896,-0.005399048539927884
0.008111925850038552,-0.01825369484717683,-0.04915224789872965,-0.0049179275285009955,-0.005673465034921634,0.08934026737048786,0.03432201849310848,0.024618589836635396
-0.016623331853094996,0.07548972433715576,-0.05956409986535443,-0.014316726922865168,-0.009104646712712113,0.06379126592983303,0.030725550008750057,0.1683847204537064
-0.018247514231377635,0.044414606143785534,-0.04987771439029187,-0.017635196657904126,-0.0365698169127011,-0.0032503527293204146,-0.006152947499106345,-0.08935045169732873
-0.010368434920031972,0.06105497834330825,-0.0362416043469419,-0.018540965512765392,0.02121730030517532,0.07141750140628286,0.07303866417087498,-0.030679847185399997
4.042736345085188E-4,0.025318301973430227,-0.0841677002692053,-0.031145787565965276,-0.004646973027405764,0.03413549618755625,0.041050021748040975,0.1466152769544556
-0.026912562104661763,0.05855531904466779,-0.049234493982029046,-0.08435876615530481,-0.03834816713915598,-0.0046282665255633765,0.006307219447439283,6.268163618722428E-4
-0.007393519280643992,0.05934144229534713,-0.032241691489084345,-0.0010653119129230074,0.03686458499253891,0.0973728491287344,0.1573324278172593,-0.06800788325352664
-0.017183461544801906,0.14499479239737434,-0.03988524721479298,-0.012221596960908758,0.010438717996153478,0.04900790651251776,0.1403108468146293,-0.04182142154149981
-0.03304285162068647,0.1328760326597802,-0.034654199054301914,-0.0599118744696793,-0.04618153209682331,0.08221712367605186,0.03504433776521104,0.09634617617601128
-0.00254725657471468,0.02841474893245427,-0.031096096765386355,-0.023221068561473712,0.013949364155610586,0.086274016908648,0.0960053364514582,0.23580425648516257
-0.00340503444085374,0.02543579554365963,-0.01843093902318721,0.021598291918676796,0.0465621095309683,0.11450489041011623,0.13820620028637592,-0.062275755418680176
0.0017964027099591703,0.11688492077267346,-0.029857782996316987,-0.016070591101672208,0.028074917429423342,0.10394565213384485,0.06994515289028573,0.06428376648821109
-0.01399703120548469,0.08984259726554447,-0.06877908866222934,-0.05369999614269837,0.010956123343178675,0.053020213287818585,0.020437179027817394,0.05388981808247391
0.03847563017219598,0.19911429505564077,0.03428452114530466,0.002036179357580315,0.07480286960286853,0.10036487429685176,0.178950455805567,0.12303632967323229
0.030905067226015777,0.2923967934274118,0.027662162704519544,0.012614756124714892,0.05221474206298343,0.19722923609860843,0.15808985157732883,0.01698005312254529
0.004882816597759444,0.1283422486382717,-0.0021161694399544975,-0.013639752098004521,-0.025724888772258304,0.05470817017320058,0.07567336360240792,0.20524427128089195
0.02552649893478815,0.14808095606734192,-0.010536045982051795,0.028409635111406113,0.0823506704800325,0.18203171991853664,0.1058263838492089,0.19146671288584938
0.031624036061735986,0.16595452300099922,0.008371148461864375,0.02281030253874561,0.0530048367399856,0.16062877511807747,0.20621699044532776,0.11887154374561516
-0.00517962421874861,0.1707659475849158,-0.043536778768430096,-0.013959843947795116,0.02914824039557575,0.14367158818932874,0.1329284504642627,0.09040726884889295
0.01116592182805809,0.10227500269884551,-0.04549345864081221,-3.3430008980372614E-4,0.01712077511464418,0.08585652922995876,0.09436748818254037,0.22505750999603014
0.026659969081187063,0.21057414753198833,0.01486360901129049,0.04098223798570849,0.13003738447766516,0.151364125460414,0.13521414746223245,0.1934641187543168
0.02758601676418545,0.2480414188364577,0.014959918982286838,0.0016014135680867264,0.031576643476904205,0.1365297852130067,0.14921367874695968,0.23009017302010398
0.0,0.0,0.0,0.0,0.0,0.0,0.0,0.0
0.03239572102588308,-0.04533001027639505,0.02264865688185934,0.055406778737070554,0.13059570782628022,0.05757363175306308,0.0820048414995444,-0.14764639517685973
-8.179828724046781E-4,-0.06098073122685044,5.409151386358956E-4,0.04677360426193772,0.09476338539772274,0.04388186510008955,0.0805591422309886,-0.19819940559886048
-0.024115614316120457,-0.044680580597496466,-0.0046582641266629966,0.0026602099740692625,0.09978314098554553,-0.025744171410215157,0.024277774790613535,-0.19232005103106317
-0.032268994946531446,-0.0795410486334833,-0.036894584659312994,-0.00152199356962967,0.0490251026874268,-0.07008871604423435,0.006901294292240666,-0.05077028875848416
-0.02730366705165826,-0.008330058726770895,-0.011093632692913911,-0.00621527299255961,0.048023433122502866,0.016206780854122603,5.502175320243443E-4,-0.13730496187973176
-0.02881857910657461,-0.021485528634964668,-0.0075985633252623214,-0.013813515386147267,0.05655497490454041,-0.010853459705522452,-0.025736796134660175,-0.2560544046731967
-0.04674367797083342,-0.0847269888682829,-0.024835829609243368,-0.05707268602900727,0.004965003005348807,-0.026227572776194315,-0.04053870864733735,-0.34440310006440633
-0.022929440091666645,-0.003838149615074893,-0.005609401261605746,-0.0462842377173343,0.10938963615204349,7.859572555114561E-4,0.060167762502892234,-0.3700130035313293
-0.048501567144698124,-0.07834966770023802,-0.026223801512971406,-0.014651643116151742,0.052855241603071604,-0.014861602666789174,0.014602651296437235,-0.16031086306067005
-0.0483543540269677,-0.110696915731406,-0.05822405587183826,-0.06873341938283005,0.035136221038645256,-0.08845732974281934,-0.032481318369129424,-0.2519854821807901
-0.0251242081739721,-0.08950659716724238,-0.022948462689701167,-0.004684444970260665,0.049531221002400455,0.04279828691734781,0.08063247270456639,-0.18907489057688917
-0.01796083240947671,-0.02500558643043943,-0.0379262816539724,-0.02456323200995495,0.06162312500446172,-0.001994682459358958,0.02259795287450181,-0.17402745278332984
-0.04581367690315014,-0.155165719989982,-0.07296718977377929,-0.05962397177044554,0.02959048553091761,-0.07914171547700484,0.006540563471219377,-0.13033870384667842
-0.03461877040122983,-0.06474791545380237,-0.03288379989713192,-1.0811483066799563E-4,0.03912561253621622,0.0037934875699914133,0.028193350273545165,-0.18904929867058187
-0.02753187396741854,0.029286050855014123,-0.020800086361819313,0.005841052795060426,0.11596431944070204,0.047704523165338596,0.09941536475848575,-0.4224782899334389
-0.023208344375842335,-0.16011243506121664,-0.048280184347497236,-0.04990953769219883,0.11675361910466595,-0.022631282171402207,0.03200358589411893,-0.24728554751924975
-0.049928345118153736,-0.0780078348085203,-0.052696089867578046,-0.037999269278389695,0.059738469525476,0.02724678833021204,0.052670873339981716,-0.1591735157608589
-6.449366920779666E-4,1.6909020049498587,-0.19311540389507653,-0.003931689931307006,0.21355876109272443,0.13467944998122097,-0.03515785228352781,3.541623971619736
-0.030344332949093493,2.181926952141259,-0.21006584565309108,-0.03342850900033676,0.2065115108555965,0.08607451385960899,-0.12233346450057254,4.874575752188298
-0.028636249664893657,2.173829359393678,-0.2359262101888037,-0.09497045039337873,0.1805856887877883,-0.021504973200200672,-0.09267056479510041,4.892645203187328
0.01855563219565133,2.1741169334602715,-0.21437653109150095,-0.005531715796749426,0.20945994828910008,0.1174309181060759,0.010981173389366158,4.873147976928915
-0.034530239990167064,2.2368984254338016,-0.16246664363739532,-0.022391810045561712,0.20667442648745682,0.05501263875404209,-0.05102144150128507,5.139387224746535
-0.023408925768758564,2.2088691824086095,-0.23980332655817424,-0.0696488363557214,0.13895121222361684,-0.02033588995856543,-0.106849718084462,4.920670350338278
-0.009784065984598814,2.1963047324399056,-0.22642652099441335,-0.027677112757319447,0.20260058035714335,0.054839217870674146,-0.02737150004511297,5.0481092166180215
-0.031685653526593825,2.1622640066737846,-0.17380870575925916,-0.021494328674408862,0.1971280109495419,0.06430695553643592,-0.008848674631075743,4.992956835210296
-0.039267528311132734,2.2011733280747836,-0.2143288155532698,-0.017232320120136722,0.11059368668169202,0.0094819744797148,-0.14273475016741816,4.844424390647631
-0.012636387236432043,2.1792545153880134,-0.2318903122120459,-0.03692246479221361,0.13094795447747393,-0.005685228562706146,-0.09874617661347536,4.885010579592552
0.01840541157101496,2.1637215839830226,-0.19246752462514735,-0.01605611864824103,0.20710410319715272,0.060087600160612674,-0.017537464949164673,4.9179052965816625
0.004589645072248429,2.147430644202266,-0.1898150235692133,-0.028728360029346527,0.1747586169880166,0.07113921962348346,-0.04358170893628901,4.632952809751105
-0.031804635828420545,2.2000856372629825,-0.23671897212502438,-0.022899486427969254,0.09704872261046363,-0.01221256320511694,-0.17211854113808173,5.085093836427075
0.008580567815614074,2.247725286005469,-0.20632521842103688,-0.00809094331344877,0.21998102382677304,0.0814529018748032,0.006441385470459415,5.03118130530006
-0.018373034063396538,2.173614976147223,-0.23345901747986814,-0.003966684086309801,0.15785811937841104,0.09265809050369417,-0.04107655179528083,4.849919944312865
-0.009092604215702037,2.2168874424837175,-0.20697971685390862,-0.04259033607503015,0.12366977919917542,-0.00470892238709544,-0.12085299286599378,4.876776251927023
-0.004599486833007541,2.246736464838275,-0.18917057444987312,-0.05273049815552689,0.16881301673976512,0.04754757835401905,-0.07402651120106743,5.01347461709219
0.008534973367795698,2.2468101080918084,-0.19212989479902481,-0.014332548131830767,0.21308514963693787,0.09507225616670892,-0.045857636268468796,4.77635452799607
-0.022490606441357978,2.147149564758833,-0.2166338978941135,-0.04050469194625378,0.12288863013615127,0.08595080242856229,-0.06885489795177548,5.064660312852256
-0.0201336453141452,2.1525787485421253,-0.2567867732869574,-0.0470470975544122,0.10920541980501745,-0.041149169302287666,-0.12266685823095345,4.85493262772071
-0.003712634957109242,2.239234788102138,-0.1757695795938784,0.001007438750179775,0.20869166745430073,0.13852783548151615,-0.08110391115099008,4.74198676928366
-0.027709173612400134,2.1447863671231735,-0.2134428031784768,-0.04852577077976478,0.1919643675596186,0.08232145051563608,-0.10344087237344014,4.82410603934682
-0.03300299769641779,2.268268574010716,-0.24843546816747683,-0.08844360544101527,0.08302086740660686,0.04374254941692513,-0.16413377811902552,5.011420187902524
0.0029179926381741016,2.226258536160474,-0.20552805587097087,-0.05480764747742706,0.22609514381954626,0.05557996471280164,-0.09309106254050585,5.098722279071745
-0.008797715231773973,2.1680991909948606,-0.2365985861951809,-0.06795686808504547,0.18318642171609184,0.022179470120821082,-0.12460793876785202,4.925227155797689
-0.005071125377517659,2.2821498182433553,-0.21290427482528373,-0.10145759398592893,0.18190527244091165,0.016443426259286242,-0.14170050026375747,4.908602908261935
-0.00592418462022546,2.1789786061920897,-0.2107636659820116,-0.08362651320776068,0.21623317956978927,0.07873221771747907,-0.06611362576356343,4.935203104221525
0.023502914312736857,2.1591416994415766,-0.17894302151860297,-0.03998614027486793,0.30423723067622194,0.1009172881180034,0.025409833146735446,4.9719084200954935
0.01682030706609708,2.2704681543174208,-0.19096627899372692,-0.03986694844861085,0.256125722052991,0.13275833557930597,0.011361352518503731,4.96511408453182
0.006637232876191647,2.2275832742830217,-0.22218587425510475,-0.0935848515065989,0.22237089916945402,0.022529554529555268,-0.08712964577957594,4.840680804172341
0.0233252285710644,2.1962184944002896,-0.171701304083852,-0.05597050684038235,0.2853653823864157,0.1381816412823999,0.02713839004096475,5.063124988964641
0.008580428511426014,2.2181348611418517,-0.15959963401552044,-0.037517422547181815,0.27654116098294834,0.07486982866915334,-0.016218546256023765,5.094793156283434
0.004682587965276434,2.2049271683138207,-0.2149142905392685,-0.06231302546637303,0.20014176565822156,0.03580307851695543,-0.05982253572937404,5.0276775269338625
0.019536688574759306,2.2413315830160814,-0.1722213349987053,-0.062018533343006624,0.27522787588843084,0.09663908961864631,0.007655660496001974,4.8093912678831225
0.046200885355446954,2.216730857145488,-0.1758326704438045,-0.013362394673500396,0.3003748470710788,0.13009826750111717,0.008960179718659984,4.9618035846211015
-7.686876194333558E-4,2.1848891454156725,-0.18994932166086737,-0.051712016169903736,0.22826784444008769,0.09215485897315775,-0.08770132086148778,4.876772654671466
0.003079060481267784,2.1683582499443235,-0.22473857625155486,-0.06859579622231865,0.16083694368653306,0.022486748128437282,-0.14753388352790953,4.948916046240394
0.03131022701194903,2.14385187781794,-0.14518024014963343,-0.044391991594414065,0.21518264708810175,0.09962380781455044,-0.04593017471223219,4.999497659970637
0.00912835017616969,2.2089664090203645,-0.21388507429809395,-0.06455744520866057,0.19249470429806032,0.07256064250962582,-0.06943620334664474,5.006311551097639
-0.0030470297580027887,2.181850984956341,-0.23334570188734977,-0.08751330871578708,0.13076425016013005,0.017056289035230057,-0.12222609830757035,4.900562525611938
-0.006043993312559868,2.2165266506071135,-0.19939898015237129,-0.05425262890788232,0.21378198233253187,0.06211902635714115,-0.11891316475953748,5.082845455653255
-0.005979712598285246,2.2041299047745886,-0.22205909126260018,-0.06685266345361233,0.2091725422895227,0.049647308921117954,-0.14308176196580547,4.8844707845290944
0.004217548679606244,2.1799955332509837,-0.2565130497027848,-0.11973699005827385,0.16341065356498852,0.01465303307660655,-0.10807615425345991,5.087602337759764
-0.004585123415226159,2.211406633972119,-0.2531010899153506,-0.12378359972374453,0.1331084371381474,-0.0489256851438391,-0.1597103201656479,5.0007265621861245
0.008870157920776285,2.200464737636905,-0.23320296971575127,-0.12143580632975767,0.2042407033263986,0.05072908263974441,-0.1328936580557854,4.918813500861437
-0.01429271293365228,2.306753054609628,-0.2690906924452861,-0.11573437782647907,0.1499767872737185,0.0013635637094920397,-0.15230570285421025,4.89131850316848
-0.007059042538252194,2.2306685778668864,-0.2611880790186255,-0.1384535666971665,0.10779605791262821,-0.06393174978211315,-0.2235048703082373,4.8458173697660465
9.350244796599884E-4,2.2161523750405143,-0.22948815189076197,-0.0767707590153881,0.1834759832640228,0.028545224694592954,-0.09422934236202839,4.840056425270812
-0.023920829918374464,2.2008409293582183,-0.22714112160914107,-0.10729396491895911,0.11669574466921373,0.02998082758402123,-0.12584826513198138,5.067145128707985
-0.043100354136531946,2.273483754844267,-0.2777100298726084,-0.13794297182265855,0.11280374700332264,-0.05590193839795982,-0.26521703050287476,4.943673274832317
-0.008518678168189665,2.2275524435236003,-0.19204199326415938,-0.10144955214592045,0.21594902437126506,0.035677389744901665,-0.08994873303214172,4.8259544851825895
-0.0088955357900125,2.2208676014884676,-0.22475381653490467,-0.09074244582242327,0.17539300000240676,-0.007794629467248026,-0.1287213692155585,5.118462066281987
-0.01981239274921686,2.291257235765881,-0.28095207289962587,-0.10594189136786832,0.11674398646170464,0.021069439520045613,-0.12091172196252702,5.108752446298969
0.015471365970675388,2.3134233333014045,-0.24113490423415937,-0.07178642630502191,0.20621708071969647,0.0367257265846526,-0.10698853073419771,5.023030178651071
-0.002967495311582913,2.2587270007529163,-0.20158721154889708,-0.05393159028512305,0.24994072834936537,0.1003167405787222,0.04338113842691794,4.871953039654998
-0.0036425900520254094,2.2067180428771285,-0.21841915051448493,-0.07210141494254176,0.17702680321757808,0.06053453065994382,-0.07963872668759184,4.992865271978075
0.004148700647241543,2.2492465933471655,-0.2389399217192886,-0.06605506244778035,0.1999132612503577,0.04542906020308191,-0.08751647668418144,4.970495295925909
0.012353117292717528,2.274507338073839,-0.22118832327221943,-0.015561502808505484,0.28894333538723055,0.15277867406923792,-0.04406437598516587,4.896417508223344
0.022863952777981332,2.221042136829871,-0.1938062766604207,-0.029164891137619817,0.21017615368015097,0.09920003371661323,-0.01454612432310727,4.967121181609857
-0.005983746320768774,2.3025472929022013,-0.21634891073919646,-0.05114097106287527,0.2091337826191923,0.04893363897328868,-0.060494543535242695,5.138684151303806
0.04844133393884121,2.1320296683912363,-0.16272849522154445,0.05753737455646982,0.32721534570826066,0.19128650063103073,0.0805939754518505,5.023627325855152
0.03338332554598942,2.210851075898709,-0.1834842137985378,0.021222025958937837,0.22803161045719744,0.12556291448332157,0.004359619126424281,4.949517714265405
0.025978725992583517,2.281434856740983,-0.18144936051258576,-0.02786931129672149,0.20334822646012907,0.10283448866415582,-0.019478676070242774,5.206382846065092
0.03297787248379284,2.2549887683935776,-0.15038597561322076,-8.950517747594797E-4,0.23241567428936966,0.12934840851584686,0.007097841032223118,4.773625590954848
0.044745830593524334,2.2509343579486285,-0.1578272625403792,0.018556377393857494,0.26595490101203173,0.19870512829160916,0.09914713021956759,5.078279729836624
0.030008092769802597,2.2291196011090437,-0.1975061598473122,0.013283798073255505,0.23977063565722856,0.14759841448544453,0.032457631657210835,4.991966181473032
0.0049242204838622974,2.258137571672467,-0.19384200577064664,-0.03231831882052675,0.1687786625593028,0.06658529869920593,-0.04833920732164737,4.994792975740305
0.016633592210361002,2.1921014055519312,-0.15268517497631628,3.699155150943311E-4,0.2577703146896577,0.16025465325748467,0.013650772769297237,5.18200089390869
0.02531681373496257,2.235319537104666,-0.18305142286514098,0.015470556925025653,0.22393800409353748,0.10453666857601096,0.03015141693142177,5.0483973278872645
0.0024438949779125585,2.2241022120397576,-0.18195831847182387,-0.01744726890717274,0.21530148700333723,0.10199337791837026,-0.0650928511445829,5.152219078559555
0.022370370108389978,2.238051426085956,-0.1939646613029539,-0.037983505088763414,0.18846076446662208,0.10362077976791997,-0.05969633284025207,4.901444892864459
0.00921404171948087,2.1956968541439803,-0.1868563795149816,-0.03783713793326962,0.28973843361842,0.15234206560977723,-0.016034110783468426,5.145461330091785
0.005372345817313502,2.2888650293044384,-0.19711164411331877,-0.018693191570013368,0.23041094130673556,0.0724718082737095,-0.03516009602834373,4.927065499902926
-0.01705779176259553,2.2396572798235694,-0.21300807761794635,-0.10222383002179193,0.1615715533397606,0.0447172109109945,-0.12862546800443947,5.209706040920139
0.01421884912022927,2.2844700785777703,-0.2085953348515039,-0.0539289923744598,0.24680529028039372,0.183152722539358,-0.0045385492828579465,5.024566113506493
0.007181479598563342,2.2257316929089206,-0.1947923123099343,-0.06176490639095747,0.24994024448807073,0.11834764846454926,-0.08743635197833907,4.85889987300649
-0.013147507802186634,2.3195402756582406,-0.22474719733219903,-0.0895215704904401,0.1462035405949922,0.009775259619513546,-0.060955698486865384,5.162514927718984
-0.027836808787907605,2.2166546958352855,-0.22939262684481737,-0.11169861845783367,0.20202513630154018,0.07672523170334286,-0.09547672374315114,5.020862924093365
0.019653116831811875,2.2295633374589685,-0.20173796287031054,-0.06735543274984505,0.2734882499517913,0.11676408577895123,0.004082289195086014,5.082822880241432
-0.0017754600439362778,2.188252094254093,-0.202029592612346,-0.11049128848533131,0.2264314036038435,0.07481456357140165,-0.11571709003725762,4.875804441645752
-0.02695900862070341,2.257153295829029,-0.23946894128752835,-0.14065104793445102,0.14918984486539072,0.006479495339340564,-0.16805352240249893,4.957268944291976
0.00915557896107775,2.3086810023901356,-0.23314646187882165,-0.08245894645814748,0.264365936783905,0.11815128711318543,-0.0390648040301692,5.054434437793923
-0.009285292088199858,2.2688295731879853,-0.22932803119534295,-0.13118323212391084,0.24157413430379143,0.07476722789217932,-0.0609664683444503,5.20727926151278
-0.014713910992761904,2.2703267909729092,-0.26705517768062303,-0.1309937602686912,0.1786449133021598,0.05212436458702665,-0.0922804878782831,4.980507758623764
-0.041657191170701574,2.230570789638844,-0.2659504817322589,-0.1559531689876946,0.1487868727233994,-0.0034171594406670128,-0.14211204571624092,4.857811199133931
0.0014370330788230912,2.249516894614393,-0.24112145276636807,-0.14761308767894274,0.2640466813698242,0.1441838596360081,-0.05634928697398187,4.889337344096466
-0.0034758683863934346,2.3119597956976237,-0.24650352007846435,-0.13682999476299498,0.20641255073282205,0.08551951447887768,-0.05422177124414859,5.0095221083406445
-0.041348334680395324,2.3316138710281633,-0.28897228340967046,-0.19477995194109227,0.11564812376213615,0.017624281659963,-0.166524029649112,5.112811684800763
-0.016623852399774777,2.2559053533807223,-0.3022571913604068,-0.20320502351974748,0.19034818304152434,0.017303993509543522,-0.13416836024284567,5.039018971960915
-0.01946552067065791,2.2929552620918474,-0.3160938670803307,-0.15354283711040873,0.21063325300015456,0.08146730370847965,-0.05719897691046562,4.943008297170932
-0.0339009191988412,2.28186727447555,-0.24788817675878708,-0.1632076240853296,0.15373268771692117,0.014213549986869703,-0.15868136058098398,5.02017618738573
-0.04023665755466871,2.2536192634118906,-0.2847725914256457,-0.19477108749496164,0.11049579649330755,-0.04595409779778975,-0.18124112220786504,5.057326352419766
-0.027069120331821205,2.2985549892912407,-0.23738812951885727,-0.13034895295603258,0.1473138091242681,0.035124856805231995,-0.10071238756645404,4.951784763891091
-0.02297396663124088,2.2664921071538062,-0.2672950452803384,-0.1834611938039648,0.15910762844047227,-0.01025624602943212,-0.18584790541885277,5.101557858348467
-0.05595800510316467,2.2203651763284236,-0.3350442481528036,-0.19515555183289468,0.06893767956798477,-0.08686760238894678,-0.2697774305791858,5.205742574632886
-0.032535339858298346,2.259503859883721,-0.29122964922022065,-0.20279554660638952,0.07570118800348412,-0.0023319578329655116,-0.16507694451715765,4.942022454608894
-0.03640130181413852,2.2983148553833055,-0.27342324100201354,-0.20658723279044794,0.13377875765523994,-0.005985729258751547,-0.24645669277676163,4.919598148001501
-0.06049115937266767,2.2732760813697683,-0.29254945915881636,-0.17716115892431686,0.04513570492730842,-0.06966081164463174,-0.22884731834900762,4.963473724805823
-0.03937370697977434,2.2594106157321865,-0.31015329920430335,-0.21550766070910038,0.058620583271206464,-0.07620096157960116,-0.26285867557061604,5.1387804061919695
-0.027369931408525852,2.2136770559214134,-0.2770741531269412,-0.14922698955029848,0.17476327370777178,0.007744299939123095,-0.2440623434662914,5.009372596521628
-0.03555491112648074,2.2897109447225166,-0.2987584945331595,-0.1891679014165791,0.10436070978869223,-0.04729601619392079,-0.22702582378339192,4.9775675562708015
-0.019921072366626533,2.2663730149539436,-0.2978754465598972,-0.23481727136336913,0.08987841584848405,-0.09491220815020636,-0.26940332082608465,5.092023328364366
-0.008788291854094753,2.261539868123896,-0.21683613623125558,-0.12806279199136286,0.16545930181865898,0.09110435654887189,-0.08129285943891824,4.934067469826542
-0.025632764310686024,2.2634458531407193,-0.28532259016272965,-0.11905959433586531,0.17128859595446827,0.07511071739657829,-0.12846663109273698,5.106326181306693
-0.04437547886327787,2.2586072582670664,-0.31396834596441786,-0.17832752828407109,0.06179597234992363,-0.008458402337638012,-0.22690858704170763,5.231218519603531
-0.01431935346761212,2.288706996357573,-0.17789127659744,-0.10822157489823772,0.17265978515603114,0.012805941053269446,-0.14442080129428186,5.111025557055581
0.013880934284440136,2.3155797351554632,-0.22021378510756173,-0.1087092629360141,0.23293254389440604,0.07560170988631279,-0.03823924292379005,5.132727867593198
0.0,0.0,0.0,0.0,0.0,0.0,0.0,0.0
-0.019002833576435653,-0.005294044624666316,0.015617562834099319,-0.03498833128554166,-0.07708725623524597,0.03337757148599632,-0.029509230455964486,0.11763354729466258
0.034641062583931695,-0.05118434873080613,0.047022218250550585,0.03620756025118681,0.049776049437852604,0.12537340605927605,0.19547850912437875,-0.15877538539844593
0.018861455455195505,-0.0014184002701220777,0.05678923133541838,0.025994290114981472,0.05882505239393376,0.07555377032971401,0.15367557101723775,-0.038305011085783214
0.017426693026334983,0.012500462422306846,-0.022864220649599476,-0.019303168676280236,-0.07570012665088165,0.08719610416574568,0.09176950712363642,0.04383333647897736
0.02932174248093946,-0.026885641576150032,0.05988644628360887,0.0441178416748082,-0.013200083505136018,0.0654519108972995,0.17383149372144696,-0.11051435792824993
0.04096056087780436,0.013756008263019481,0.10082060490348552,0.084683101674997,-0.009011657716797128,0.1414994668703407,0.188987965050711,0.1531842490586488
0.034425931455254986,0.04532586725470633,0.03864780656461106,0.05224995004540078,0.006479620206717801,0.08293809334363718,0.17911284607484887,0.1557773204853259
-0.006891679874525103,-0.015612627452079586,-0.006653799300113061,0.012326751264668326,-0.06461978451958157,0.034926543246879785,0.08506473819123701,0.02195283584610319
0.0590015049975346,0.0018606970996311034,0.05066156565572402,0.08963046897537062,0.06284634745706502,0.16872720916042544,0.19893315695004687,0.1267906256350697
0.05296273823142473,0.039729446220245546,0.09856902384942237,0.06354851267085453,0.018237933279696278,0.19523664722542455,0.2561281495576577,0.21238225105646702
0.040177757899562495,-0.024091246623142215,0.05934280177618448,0.02481678295742812,-0.02209041503946127,0.09391386529031275,0.14726642462386275,0.011504445838339983
-0.0014346269479628242,-0.032505094539185375,0.031031824746357323,0.03754603388183254,-0.009383292107441654,0.04302073541645092,0.10405203736285641,-0.06254956695168801
0.04996135576398484,0.04420760038387739,0.10693532948947257,0.06524820513406987,0.06066496656582385,0.1805362057589599,0.1818334253871634,0.030718667843902203
0.02747381522458439,-0.05323938879968937,0.08342012377562061,0.016979430840591433,0.008014788045100502,0.10923297200798325,0.17244227081768582,0.009435308347882199
0.0031335253926297324,0.039189292996872016,0.0016029090910366917,-0.03603980367498427,-0.05808922337714664,0.03581934180796001,0.08367212543054432,-0.23433446230308252
0.01071299245861191,-0.057903951568777146,0.01805255331605804,-0.002151102274606409,-0.026701305710779888,0.059560769654486825,0.07114195039992417,-0.221520057303092
0.023587069521015927,-0.04760438047810389,0.021822342973774167,0.00893136891108369,-0.0018136657548755708,0.12337927338103154,0.1595401727386822,-0.16755730019509052
0.018903750127541023,-0.0324454543612549,0.03286455717316014,0.0021765492718452406,-0.03979427039371575,0.08189507038170045,0.160726162364861,0.04120643887486608
-0.02662552889241699,-0.06750212457256488,-0.025103138803120983,-0.056011742228989525,-0.11672856132949658,-0.054300228439692656,-0.02209913853798187,-0.014716969606872077
0.0017018830822621601,-0.04717737283037726,0.003770318785564386,-0.023545200011748993,-0.050354658955916065,0.06919962167291174,0.08488131234067962,-0.10150130482370212
0.003992215002966048,-0.029255830078930067,0.017927821968799607,-0.018808809332892584,-0.05133863921823448,0.012708698546918501,0.03118855641361143,-0.06793208138821694
-0.026254827240781382,-0.019016641930387657,-0.042994593295433536,-0.08412129648671446,-0.12174621092032602,0.015774168873884775,-0.016242799426762267,0.21763312652660982
-0.04026119260294686,-0.003049471869266629,-0.06681520250880241,-0.13379601887309164,-0.16108588425174616,-0.1542124733548861,-0.08122764161237175,0.09256520163669801
-0.03550632077777162,-0.004544650774584547,-0.038102366683619326,-0.10532665724095527,-0.04697547051936368,-0.046948013129681616,0.05313746209283948,-0.07357642098181572
-0.06774335954416548,0.07397738165214518,-0.05216717848432895,-0.1306827939278098,-0.11857195834737,-0.022165250859272637,-0.036557170792169275,0.1821211113873975
-0.04515380177067761,-0.015100291461414894,-0.12634252490047349,-0.19085816935658714,-0.21139333876697758,-0.17294420375846942,-0.129658367676269,-0.055473242992441385
-0.04896660017046675,0.01715540867707288,-0.0999892816311927,-0.14269317634765288,-0.16125772015991513,-0.10942838167949129,-0.0541406629428047,0.05664771365996568
-0.05212056951362934,0.03369549901953128,-0.12347737003492015,-0.15834173364831286,-0.16092464262938275,-0.06173112144837216,-0.06810526629949365,0.17596107618425538
-0.08313913651287227,-0.0370314132594185,-0.13509101718673133,-0.1947434799761905,-0.19369659106622977,-0.1727923665532421,-0.123700079367317,0.15036274009201378
-0.07149169574606347,-0.08439837955466256,-0.15293934801587444,-0.2480311130299789,-0.24640212638810294,-0.1942957910651656,-0.1592477969797466,-0.08852986070782976
-0.051998363130540945,0.0408066052887035,-0.0993744916716447,-0.18216465611861113,-0.12845895526948037,-0.05070459859294092,-0.13124753590664265,0.20550104247692857
-0.0632599681441732,-0.017879018471866015,-0.10815704627696415,-0.2055656670976422,-0.16696576487932474,-0.18297681630157514,-0.11623499181255373,0.0660998932619794
-0.07775989815867881,0.013247341079720698,-0.1353755354859954,-0.2340753945911713,-0.24450735350220615,-0.2141878646822376,-0.23303042642436975,0.05720692120831039
-0.07520952925473057,-0.11989058950683562,-0.1198390868159267,-0.19713222668526195,-0.22567691047924424,-0.21360626864114995,-0.177269614464772,-0.1487757312906739
-0.0858456366674055,-0.03967052222841483,-0.11122151085156895,-0.23070480306070787,-0.13929198625709902,-0.1836841753419114,-0.170571960074579,0.17820488948457847
-0.08572469219524423,0.006701866416884084,-0.14024279179624416,-0.2267203147130543,-0.22054874151450377,-0.24284410946143503,-0.21852534501573886,0.1455356831908583
-0.09812126587578929,-0.020640629417780776,-0.16458318632328195,-0.2657031357632428,-0.28695400981147096,-0.24114985441867703,-0.24329839325908045,-0.17564705533501979
-0.054571479585446,-0.031011299406300985,-0.12080303307848944,-0.21729430798319124,-0.15538438296774504,-0.15690448150937175,-0.13643624967676918,-0.04088436892186209
-0.09082084700141499,-0.02897128624540013,-0.1316346139816552,-0.24593392886632756,-0.22995630467745343,-0.20395483339658677,-0.20820183749545615,0.024380882658718406
-0.1244138555358571,-0.020415372778311625,-0.22166363657203197,-0.2725537956279219,-0.27166335480264825,-0.26285508468943086,-0.30344967450683147,-0.0655854877012283
-0.08408638070259722,0.04036731584674014,-0.10910113826227152,-0.19680941507294683,-0.18498069546556495,-0.2089129501039801,-0.20320058373450187,0.09740068136158442
-0.08258993410592962,0.025307628046687736,-0.15084126152766408,-0.233581776517398,-0.21721812340942132,-0.227146179560956,-0.16126913480682123,0.018682808840805087
-0.11362668128092854,0.11411956238543386,-0.13562830580261093,-0.24394307127167772,-0.2678788416987794,-0.24318264228059605,-0.2512903589054568,-0.013061352920064273
-0.0816426159515269,0.01602007327776267,-0.14402263111373187,-0.2479248081079561,-0.304107691537757,-0.23625101452084557,-0.2592103668380612,-0.004460698854800604
-0.09201516388389197,0.006909782890068161,-0.13593823764860768,-0.21438835670857717,-0.2577920139296182,-0.20761637647043107,-0.19279248246982986,0.09000098615209673
-0.11476942221407496,-0.08201868123851241,-0.18314117392810997,-0.23159629979644578,-0.25520083991114884,-0.28867657417883896,-0.2573341214924444,0.03398196582066948
-0.12970605343385277,-0.014703571229091494,-0.16136173463045383,-0.258453493608092,-0.3421846030330506,-0.3069453042532782,-0.34044712884298056,0.04449489470740531
-0.08168155014210476,0.050997902947994334,-0.10305388072259297,-0.23435122746412043,-0.20614247413218706,-0.23650436180878126,-0.22816747696807763,-0.10877773504467747
-0.10098243589931974,-0.020414150218541316,-0.12676868493625898,-0.24843678417803525,-0.27754934204335424,-0.22023426007102764,-0.22954921808123216,-0.09245832292785217
-0.09795458315743971,0.07648960036919616,-0.158069399758121,-0.2574301819837612,-0.29756073726386045,-0.2590947009667186,-0.3208942083596025,-0.05448303229208484
-0.0963957556092529,0.0010024161434536438,-0.10672983438544498,-0.19331559610654023,-0.18555119400107814,-0.20889132722209852,-0.14802690581394765,0.052849127351419334
-0.07728860821752137,0.04464931238148573,-0.10721695312809137,-0.23035669013272062,-0.27740339813599163,-0.22619516443639415,-0.19889817481117975,0.13878839668536447
-0.09638297476908678,0.028124843426495794,-0.12056292181862366,-0.23297470223415015,-0.3249780917721207,-0.28738112542116234,-0.26567370539817037,0.11742323500446972
-0.07920521743766429,0.1242746761922171,-0.10240320447215712,-0.19695882271457218,-0.21699148482883493,-0.14349388579633793,-0.16050848823609534,0.21817851693551837
-0.082899679558217,0.015830197619304265,-0.10232653795423774,-0.17065623636120666,-0.18068587227138697,-0.18823009468918872,-0.18809134353418025,-0.07360746109089433
-0.06664040473453806,0.052439511057992494,-0.14968567678450145,-0.18963315581666648,-0.2567831634375729,-0.1876224144686094,-0.1860082797652086,0.09504896367157567
-0.05779266887822577,-0.046115157034005705,-0.12302336845293133,-0.22150392381834808,-0.23242791739795193,-0.20174368236924195,-0.22619991683232651,0.04979559867948513
-0.044722386256154725,0.06663721496800745,-0.09499823073463054,-0.14552402400850126,-0.14258591577108357,-0.11169937117418761,-0.08108115312695993,-0.016630245083411488
-0.03802689441517214,0.05024612981115695,-0.11251028922051887,-0.17281505653374188,-0.18432941249213142,-0.14817753377388726,-0.15230130260690242,0.21252339085178207
-0.05923366899448312,0.1110458025815193,-0.14089354439861912,-0.19326184720917852,-0.2781026461436021,-0.21033165591021802,-0.19171138064250934,0.15839137488623134
-0.03508299007415018,0.041600470195408246,-0.10586900376467451,-0.1479048580929437,-0.1262063965803119,-0.04069339517395361,-0.036648976085131735,0.20035049303735608
-0.0501000772556847,0.05647249166997126,-0.09599146527136254,-0.16617891501508034,-0.1611776541255785,-0.11085206100692065,-0.12138711591689169,-0.015278680829077906
-0.058454982897429716,0.02106098391602851,-0.13760511958526972,-0.18616227763884244,-0.24736131268577058,-0.18942856128497304,-0.15749102716158617,-0.08700902016920331
-0.0222900584115389,0.04980256306436681,-0.07895995106805137,-0.1484021791978218,-0.1585379796881151,-0.09662944607273344,-0.09763244642709354,-0.05705530696457828
-0.0331116461341648,0.06798508913715917,-0.08127235936527782,-0.13665434270959623,-0.1797190050710475,-0.0824692483477309,-0.09809934912327037,0.0899559340650038
-0.049247934648042425,0.09833122307256259,-0.13246347887628707,-0.21666587786412925,-0.1882506785920503,-0.14179466453409792,-0.09173667483899581,0.05312145562631354
-0.04437633368922439,-0.002608951243227242,-0.09347705033493264,-0.14909496750812073,-0.16289899109817355,-0.16188292968434442,-0.11736338133021243,0.03907645395482362
-0.02756443643372627,0.012035045796924049,-0.08140468288231462,-0.14609397675201283,-0.0995070303534822,-0.05099354334899487,-0.04425097826641994,-0.1931638605478252
-0.10597281908996153,0.08528741743455548,-0.12488691044643968,-0.19293562097580905,-0.2067672172308692,-0.13907939875411351,-0.06968263966883406,0.1124567205088427
-0.0561959451982928,0.007329306311099071,-0.08771812455206818,-0.1732029872333011,-0.15637713765003425,-0.1242176910102596,-0.11645057053254501,-0.015851171645890894
-0.028874544166427128,-0.002891912850860212,-0.09841836170744334,-0.1287807289630215,-0.11637816197768676,-0.05660216490472399,-0.04334545385649913,0.23522411595386306
-0.023410601245674904,0.053418133116413635,-0.08428269097939706,-0.15551546732183216,-0.13851186493222012,-0.1493576899540033,-0.04797808785493976,0.10598205143983108
-0.052385224889940324,0.04511490294038589,-0.13112980443121558,-0.14806634461689863,-0.16420866759806796,-0.13334382722523452,-0.1121366182376495,0.010753434011997243
-0.013101214601941498,0.01666201678405388,-0.1057515623999512,-0.13625485745041016,-0.07708265181019225,-0.00836408787413355,0.04963209410411487,-0.1072714895187703
-0.01100654671869042,0.040752220926083105,-0.08326725250723815,-0.16736600525258902,-0.10625125635962876,-0.06886985831595047,-0.011454665120232577,0.25118268294886636
-0.04314626281898144,-0.05933851861549089,-0.15359377444767347,-0.18390814985965073,-0.1354256431208827,-0.13618083915846937,-0.014228076077503371,0.09078145781403713
-0.009222632967789114,0.0010378855068959858,-0.07151587485307387,-0.11148855951459696,0.0024202273549635,0.03207511105574473,0.10576860511123422,0.05434868725309716
-0.018344971176356632,0.0691014670720409,-0.07562323572328933,-0.16775691379628974,-0.07037213930678435,0.012948984616911324,0.044898497037791,-0.012989146892075532
-0.0437058899951379,0.021085667725339263,-0.12085016839437857,-0.17496400302571027,-0.09450047709973869,-0.05668598779578313,0.012999676055714393,-0.0859946773231588
-0.006000460820717063,0.06915420216649792,-0.12050444469662297,-0.11949670502568172,-0.0849688859738199,0.0027564918529320998,0.06739795641661943,-0.16952804067333194
-0.002773127555489096,-0.01420466753098859,-0.057303375506496335,-0.09452048197230623,-0.04662278456619501,0.03393985521155077,0.12455364594263235,-0.07471116978300163
-0.016689304873890434,0.05567511428425487,-0.08270813971685553,-0.12513784048708373,-0.07230213817549438,0.006388275440940561,0.02460941531554181,0.04060363579956405
-0.039010051318441125,0.1009983365351097,-0.11764468048832849,-0.15112804603148522,-0.11518748672631053,-0.04242998911510773,0.03637923761548112,0.008299885835569398
-0.0029762718594783313,0.013891654704139889,-0.046280245204550374,-0.07460821334081061,-0.049836123711024305,0.0850464233202858,0.13087532626053153,0.01498619397354517
-0.011994256223347165,0.03318571217383415,-0.05844964764258903,-0.1330331574045128,-0.05799955943106194,-0.022246357602252805,0.049393626454842604,0.14504669516056623
-0.026011750100773053,0.054529589789265476,-0.09063271052759114,-0.11478886160384483,-0.1186429255281935,-0.05073811432363147,-0.029641021780938387,0.07973052589282048
0.004965145217113217,0.06421387313744154,-0.031406829887614895,-0.08449297231441913,-0.01004550405913679,0.011987749244065149,0.09243105081739104,0.009798273619154863
0.009117005195593164,0.05183463471083094,-0.07284813107768695,-0.055627539680273314,-0.06639061714395939,0.006076628042968539,0.07670998853081319,0.08670706945620577
-0.01287518627446184,0.06696464890940979,-0.08703851430824411,-0.11391651976763562,-0.08139188113155398,-0.0817057078483491,-0.017323567000243595,0.0827900398533048
-0.018576230573361878,0.1025817603265633,-0.052730588186325256,-0.05409877596604959,-0.00453651601718999,0.0439504099395473,0.03529642589271528,0.16453240511232625
-0.0021126024744782083,0.0620894986785423,-0.019675612636585904,-0.07349616787743979,-0.05700192032502138,0.0374466000857428,0.05307900913987684,0.1388442617522534
-0.007523368876823337,0.02157855907803441,-0.09646721617249332,-0.04659188119962529,-0.1302757009304663,-0.03359203367195773,0.012183535944412738,0.18748520931104729
0.0,0.0,0.0,0.0,0.0,0.0,0.0,0.0
0.036827745271185555,-0.03044442457598384,0.049953873441541174,0.06118913222378618,-0.0012503660083048318,0.08577639481053945,0.05360801451605172,0.01266153875751641
0.026563636654676735,-0.06085627285142481,0.045041189594885844,0.05699802914993997,-0.03905639152716332,0.01796042728900471,-0.005413767892286633,0.33650356810257254
0.03568597785986041,-0.0544043847467206,0.05739187739931417,0.05626396283907055,-0.044770149433278394,0.01097563543508566,-0.06059357793005621,0.323768763092505
0.051535921670445295,-0.0776742415645586,0.06483231549493379,0.09137946232021617,0.030434474922508892,0.09701106707433871,0.0975207125189217,0.09252325393586158
0.05039998224610963,-0.018859952389356227,0.06929418643656562,0.06848282812776287,0.008147389713716174,0.04447501113516288,-0.009263859681681683,0.15313108787436747
0.022165602537822782,-0.0125803146064829,0.04526884252023938,0.029273697936417903,-0.07465462775393207,-0.007535567214952479,-0.11837563240121832,0.02578650886047651
0.05606949380270643,-0.007055466675908395,0.08139842754200158,0.07288125810517965,-0.024269921534744998,0.13295371434624134,0.03872261824492784,0.21003006242029265
0.03709315277126499,0.08438807864692377,0.09952132975052996,0.09534746499797146,0.02376788554806794,0.0634220686716635,0.0679907787959439,0.15582160486803787
0.03759143075260461,-0.007450873037228245,0.04374802925300825,0.06792154067693655,-0.0511653623318071,0.053816483958540474,-0.017139930934046796,0.029988744592428063
0.031152904041324012,-0.07299616115154572,0.07301010550188924,0.08560146156533387,-0.013074797239553099,0.08047681842128668,0.05215490192890282,-0.27045874255572944
0.007936396293012331,0.01717476389289674,0.08823917666570386,0.12427470481688091,0.030696456903359565,0.1079109985186115,0.11056022254148844,0.1947773982579859
0.0570783621734304,-0.04143685005286146,0.07000591627906061,0.06121696181326053,-0.06326799909131128,0.03863244571655895,-0.02858451909909762,0.105485798816221
0.01594857935632733,-0.03582893075997662,0.07389828688095837,0.08748502145397127,-0.03976621609867498,0.0108777834849445,-0.03798065183080454,0.036306029418581076
0.04988492014814738,-0.02055731958560525,0.07633957357059051,0.11555949669694175,0.07188660765160396,0.12181436113847285,0.05005582554712438,-0.22780826737844428
0.01525182195846964,-0.014576895642390397,0.06277265288942846,0.04020673890919314,-0.01723911410232426,0.07129073941842798,0.0011547759022620119,-0.15113096223884082
0.01707912386068802,-0.009814500691994965,0.026554891811570502,0.03212300722200495,-0.028114183741618393,0.03512857112663293,-0.03980587216920756,0.17383460010252172
0.04932424818193111,-0.03462402918103491,0.04587515586295948,0.0827428518214392,0.06829683041025464,0.08609752448222768,0.040856470349025245,0.12306127763444685
0.013169855597088682,-0.028309951529884803,0.022702676735651683,0.018594879773494,-0.021520673703303128,0.029860932414311078,-0.019165067533886027,-0.0339263496792217
0.011752615346983054,-0.055526418429059365,0.01283270842773182,0.0012522272394674128,-0.059941068157041186,-0.06408139392501924,-0.0661377161406276,-0.04549565818751233
0.0355874868344401,0.048573830186163125,0.07756551985279342,0.021480663621490925,0.018010741380578565,0.09281313951665005,0.08559382666399178,0.21986613743333372
0.012514653171941646,0.022480755719235912,0.0496191820452444,0.008139635067856671,0.005391049052645536,0.10044776997451244,-0.008347659641775945,0.1096741820172289
-0.01502518602390425,-0.06276359263231779,0.034048433955544355,-0.04954160095589655,-0.06372214933111837,-0.049315787507052136,-0.10061696570596129,0.1345941312291652
0.020767902750909516,-0.02529441999138715,0.05276730975611488,0.011300271090923991,0.007237260384023975,0.07887995135376732,0.08314901533448789,0.18065666734858077
0.01636589315621816,0.03424638462292551,0.03190001209785648,-0.023123807641812377,0.014342353188409096,0.07934739122259193,0.04109519219246979,0.13234613355729152
-0.0058925547739688295,0.012194342343248454,0.01934472849683616,-0.006293961031491518,-0.06532339464826252,-0.008656392006325404,-0.05782950686617394,0.05073470942431779
0.0060636629907667924,0.014223086235073623,-0.0031434618765857625,0.014557847833931409,-0.006870318903664296,0.06691421150455756,-0.008811906264795416,0.16921621931853448
0.007648104681089778,0.02189782598606227,0.007993828257416236,0.035170972945169965,0.04500278810848757,0.09764134196885416,-0.005070500486649157,0.3083784153683178
-0.005241156475809158,0.04429914043708605,0.01084640587293112,5.160548651512165E-4,-0.030517772172154206,0.03122230038783222,-0.06712450605068199,0.04922788824175939
1.0401833969627544E-4,0.012201131967984225,-0.0032454894220855235,-0.01448321710773759,-0.022407834912933494,0.04751808814961544,-0.0496952787079433,-0.04139503118039034
0.016881859160077093,-0.03614253288034108,0.021377978691577815,0.018371358583492342,0.07735777995007417,0.1055238109924986,0.10961867840099931,-0.11125130374744163
0.02529628547599762,-0.05234961954073247,0.0145016626091648,0.023234363232151056,0.014709390530953076,0.09195429126427676,0.012806932470526444,0.2536423293914023
0.010905463580387374,-0.035806301102547344,-0.004453857276194795,-0.011861620100277415,-0.01519877884719023,-0.01608678852765558,-0.02594169340922059,-0.006524491235830432
0.030326101050455214,-0.039564082546851065,0.05082254050116308,0.027952941561430356,0.07081771860107844,0.12598332984020424,0.08906914609706708,0.2675698909642241
0.01712382738430746,-0.005447696474972119,0.008181603520212355,0.036754042770837464,0.051175958175141395,0.10604974304933182,0.026438907817814536,0.03938164892795548
-6.729153786691477E-4,-0.07188095554679164,0.01037098998225433,-0.01466698622057827,-0.031843263703854485,0.050055308432712504,-0.01843707276944162,0.1773864101029332
0.02024843732098908,-0.008045320261924171,0.00819860373346476,0.01788044662447691,0.07560864305225665,0.08831667357705228,0.05900537312242507,0.036702221721272466
0.036230457503513724,-0.006025687163682125,0.019783774361623097,0.0032601046747283147,0.019438773482537725,0.10346552864178049,0.06295458801227605,0.1260427440920493
-0.002409386240611492,-0.034324659609322516,-0.0027892214468077103,-0.018386660016116246,-0.08030293424301303,0.03954150502520149,4.385454588792942E-4,0.010918131818195675
0.02167366358328533,-0.030522521488004717,-0.0010875731509132347,0.008963243872439325,-0.012597762637519216,0.022088282618007597,-0.0015746720628740107,0.015148123701740346
0.022417804264294298,-0.0441278843846038,0.02782838562019152,0.006649629997450057,-0.06203290037800101,0.07382340057010564,0.018879969898805096,0.2973535615297669
0.005336228442396767,0.02806050040816377,0.024757447059839066,-0.014924962849758222,-0.013273135316734325,-0.004103906759641427,0.0034781517265377176,0.2281150495127724
-0.012081009070976707,0.04488096723193191,-0.03904369017301851,-0.05155195719857403,-0.035034870503602655,0.01645145121932024,-0.0064981299891823385,0.06863466602772128
0.04343460170352388,-0.058349089467269355,0.0349605919969761,0.027265488322018555,0.04085937166374201,0.06311601992378094,0.03820031289601307,0.03531597823740551
0.019648767516062326,-0.04367255640092749,0.017488006233030817,-0.02200992126332521,-0.039700510323433,0.01559496285112183,-0.06848221032765259,0.3515955812774729
-0.005001521703997083,0.02970754521588148,0.01363974184172817,-0.04053394409661806,-0.08080725963164868,-0.012413106469330921,-0.15451817664820727,0.17257741018808037
0.02326498179108762,-0.05570393191013512,0.04896010526844363,-6.553517278540255E-5,0.08321341547176841,0.09632576829624537,0.06298337533425913,0.1559409156572258
0.01509265727918736,-0.06372915442156968,0.030453825628921682,0.04898325752319639,0.003344961141411612,0.04427402045258016,-0.01870805841926286,0.16339713490487195
0.021355874159229318,0.03252983415107735,0.012724051613676901,-0.03570977776728099,-0.05343373978613897,-0.01936784272843449,-0.08476530080022063,0.47652782629239
0.035588716487324173,0.02439802520337997,0.04841424157936053,0.02843311138671975,0.05893723653394575,0.13013529648075342,0.08837490032967002,0.06998661383948157
0.01259532171879468,-0.0074503153456038085,0.0329306762500996,0.05868408569337441,0.024750383548692384,0.14870823949951173,0.02997402496304523,0.35133482582745934
0.02848089232904909,0.03690811930865712,0.039024365966383145,-5.012916856841076E-4,-0.019718124210953925,0.05072635528949961,-0.01266537268552459,0.1607381435749886
0.03243728068738848,-0.02815953144140826,0.04293775315845699,0.01819226608573979,-0.008306713215928158,0.059275148498409945,-0.008277604189942653,-0.007306670279274563
0.046709598432191926,0.0382945019964267,0.10533186118301074,0.053556312517864774,0.06661165877397476,0.17475483441887774,0.050763407432976373,-0.005733693085975489
0.021790365554042523,-0.0548450573031003,0.05010577540377431,0.03181479628482636,0.02639591987047979,0.10536262593133039,0.018565332796121187,0.11860398717851783
0.03285743899063498,-0.04927036226722281,0.022023662035812186,0.023587338823134102,-0.001771357601079132,0.10498412288327377,-0.03150079871155087,0.11637323688802326
0.044701181580596994,-0.03950390546451965,0.08096095488736424,0.08363425369710839,0.11926319279769446,0.14584492929317802,0.17971823373956006,0.1580267116644931
0.03337202838028348,-0.01672756626561922,0.07579576566245397,0.12580298920841165,0.10130643193811525,0.134795349823857,0.03899095804283885,0.34859002257437854
0.052409297110035516,0.029096364498967464,0.057273218376784785,0.046556979732852624,-0.0563102798452219,0.0742346575058852,-0.017011598481020393,0.05229886076761048
0.07252573682450339,-0.0030085414782954345,0.10686907253322622,0.10384466832283729,0.11587925011891673,0.12266501886703268,0.07251391713716632,0.3182393639780541
0.06002048292498699,0.0028408013197540605,0.11388758272742736,0.0918903915299274,0.08375173893546672,0.17288998002080108,0.038437508352960115,0.09010939678249397
0.03403699689955568,-0.007925457732321117,0.0877137065259318,0.05378028132862671,-0.0157855668357387,0.06750414051363854,0.018715270114041935,0.1381426751571233
0.06393412712946013,-0.028345215086288622,0.09171772767490785,0.08404740471799928,0.040594869894238134,0.09134687602595673,0.029553591126336168,2.1348028094614335E-4
0.067535509458429,-0.027837514136384467,0.07159558823121395,0.07784831104189417,0.08590325314986991,0.13362193622754906,0.07477291905195536,0.08744009215096593
0.053105147551273754,0.06987748136843797,0.05207495957770547,0.06740437186092862,0.057564133916278626,0.12549315038818948,0.023803000927064832,-0.023592740269684498
0.05938852853481076,0.008115324420974623,0.11022879035881128,0.05807194600100858,0.056583888780900454,0.09830062050597516,0.03349324122183289,0.2488529467859273
0.07522504259668551,-0.03689945648973936,0.12288502403270779,0.12583108340728494,0.1151385417278388,0.22628029820183912,0.16329467573292708,0.16752049547202486
0.06537881343220749,0.030993665244911206,0.1522876975307828,0.11890562790141451,0.12349436776487835,0.19865619797123243,0.10392355732873024,0.1292406759048843
0.05569819680162738,-0.03717060474855405,0.0953526819725897,0.04829366438489434,0.021729220172312907,0.12073101308318576,0.04844507553322143,0.22369322408752712
0.07898581397893153,0.015828494909158053,0.11905242484297346,0.10391888770403473,0.14766032889449246,0.2841029475886629,0.20263296400575329,0.07121551839526763
0.07992062540428369,-0.025715646612238796,0.10215590248201564,0.11519525165357854,0.14273770548771456,0.21900350935190163,0.1189790709280794,0.0895588840752346
0.06635180365789241,0.025841595644485515,0.133956697903232,0.0820783844051297,0.11191992645649099,0.15353258307658435,0.10304254928849366,-0.00714598626911922
0.0717831242506101,0.02364353801575536,0.0998916698550272,0.11110344678461953,0.12390319684899251,0.18890876653237892,0.12031287589600813,0.027879508174267542
0.09166210443635833,0.04418515080423635,0.12077280540647081,0.13969879781058359,0.15662233461049388,0.23002825521095388,0.14202377884584583,0.05798051880634869
0.07720520446997625,-0.017252146320233308,0.08090772119425221,0.1167417082941162,0.12465516137954977,0.20522563088374843,0.09467035315706841,0.2370093837385996
0.05555034687051928,0.037834380008550106,0.10447955386350344,0.08238766215296806,0.03289873617604855,0.06788645434663323,0.02306244214332978,0.27634256060509976
0.08893939695085144,-0.03174082850192317,0.1147960858715405,0.15509123707035213,0.12700064230800587,0.2850598474893061,0.13092266294929034,0.3256156352938344
0.06613666960374384,0.010160571997944068,0.12108351872992304,0.13456628344203025,0.10205276058107784,0.17942409791150968,0.07721218006522715,0.1269229585790379
0.07138545208492446,-0.028134976295537406,0.05354079005697571,0.09809388802155396,0.06609092703849315,0.058055318994752754,0.042981000112325043,0.10742174448113229
0.05906356454525291,-0.02275981103237079,0.08026009460494266,0.12242910198438427,0.0934490161658906,0.16194087448916164,0.17066522112901233,0.1830953116156646
0.06920274288247406,5.780052674611014E-4,0.09457966731530187,0.12843558182875206,0.13449762674522073,0.18410090889480063,0.14470110510518214,-0.049915218607614165
0.04095514473760452,-0.016459274633044974,0.04202180184779858,0.11678200062572386,0.06619733205664627,0.14373328189490914,0.1251314164549082,0.08321731261343324
0.03601072546608844,0.009078671166624641,0.06540381097981834,0.10003851694588992,0.03788643598665897,0.1540094439006642,0.04551763443634471,0.17262708165438756
0.06251096200653727,-0.005838507799048376,0.07995601389112622,0.141578245496508,0.10239791531011441,0.23106191923344493,0.12523616705599408,0.19125856747515435
0.04997836532942096,0.03909105921164269,0.06656719776056,0.09129025630058632,0.10562788528193709,0.18596637512285763,0.10619989391609708,0.18404514389479676
0.020274251421896258,0.022222390975777273,0.059343466856627364,0.06234062210571151,0.06288713446150723,0.10528875620589531,0.02791477016370139,-0.07961924736291515
0.030867159661293723,0.06456925050510165,0.10141868408380303,0.13908606985627373,0.18822724227410134,0.24141511824676354,0.10005887556397142,0.34867517369024714
0.0525990792146548,-0.06206055670948585,0.09656300689277147,0.12955327660906263,0.1877021949612788,0.20112203018434288,0.1653824158859033,0.3732715991374569
0.027932729805770582,-0.004786447041939201,0.0835970878145384,0.06791002396830857,0.07359291527275089,0.14915578647781727,0.10577249005769769,0.2281885389103948
0.013872559002075933,0.07271168993153632,0.050721396217568715,0.07093582424705168,0.08064002330659442,0.09827385974391054,0.050678027872556784,0.2624249951144879
0.06891673854798974,-0.017343793612277558,0.11548910239849258,0.11047311869924023,0.15464034741717228,0.2329811944025897,0.14224291307812806,0.20090593091647513
0.05619160905822952,-0.03998845247486793,0.06292904556116849,0.1245917977195185,0.10876355911096516,0.1998726366720313,0.1662722843057613,0.22800853105324936
0.024784629890571907,-2.7822374424202323E-4,0.03433522641693343,0.05429793500239351,0.058104674642322884,0.1384449450095527,0.023572688915188295,0.14283524309351492
0.044322759974521925,0.004499565120949178,0.0956419682092852,0.12500023522480333,0.1577363189963538,0.22534021868037002,0.18006127867895122,0.2327116987611051
0.04946707663323162,0.03837800665962199,0.13884016261037108,0.12393106912937082,0.13770622486226206,0.222211920355736,0.0656283628703638,0.30957306705806786
0.03320532541780172,-0.08350822007047576,0.04851469095719535,0.13569592012690512,0.08348348925666443,0.2197613803082443,0.11343176499657266,0.13475975748093916
0.04003535183358342,0.05486782805467838,0.10630554240938114,0.11312409321130999,0.10436874250142539,0.18625904435009946,0.0646550779655865,0.1440163750667054
0.0627742915314268,-0.029099041053151087,0.13921308956546607,0.18305077383123394,0.1275474446095449,0.23208266787846787,0.13928566989738125,0.05386651786310459
0.04978792530157303,-0.06794095117006682,0.12004436309341054,0.17411206060353243,0.10442618089611269,0.20940658852641406,0.13131837675009606,0.23919007311734664
0.034640401881546004,0.011674976682044758,0.08431188271154377,0.0980762563140756,0.058724084070879784,0.16319192255804696,0.06404594545393011,0.23420329541252372
0.0630632047487524,0.029261251040183733,0.1380771235132425,0.1722701221011022,0.15796888693231745,0.23419148696273018,0.15288165254656327,0.1937270063761618
0.054619989769573746,0.010715843722498786,0.13916757068856378,0.13934539599071027,0.12785333973247484,0.2472232571155602,0.2204930970595269,0.04139501646725385
0.027030663008042726,-0.015709349345020218,0.10223415304294062,0.11792470412296466,0.04942113487909627,0.16550046699149007,0.07593992989164616,0.16620953120289084
0.05391148702837048,-0.005411067183000551,0.11198571859680873,0.1636344211094156,0.10342725898267571,0.24864326187687807,0.1660095506774932,-0.2113990981898306
0.08781985399029128,0.03448792063910178,0.16723833316478248,0.18134726541604274,0.19256461417482,0.31256206446777723,0.2210775451220917,0.3135052163176715
0.0623789803914524,0.038128591510989907,0.11086174348918221,0.16008684764914932,0.14074251088996506,0.25056277631904267,0.18042389059326291,0.12094163766685906
0.03644574406441098,-0.024635130847795672,0.1286045861316077,0.14690904528529855,0.08288277121926088,0.1471113248409926,0.1017610671946652,0.32688793722625054
0.090542362562441,0.03188441220945837,0.15916920962592,0.2089008296121242,0.2399630046324435,0.311633568526026,0.23184063120903337,0.19967286610150925
0.07416517316833766,0.053093085101699966,0.15429825573860537,0.14673467704277382,0.1502437488173156,0.3013926496257091,0.22666348258394492,0.12814393373739996
0.05102401806463355,0.024310688154309812,0.1319333703840415,0.1456321821810044,0.11877859620095113,0.24480816948442818,0.12585013508095044,0.07798171832831002
0.07754494918155731,-0.004756773985832741,0.16114259402055822,0.15509821225565087,0.1325021444347095,0.25885437384847565,0.17372837742946706,0.15972754384103993
0.11870342445473202,8.477280078840188E-4,0.17923977671314253,0.18089943068883474,0.17658853375892267,0.29250199082952194,0.2578518696408524,-0.005802498197577499
0.10219615182153646,0.04978762641546641,0.13612750864128198,0.17138441727485418,0.1774472727405685,0.23806017830546428,0.2047682241518547,0.29096365961376236
0.06291648923723137,0.09891715957419445,0.1437774066402547,0.13053882792819704,0.07776458809320239,0.2188746858329865,0.1401116245178649,0.06734309271680594
0.105069681902018,-0.02321651789014645,0.1676319702803021,0.20259891952976122,0.21836729856169082,0.31104252349200523,0.24888166428847122,0.26662384064736244
0.09212086570532117,0.10280114553775421,0.13395544995772565,0.17486654214336306,0.19040334010099816,0.2428743503591101,0.13814359655605096,0.27928410829322736
0.05333120824109279,0.030875121781885007,0.12361289686255286,0.09348230657478172,0.09014166281005676,0.18799058935874594,0.1073025951299448,0.29566539107825385
0.07539850121818768,0.031358009244541574,0.13079169579537694,0.16131452292215123,0.16939442830340787,0.2825971308147418,0.19169543000260014,0.33591190272186555
0.09505555326996598,0.05679623806792522,0.1117495144166901,0.16981901409503053,0.15703830587517362,0.2832029397794939,0.2197164441734638,0.2359133784901779
0.0526269131954009,0.014735237910920684,0.1227066330441883,0.12425965275581824,0.10907057873386042,0.21560361345600806,0.13267922673284635,0.2688724814972083
0.06398443185738929,-0.03615288881228462,0.10294207078799492,0.10778969968290963,0.06687664760683587,0.15920200439103044,0.11240176514880498,-0.07044434119241672
0.0784992267802869,0.03039850581878545,0.13803118961157995,0.1337237406016713,0.19497784629308904,0.3065302508129383,0.19230940924290185,0.1105825395877078
0.06678001551450825,0.011372646373535744,0.10361693655639634,0.1300988706451882,0.1732182237897362,0.24726808531390942,0.16263026503030853,0.27790858887276215
0.06299057930097138,0.06974182018944264,0.0930679698412697,0.09595888925234775,0.0733967296311524,0.2225919874015516,0.16338144253541048,0.41042451344485187
0.07337796468993195,0.05565747571036184,0.12682708820357005,0.12613684668482325,0.16993839788115453,0.2837636090665855,0.23250812953197456,0.4416781788057609
0.0,0.0,0.0,0.0,0.0,0.0,0.0,0.0
-0.00968951261565662,-0.09018962633008698,-0.013367785789934555,-0.030521284162856148,-0.04023589197130678,-0.05475022443790972,-0.04673024639756044,0.1611859535606266
-0.020527503823768542,-0.08733442894324783,-0.03670253131951212,-0.06286392876645389,-0.08421404502600216,-0.01627835327854138,-0.13098293236755762,-0.09642608783293038
0.009431475290609365,-0.08692302119774542,0.012620901220515346,-0.016516987325979768,0.07518042632014355,0.05805514135570933,0.025201762546087886,-7.347028034176972E-4
-0.01368475157020227,-0.06817057199221699,-0.00735544716306516,-0.03935392119809103,0.003647813656015908,-0.025554241571160763,-0.04212073621997102,0.2172988248070462
-0.034319944521852316,-0.03943862339882198,-0.03359172305790656,-0.04490920631438726,-0.036916933241563976,-0.09431129834537236,-0.08941225118005158,-0.020828322328164006
-0.008970109963650219,-0.0631424901256552,-0.007686259918069732,-0.032652636990249846,0.026715534760557158,0.06613484724579244,0.027467681320403947,-0.16640126441328196
-0.0074054356007626915,-0.037493880001740365,0.03632503519923269,0.013465304931058256,-0.044938622791154514,-0.01732710666520787,-0.010570363409088915,-0.09682897164980364
-0.04557202443037596,-0.03152956180152389,-0.014515445979014496,-0.03558729887257156,-0.039489580755623144,-0.026544451288898097,-0.053580200590065755,0.05997153621740736
-0.017933262260093813,-0.15769917034201564,-0.01994730601933073,-0.028392555506061352,-2.0970364566103017E-4,0.010394460941624883,-0.08565720137128283,-0.08082372456141229
0.0020906711996304395,-0.03867815335624192,0.015834748632806844,0.03128821107559864,0.030037031082399968,0.04674822367204434,0.0748135869575143,-0.17352592548480583
0.011758845038850177,-0.07041907767888045,0.0012098125621646805,0.023957507108371433,-0.012124703986054863,-0.0031583560167129376,-0.0018388391553496725,-0.07364293185095683
-0.0235449775829909,-0.01686946110936649,-0.021816204756513746,-0.05720033697014689,-0.048879985422947914,-0.07371948661145372,-0.05853188070521137,-0.03856846968819827
-0.01557811845993945,-0.07314158812598892,0.02383311489004658,0.001583727870367816,0.08428959180329243,0.14474931275021719,0.07338440958140582,-0.04170707146881725
0.008452730974450554,0.015068696478405474,0.03438337074495065,0.04619417545503076,0.055698145872908555,0.05919844402393748,0.03747085330983396,-0.06306796450493479
-0.027050404128750427,-0.025533238555922377,-0.0032646195505189046,-0.045215581412351,-0.009749438316565218,-0.03859840942292159,-0.06059507716056592,-0.08431659128841407
-0.004122260643571532,-0.02879772779173173,0.038122217140218934,-0.006410891427707966,0.07375423664189301,0.0405239420693132,-0.023379880189396685,-0.03827159734667074
-0.004560346536052182,-0.02725803850524766,0.03939814735210748,0.0065935379505665925,0.046778639350970985,0.056511707189678684,0.04271937385120489,-0.0586636063480892
-0.024636196113736075,-0.03545271706602726,0.007508036590992195,0.015219885058328504,-0.03159757306648775,0.00377502076697922,-0.0032472819718657175,-0.2019896005574271
-0.0436758596210999,0.043997534780233494,0.006795793180252141,-0.02856621946596482,-0.02209758101598075,0.004599889559899484,-0.07879980441063994,-0.10667305979095065
0.01433079220856788,-0.04714545583870411,0.042377484717646574,0.047606702708133726,0.04085772638076646,0.07977553114714614,0.01450633667419822,0.09133390346332071
-0.009068816176227096,-0.03233932679155149,0.0554285526876534,0.023349439963442707,-0.005051128670696681,-0.016256233441414303,0.02518811114153749,-0.21840008911831266
-0.013622305564806425,-0.057554459978440775,0.006121084916322989,-0.00878690195123411,-0.051568973812016916,-0.050229936830171046,-0.09839195542140249,0.09600115883063243
-0.008735440464810215,-0.04764469297295104,0.0022418131287912924,0.02814020841951411,0.05840359354296881,0.025558759541950582,0.02594321106470651,0.2003434586455093
-0.018203983778163055,-0.06369816482238866,0.01607824187473153,-0.00895415371890154,0.015865676688827157,0.0035199979456161934,-0.04904849139906393,0.05704028077072998
-0.007785955915392426,-0.011650638574129513,0.002598764824490868,0.00687530545730642,-0.06023872531495916,-0.03845819744913537,-0.06159907233417954,0.07465876532610505
-0.009175354659743187,-0.0693571475727599,0.03034947428911758,0.0184530368438912,-0.04212560686795719,0.0024723728211510365,-0.048748757463957175,0.04186007512112777
0.009372560180306841,-0.002877381334547291,0.046781248552632076,0.019693478226256216,0.060405486183088275,0.055987116475735565,0.017585344866602792,0.03526891430021273
-0.02999599065269916,-0.048075466338576955,0.04397584557504783,-0.00686632428805164,-0.027497089101865158,0.01542984164868988,0.03335892484232028,0.14947738527604937
-0.02224969173575972,-0.018994409262266476,-0.008610227199608106,-0.001541587718839237,-0.02531903283559256,-0.004318969112356852,-0.06164108547517882,0.04943414461743778
0.02414978973591954,-0.013024971709058253,0.051610717982363136,0.044019453683424595,0.12027822586463427,0.08916331940873201,0.0664715948775721,-0.047372857498568344
0.021919083856769994,-0.032737664122465926,0.02447094141285422,-0.0013612982974855123,0.029719405698007295,0.06061758040656606,0.0089791754343891,0.1385451696797908
-0.014062233455303524,-0.020175269195222167,0.018093536764417995,0.007489044248954154,-0.04118345567115733,0.02189594071335227,-0.02971236527349108,-0.11136796373729219
0.027329779112497857,-0.0068224521249518055,0.06358802707434749,0.048475021658426,0.041350837156891584,0.06370904958959517,0.10066811222437097,0.0851672272376609
0.00848311741568919,-0.044253911455879535,0.038836070400574546,0.030598813033286938,0.0637690024021425,0.11221905278761624,-0.00475208625172574,-0.2759769249769439
0.006815396595737502,0.005614973193818873,0.006930462545443605,0.02279550266952677,0.04870975685521711,0.02319393749662485,-0.05713861022146711,0.09852823832994151
0.0158094988985005,-0.00891159152246912,0.061382017703689784,0.056388108075043464,0.050728427883858285,0.05294789363877184,-0.03157091699235931,-0.1431351747173455
0.03258439050548605,-0.04385240942582369,0.04393678015021915,0.06395305450340145,0.0653666125616102,0.10093174086208917,0.07619417028728956,0.3080802576219952
0.017692676733349372,0.03722898143887399,0.01681713385049588,0.02510674050471138,0.03357158745387917,0.07055546371901661,0.03797867827713092,0.0038706422888585834
0.012418617216335193,-0.05781416233096337,0.02630878455260746,0.002636707775473055,-0.014328887580240035,0.006558407895771778,-0.002177904944474146,-0.014515948183876581
0.032611961817202315,-0.01478805180931353,0.051976981297846475,0.053261544243551014,0.11273556968658743,0.10953094840418187,0.07272218413245513,-0.23842862265796683
0.005613553782224612,-0.0722658625891639,0.055052943929426446,0.0431981874504472,0.020841635694074545,0.11931092136942428,0.07131583961588889,0.07426421776922965
-0.004138804980319863,-0.04844214968691318,0.019598486392326253,-0.00255551004761842,0.00933395655520547,0.007791928193228381,0.01380710120031406,0.00789278352907452
0.02896714533834939,0.017200707266026072,0.09763158094121446,0.032164671185694736,0.07369297701301997,0.06990354047750807,0.030389387340602064,0.1300207894930141
0.03124233960241153,-0.026775480442521093,0.02946834625844935,0.06527601158470069,0.08202066288398613,0.08201258925045829,0.06668695041088502,-0.0816017647262326
0.0040464367663130135,-0.044664044607223286,0.036555752396701335,0.006461268944981544,0.027011695498926125,0.013019792605561742,-0.014116815328588828,-0.05968861599223718
0.015039802317564674,-0.04124909564385071,0.007998471808261048,-0.008699148891108883,0.004717107342995852,0.02553399789893651,0.0025806966482786603,-0.1262857238330346
0.03145732171474515,-0.015229866536582204,0.027656449829957713,0.03912267367294143,0.1111474938857191,0.12724197235918933,0.1250645203287044,0.12828594266849613
-0.011877779392339347,0.09762426620130471,0.02836297651252187,-0.004869512666002156,0.07083674988113425,0.03277914322981168,0.02431469632734845,0.02498139701891411
-0.00720314992034303,-0.03447379072394341,0.012815914878253398,-0.045219436627883795,0.011617698636495255,-0.038382174187111484,-0.06668093804203494,0.2183974068856438
0.013038487368058196,-0.07750436707262676,-0.015220141958704081,0.01986844406887696,0.07778547276774472,0.138008167439302,0.08102294442791194,0.15331809719569467
-0.01837800074433224,-0.010898318285773811,0.02705492387564612,0.03831615719779218,0.11834375876432274,0.04411339815052001,0.05118140100384039,0.21886495694453867
0.0072547580203132095,-0.02938379510208744,0.0066051544064203715,-0.03108148177508885,0.011714278742997575,-0.011847827644133113,-0.08611831054074809,0.2457752184078288
-0.011678756491084505,-0.02358497041245533,-0.007042186372032827,-0.0169835795116867,0.049446318255671085,0.0071358035292732325,-0.061480141705976876,0.11355880041191213
-0.0016679388693255914,0.04013366709038291,0.04675658167896504,0.005588031059390278,0.10829605511473372,0.10591363251687791,0.01007809409892406,0.18044322002323643
0.002564038091724008,-0.07466392922335618,-0.0037564185174567,-0.01862009690326233,0.03765798380026841,0.04675993993893357,0.029507588372978927,0.22305276549067532
-0.02747720917854228,-0.010891803425872482,-0.02325370978378713,-0.07074604304941777,-0.043887044211900206,-0.06204719009254184,-0.0969481590158781,0.003061409207044008
-0.0037417741130216092,-0.008457596651873622,0.02378582853045355,-0.013475219760598805,0.08741971158679313,0.07303404113663575,-0.0036458508090740638,0.253094447615287
-0.00561617586097353,-0.0172303008084449,-0.00479952373936271,-0.048366962141563656,0.014441107998269698,0.07152414791673334,-0.02473037796375943,0.13608741431008742
-0.03287826943489394,0.025389009495368597,-0.027537595078210103,-0.09410286389357755,-0.013845191472866447,-0.05416404700954758,-0.12074505027751933,0.1985317642240947
-0.017174663906438112,-0.083144902794964,-0.035104860602012816,-0.04830632858451188,-0.009845147069457716,0.05246907999810285,-0.015498307747044512,0.03603973450056408
0.0019670948361753676,0.041954057397038724,-0.002367077697609188,-0.015760341096254647,0.07490406172502995,0.07012767682893822,-0.011257486633950223,0.18653972077181802
-0.004982633824389418,0.01112272151831828,-0.009470954608426008,-0.0588319653856386,-0.007294946154096149,-0.019873111573665003,-0.02714902869334404,0.2378356389551577
0.0,0.0,0.0,0.0,0.0,0.0,0.0,0.0
0.03361086805175115,0.020186539906032586,0.03572750398277183,0.0820935881885059,0.10177192567946408,0.15121457641093927,0.07890506275887495,-0.05621344614857371
-0.0013629917896969823,7.959304041671444E-5,0.0397621562047378,0.0556359358827868,0.04645204322738383,0.07149918614759243,0.1434950590980607,-0.17261415831916604
-0.01843665695165745,0.01713564679375068,-0.023528270427596587,0.023571909168724814,-0.05761066711001023,-6.435318715391491E-4,0.005722133286672384,0.12112428186198176
0.008748853432646198,0.0024748865637973516,0.0011504443780063212,0.07555397483952894,0.018980361491834574,0.09852243931971605,0.0988741806531776,0.12855331393063274
0.009277818768785931,0.008725587429434079,0.0206159227553247,0.10323945431612865,0.09398266184303328,0.15892599654697054,0.13367330319384121,-0.05928090551244303
0.012643085571097223,0.016000295233232098,-0.0023079601251473347,0.037334416376025484,-2.7649183605649164E-5,0.090473676039938,0.09139828279708444,-0.43822433404279426
-0.03449652059381983,0.007928355072215343,-0.05460053497066383,0.031225656633077456,-0.04422922101671273,-0.01672284039055505,-0.02107061915446235,-0.21962896676548915
0.01936558821997486,0.09836075267904665,-0.009588326237710082,0.084246976194743,0.08742633652167836,0.14665625879948652,0.1470420850685293,-0.06014219405716226
-0.018187244286112833,0.11930272948530574,-0.03411464344810139,0.06378341550667205,0.004210622148104248,0.04171706396364305,0.04018257218832715,-0.04870023056902362
9.481161597196391E-4,0.07595002730595812,-0.05795263235692019,0.027341018623020366,-0.07240154406302027,-0.04066581432733704,-0.041077281493240726,-0.07696263446816509
-0.007267068709012017,0.1098897528308429,-0.028251565399032175,0.03375173818645101,-0.06041535747113058,0.04700342385482886,0.002322284979160101,-0.15972521458072997
0.015430945842449834,0.047868507690140394,0.016926997037338937,0.04784269248734434,0.018648237719674388,0.08019280363698694,0.031640739116054924,-0.006932034890761329
-0.03430431246525946,0.05182860471772255,-8.379743143644147E-4,0.0633982564135829,-0.02690348221447203,0.0465777663772462,-0.01842902719781285,0.0691764483705457
-0.030099193985780696,-0.01011609281140391,-0.07390283979424292,0.01154896367714113,-0.16676835136996865,-0.06481638733252662,-0.006990643633023158,-0.17563427724786163
-0.0028401471470604484,-0.03279639311531257,-0.020726009038557175,0.05912127861644285,0.04518141113283025,0.08203546589367,0.16524194874690218,-0.15308372646105362
0.004548088572280021,0.11132295859262031,-0.04267824374686585,0.006181891492041014,-0.03554701238045832,0.06541189976648248,0.009708353702492964,-0.17982856609793085
-0.019175231264645827,0.07768998385615378,-0.048768595915495344,-0.00682708028760734,-0.1382284647889313,-0.06270230614748959,-0.05757435553597242,0.07798818601148394
0.0016461793512148604,0.08636025813122661,-0.048296707307021486,0.051996772787940286,-0.06377887852720521,-0.0035349092109806246,0.04259190340123815,-0.04897523008781324
-0.010132954900683562,0.026923403964993042,-0.053232331030372865,0.014384465726500026,-0.01827650845368023,0.04634467846407703,0.051437305753554444,0.03860235544989621
-0.005671752195680432,0.020923589145716015,-0.06743966140838079,0.02322201543535088,-0.13638105853489757,-0.018934066826219426,-0.025100894423406774,-0.24457694400130237
-0.021815326618971655,0.07189506714215366,-0.021509669966698786,-0.010617581842000165,-0.1677597924033424,-0.08087130906683479,-0.08421925906542427,-0.014474977858041527
0.022934022374364538,0.07535209478174298,-0.018343340017314858,0.033042140663277195,-0.009555921522556965,0.08167634608708363,0.05114026162862639,-0.11452149679967505
0.008608352948578354,0.05396162135764904,-0.04331344412475477,0.01137275594285074,-0.07856293002314008,-0.0052142505175387655,0.013220453609484324,0.15940764805456187
-0.0388114188279748,-0.0017716634488587069,-0.07657560700378016,-0.05256425026219347,-0.1460859399758412,-0.08654084401325893,-0.1026940750880779,0.0501932314124538
0.008828024565650697,0.018969051173699736,-0.05732626724512449,-0.0019156878162693014,-0.10033298282388667,0.014426732843714762,0.01634452327625767,-0.006477271776156535
-0.009274611859810114,0.01291139216348558,-0.012610282083990093,0.017429726982117644,-0.014866227846722369,0.046766417924789416,0.027144650571161562,-0.26038787665029606
-0.011208965617418722,0.07410980219961161,-0.011886379515365753,-0.022657740017329397,-0.13436358531813702,-0.015149753010864297,-0.02003162477548353,0.06758174774358938
-0.04017827101379337,0.041118232317757464,-0.06874101874319635,-0.014075645042597132,-0.1753118721696282,-0.06287997177560761,-0.08146775458575216,-0.24491538573613347
0.00907066337897472,-0.01895904188489661,-0.008358185183786865,0.012717596520651922,-0.051231007799334705,0.0274202177228558,-0.01868009065674743,0.02286099404309283
-0.029006139651258575,0.05495377885693209,-0.05963156940008621,-0.018012431209579974,-0.06853988475244116,-0.08287513031572127,-0.016779452843342972,-0.05367779557971897
-0.04246627782317619,0.04257753184804125,-0.0850011116584585,-0.0806470689026757,-0.19589558905274637,-0.05517575505621708,-0.15658017908985528,-0.13100379501854675
-0.007645107858077621,0.13540495932854446,-0.046852736677306966,-0.012688598033769025,-0.09011691235363853,0.006020347080953226,-0.008611741901225928,0.09382922864870391
-0.01242573497659892,0.05041733549065075,-0.061082568490748196,-0.017755570641376534,-0.07853543024379023,-0.031969121500520614,0.0594217605715213,0.2088081222255429
-0.030727032878620872,0.07633124460708629,-0.07576211814861458,-0.05110385854370872,-0.18977345909708795,-0.05336183881359616,-0.08142396176135724,0.1176596786629478
-0.046907581418489566,0.05913846247001642,-0.06955395730530425,-0.06708082988499978,-0.16418942610796303,-0.030283838760649662,-0.09433514046111177,-0.010711943447994976
-0.031270029867895455,0.03109635119043963,-0.020236381940101494,0.011594690970918212,-0.0994444981807335,0.04653964248277109,-0.02166519264534228,0.04166415830941528
-0.032648804378361415,0.1405160801636849,-0.05849265671888007,-0.010634316530591603,-0.10553565411978494,0.004465799407817328,-0.017361436305074647,-0.009193742034364405
-0.048048673684185125,0.13047810242671298,-0.09967971245403631,-0.04653908023792011,-0.1832681861440308,-0.12759692033701658,-0.10443152440743486,0.22613801599110772
-0.0072171262713849604,0.028629119087687283,-0.050438551997386644,0.0424102401435745,-0.041080109078888594,0.04875888632558062,0.08574281861564714,0.06212930663620586
-0.020966461289652474,0.06022623784623127,-0.04669701100588933,-0.010943023751823433,-0.10087696599196164,-0.05157302949807843,-0.030398672848068707,-0.136676999804334
-0.04096534623119347,0.026645510727722144,-0.08408033063712697,-0.036478403937034526,-0.18655608682878375,-0.08603424351224187,-0.1609486541138723,-0.03475696134935724
-0.03025594375550135,0.08378187461903952,-0.043270254795870405,-0.024196095995248412,-0.0837761923186035,-0.06101853334663071,-0.018706384660618205,-0.06740151907747904
-0.014706644974727151,0.06638706064916589,-0.04960999648816275,0.024621933890141876,-0.049558602930368956,0.06509225706677785,0.028389278906544045,-0.1340627462546582
-0.047831597588845975,0.07560540498624091,-0.09132346799171845,-0.048588528852861024,-0.14801303161866283,-0.04479441194323175,-0.0440694727666852,0.06979603724896943
-0.058112976400610916,0.048822157792686394,-0.08878438978864536,-0.048125040330058544,-0.16453757400154603,-0.12204338825029469,-0.14683923033844412,-0.07753208058999128
-0.013640596201678498,0.06217465662848243,-0.048703575657199155,0.003731517130502862,-0.11101485133411049,-0.026012909700044523,0.004576099290237186,-0.006162747224995435
-0.04438577523119126,-0.005017931856712288,-0.07565672245324764,-0.0379774554979084,-0.10375745799285088,-0.07757481110851963,-0.022885919167563745,0.16814946915472184
-0.050216283016243445,0.011543791718166663,-0.09687567434588837,-0.07634314621136151,-0.19298965969715817,-0.1169265763852172,-0.11147918226767196,0.09646567974269171
-0.020536972730855522,0.09536673973293963,-0.04444510288855222,-0.020727436197544788,-0.11153565288791023,-0.06108909073117652,-0.11229272204827313,0.06597923486212487
-0.028933293966531964,0.1122668420454298,-0.0582109921828263,-0.042502849056680336,-0.16110514517623567,-0.06628937815865862,-0.08354758190052364,0.23483707068290816
-0.05547751662741785,0.1405212189205014,-0.09665611788077252,-0.0421200010877609,-0.16836986667389825,-0.13023676580187993,-0.14627080854059898,-0.160867675581005
-0.06028793353660722,0.061189308420554145,-0.12022178999417957,-0.07991542320028441,-0.22060074248752115,-0.1557201003221077,-0.1433203135226644,-0.015316368487732213
-0.017821780274431195,0.038847763233289534,-0.05036021876987948,-0.022235960155677442,-0.08775387231037107,-0.0021209260453887713,-0.09400978340919236,-0.023779548502879777
-0.04690988009698796,0.09321144717195784,-0.08156430369079251,-0.03303110755006064,-0.1413498426992331,-0.11526605163241978,-0.1338361422627271,0.042193729846403016
-0.047693960655405,0.0527366969563654,-0.12065206589814234,-0.057313721985455784,-0.1941169459197847,-0.13246244957657966,-0.20264396856871414,-0.28831951263648303
-0.036753388179454435,0.03911709231774774,-0.04299897152450491,-0.017168931951808478,-0.019003221132874948,-0.03761253220514407,-0.021992684594854574,0.08092163806700459
-0.029614636154677423,0.06797437889040792,-0.06087976314067026,-0.043628369070486894,-0.09482016264795703,-0.014933000789720013,-0.049050709822635666,-0.04801043995859278
-0.03616600461109668,-0.017947190557953796,-0.0733210791045488,-0.047012198921496884,-0.1368688593879547,-0.11450929318132227,-0.12856981414525295,-0.06004391704247691
-0.04308510914139037,0.08078864312909717,-0.09308516202660824,-0.04243485470895053,-0.175270033057316,-0.07280572715719502,-0.1276928996345743,-0.10935265710033804
-0.012942052322487137,0.10023128831191075,-0.07238569089712363,0.017972757875050774,-0.07900737513913217,-0.09393324317688496,-0.034659376119401716,0.09473663567100843
-0.023823078843981826,0.12726024218850185,-0.02410106638889964,-0.0441485191233707,-0.13176781187467146,-0.10196612225909933,-0.0980404893192056,0.2250262807771275
-0.04614985418841902,0.036391751184023935,-0.09134411016606139,-0.04294076756928478,-0.21400998017268985,-0.14674534251570392,-0.20121604965322726,-0.15909244068722295
0.0,0.0,0.0,0.0,0.0,0.0,0.0,0.0
-0.006469356603718689,0.09314066125002585,0.005429248219028737,-4.21955795847348E-4,-0.025876306526573106,-0.06214153307491829,-0.008936669698517377,-0.02159995924917446
-0.02922935576398361,0.04676859575764558,-0.010837508268377594,-0.04906560656520155,-0.125235187422332,-0.11288807914134386,-0.0690719873814298,-0.2010803647850059
0.020429630594727813,0.031103966030741947,0.03904802774748367,-0.029663976181872734,-0.00875582849984008,-0.04751750637399127,-0.005569942465654856,-0.3114594254726226
-0.03626043236990976,-0.04250429383061105,0.00699857036422985,-0.02328509499552736,-0.014375935246132954,0.005744495249832976,0.06437047184365534,-0.3281726182218385
-0.006347369360918426,0.008198113168279786,-0.06765980250157061,-0.0582969289704665,-0.0555744281945412,-0.08111616286305351,-0.09439048705126982,-0.3522814173961608
-0.018223664196600833,0.04984934988602019,-0.00751753585555387,-0.07253499055664793,-0.0772152296240699,-0.09350675358194221,-0.063916846397643,-0.11760415659546197
0.016289470836823125,0.06012703906804395,5.483274316887554E-4,0.004626759933389457,0.03125701105689091,-0.04857803949044068,0.051829478008210375,-0.26760852575308647
-0.010549916477498422,0.0407045106430135,0.004687899413972907,-0.03894118111843996,-0.05905937662435151,-0.030455787599754036,-0.052553021663756666,-0.11953900367401182
-0.02301607291143133,0.08828163118874954,-0.0028541765746392667,-0.07824280779555072,-0.08184821381007326,-0.11997845175812255,-0.06936350571997646,-0.1437371158377898
0.002515003264116966,-0.00940913439478841,0.028977034448834788,-0.03471837279676092,0.032260791022618474,-0.008124137885994531,0.03636086759045957,-0.08531507402443772
0.0379154220848045,0.03993341872979128,0.012109746283060663,-0.030869174147495404,-0.024231888666958412,-0.062316095926864296,-0.011210302574188438,-0.08560033929906652
-0.010314474853163322,0.07250124088386656,-0.023701538527769073,-0.08778635637914974,-0.0768730411578811,-0.09859353902556128,-0.09271032814440222,-0.1049648030142194
0.018760809564640143,0.03656159654152136,0.004072235400756519,-0.04800106574222311,-0.02615889544368033,-0.06290015377153338,-0.023931472993341696,-0.006319813486894255
0.028573303431691982,0.049853035549991986,0.03641011393023849,-0.0349765683485523,-0.030142997784843112,0.0126230229966173,-0.01203463552634916,0.18642849335551404
-0.004909986129138941,0.049453755102772945,0.007191375122622523,-0.035380602281021176,-0.042657023077565775,-0.04537027598356802,-0.05441250014826049,0.07387456287841676
-0.018130672850553517,0.07625301453793476,-0.035061118558592674,-0.057289466486637894,-0.11440874578050182,-0.11136608650006065,-0.08369434924033001,-0.15803988257492296
0.031391154117129616,0.08387716089941843,0.026841245246340517,-0.017824984094876664,0.008463047628970322,0.012904707474070937,0.04581392171221077,0.051425354975470405
0.006713198461919728,0.03861978012547285,-7.541936060012078E-4,-0.07129145005688008,-0.05489462391410299,-0.06723259545938122,-0.04046853987067206,-0.07418296832234361
0.011096224133947619,-0.04097733033980644,-0.019803678667837943,-0.07987930823952132,-0.09655634587660206,-0.12492499268239096,-0.1133330681284373,-0.2104409665379272
0.011703059024658513,0.027347317544518468,-0.03468316915656583,-0.06411687479588306,-0.0397714756482625,-0.08879364312635551,-0.021457340622436774,0.019576416732385304
0.023418572399056842,0.01702446650076883,-0.012007807720944563,-0.05989856445735063,-0.04044771624418192,-0.04622614463114,-0.05232379850951582,0.028313568513890885
-0.028500876812435703,0.0764398843557359,0.004934329506734059,-0.09674928821503402,-0.10101351555270595,-0.12021050308884937,-0.09396834714478225,0.002812018783941106
-0.017349161822935638,0.14364565396182893,-0.0226113016957607,-0.050883296455237134,-0.15563117117864575,-0.1973362827862449,-0.15340190487460692,-0.13004218909349863
0.02005849704191974,-0.009739944419306923,0.003571811509196443,-0.07684833302817391,-0.024880183679512224,-0.013704288349120047,-0.011018868413907368,-0.09272403768458481
0.013261617057429939,0.022143559050665118,-0.01825107465991016,-0.0879035927068355,-0.07477015424072503,-0.08735555787041034,-0.07183999686086986,-0.043510116781467545
-0.035006604151419485,0.09414963542577182,-0.06478685267601025,-0.12187910942636192,-0.1774565014613066,-0.14978860344874434,-0.15613811551999104,0.02971707295707926
-2.4019392503926013E-4,0.1202404084351012,-0.006217340473273936,-0.05936210664849774,-0.03545079975943091,-0.08904001472897595,-0.10679980599938219,-0.12517318361364715
-0.008541430428620059,0.026430613994531615,-0.017258518897906472,-0.11803038920495064,-0.05063589973716767,-0.07640186842852756,-0.03481340910668752,-0.263300827665657
-0.01791735436484035,0.005008818832252793,-0.035082054873275814,-0.10840255229762889,-0.12401673748799998,-0.19505825654386783,-0.1572697084179798,-0.05967786379230411
-0.030339264559768302,0.025951150692832936,-0.03862840898700587,-0.12982874756327611,-0.1336956065311278,-0.18262411198462886,-0.12180783301975984,-0.17194470222755687
0.01576627994644529,0.014485373885714026,0.01363361845845068,-0.041692014490197396,-0.05001670408850334,-0.04413347433909576,0.014275839369013207,-0.011186601519852957
-0.03193706204725297,0.006145167839640031,0.004436693279606607,-0.06096173187872918,-0.06271918758807479,-0.09358810297802332,-0.06485567112739826,0.010688253926899982
-0.024763948631809203,-0.016046088681307857,-0.022250139003006764,-0.13244770604797956,-0.1840370943585006,-0.20818148970831693,-0.14219315694414827,-0.06668984630020258
0.0012764079488106136,0.05373017024153137,0.018544500802428254,-0.07271890462796106,-0.027053478713631868,-0.04064574034048418,-0.022729330781676826,-0.1305187652182216
-0.0029429119622378513,0.020057063910623008,-9.35530821736752E-4,-0.052291158333464774,-0.07187683638490688,-0.09195226761338371,-0.08302041465231438,0.11233315775330066
-0.039395138889534505,0.044295069096902395,-0.02344787604244397,-0.11203664973344186,-0.1399076725343163,-0.13320548987538283,-0.1034079818083565,-0.10474681656214369
-0.021227862578388976,0.10869089521993613,-0.023299460838616948,-0.0724904109274543,-0.12995179034303206,-0.1495895599888426,-0.11939991495029983,0.08162615614399193
-0.0028903626252433506,0.008511622433152066,0.025360014045122087,-0.027489239659439016,-0.06083692475745045,-0.028937868307334885,0.017891054335798774,-0.26744238175486146
0.007093895599828634,-0.017868044771655267,0.014141764422173297,-0.06766819219351465,-0.07560204400859266,-0.14536773576728293,-0.09586817802708353,-0.05060461063511035
-0.03652087247186468,0.054838598179595355,0.00892406277904928,-0.0938270007725761,-0.1835158766939683,-0.18984568271622282,-0.1657315026827852,-0.33227864318051026
0.020684139984315036,0.05163054349918994,0.02749527889049269,-0.07608289338186201,-0.08283523618475352,-0.043253738534871244,-0.03289903047644693,0.03291340712065782
0.012669747424432776,0.07736646678713166,-0.027755691418543837,-0.07683059511068054,-0.08146753913998317,-0.10222487011399727,-0.0648313568619926,-0.1308812848956924
-0.002566098596580947,-0.0016190979365724445,-1.2442400320333835E-5,-0.0958482841372595,-0.07975206150476691,-0.15166332830200868,-0.078100700532441,-0.0513173738046353
-0.003411418199622332,0.009652087470375825,-0.029024593521072894,-0.1224030689324855,-0.17635032915417914,-0.1595812866997564,-0.1827595687215932,-0.12008315106033596
-0.0020078334749598845,-0.006272782608630845,0.0615089144389758,-0.07416664282561188,-0.050886905297874985,-0.04361288882339501,-0.17262698084166764,-0.08167004231949448
0.009803732242333385,-0.01869228790543742,-0.0026344603247693277,-0.07397039258489484,-0.0765695304009758,-0.15123163767227768,-0.08196801829871042,-0.2934775827799765
-0.008437189525966962,0.0222254533769215,-0.0257397193636017,-0.12292321515762163,-0.1906460275676967,-0.21455609142110094,-0.13404133744711125,-0.04030386932802976
-0.0025379083085598844,-2.848497430347763E-4,0.015704596833224033,-0.12422615065631061,-0.15128414392143166,-0.13690497447874772,-0.09734117515608856,-0.023171650979962877
0.00734562293919247,0.03750172525473605,-0.010738141583726046,-0.09633640294654182,-0.11871571814073734,-0.14010764812726267,-0.11392154225858706,-0.20470137576902392
-0.01469343699362264,0.02962509219808318,-0.015381490881979432,-0.10712539093100003,-0.14943322128039513,-0.18256703491912443,-0.13922426656068526,-0.0298485180336856
-0.0235388877913072,0.03225201109996245,-0.04308721162774143,-0.1263988595125134,-0.19689452692720708,-0.18528629621834364,-0.24005807905973697,-0.1263829076371179
0.029304436734282624,0.016693887164688448,0.004615582539682583,-0.06885011750684712,-0.06069778769129877,-0.136225178326551,-0.09305761976918292,-0.10113864552913299
0.009000227425478388,0.05361387445614918,0.025553370262729996,-0.124237902041534,-0.11062134438931889,-0.16800692069071493,-0.14381793888103797,0.008380148185262115
-0.015784321150191294,-0.024274215185854153,-0.05103162633342628,-0.13502552187722533,-0.1967415921433243,-0.2521632496667766,-0.2266537661363402,-0.22808127359750063
0.03729974409092959,-0.005366101784051391,-0.009292178996481992,-0.0826036562581615,-0.0937789490671334,-0.10063627500496428,-0.07150229492099941,-0.0058786170220681555
0.014990565736447636,0.07435875203321096,0.0313665568328714,-0.09662953338420006,-0.0229848696183986,-0.11757542260206316,-0.0844920179565434,-0.20477170571860714
8.386431685011644E-4,0.02878972121967216,0.005043291500006597,-0.09789346057233204,-0.13660641485675026,-0.18143680044253158,-0.11462628754480658,-0.007022577444060651
-0.006229239118227717,0.10731013208057405,-0.043474124961386085,-0.11181487458344556,-0.190822769076319,-0.18513332472653896,-0.1528335663486287,-0.1266418385455994
0.03454020958827721,-0.023609859357800467,0.06166563634956451,-0.032271831687383,-0.03829593697406608,-0.03919103236247082,0.00767471753127362,-0.14256003193602496
0.04006338062184947,0.038582559153649054,0.007575053534610243,-0.06399246289537962,-0.018928014111754432,-0.132087628482047,-0.035592503790028096,-0.07109699492778265
0.011239782838169274,0.04824645830381469,0.02026691144582629,-0.10157199224360595,-0.12786122428448393,-0.1106218067168197,-0.08514683247260227,7.935187105223562E-4
0.06607789191856873,-0.020555614315802995,0.02475468846057674,-0.022788460696987728,-0.04411380260447664,-0.057970906082814605,0.019835398368723542,-0.14785269067042428
0.05094095556371714,0.044119637627292985,0.06553238447258994,-0.024476474158068987,-0.013240461137395743,0.03131706764887371,-0.02475728323378419,-0.11958930667916512
0.0349877044515951,0.08670431784126142,0.027456352712109805,-0.03324212946066191,-0.05575677884360006,-0.09308999195560842,-0.10405220328530201,-0.16400925830381308
0.01859534565352297,-0.04646130615557764,-0.012428227418141813,-0.06875320605390507,-0.14822556087861696,-0.13190057601488225,-0.12060123647124923,0.10362532005425784
0.057187187693979624,0.045666009230996174,0.1161974501050631,0.018236886380652517,-0.006497785932243982,0.02171082432381144,-0.05447942538522238,-0.07159817989945338
0.05707295421815496,0.09542294785196859,0.06180000608460337,-0.024308990756528814,-0.021401220949795324,-0.05331940782602318,-0.022577733123288382,0.2143064423652392
0.008135288787093381,0.056494995405297566,0.0263266868786729,-0.04771320566747585,-0.13567575720856567,-0.09979345080331578,-0.07152232984919701,-0.16009125795449375
0.0610062483729249,0.05673815390903458,0.0477324489848559,-0.013079782277479302,-0.02646076352153573,-0.049973798468841535,-0.06557626724488977,-0.07032295349349926
0.05749872900153642,0.03819627576611717,0.0701406006718226,0.022421803290255102,-0.006170083121455006,-0.04071694702058887,-0.023186556450799783,-0.05927257993069368
0.058111931553745416,-0.05593374079279778,0.048519105420354786,-0.036168573924755656,-0.08942859378062537,-0.03445816999295398,-0.038659004741892614,0.15947682117241335
0.038635533820116655,0.004553545001271697,0.0420977427480759,-0.07240993491122401,-0.13800945681833326,-0.10578097674132186,-0.14132270781042006,-0.08476675766917285
0.0661634308826232,-0.02561335385358854,0.08213519402536801,-0.013606071854479332,-0.012967061603344265,-0.0016382249246195413,0.01410262337788716,0.009580322276925735
0.07453322251700946,0.08508596820040948,0.09111509947431007,-0.015738006380340064,-0.03132656196862327,-0.06229642365313709,0.025552812890702117,-0.07736653221956935
0.06306729856142576,0.03502357830707892,0.05211960132088719,-0.01780789179775452,-0.12376626889664964,-0.12061450961972973,-0.09386991505372883,0.027518770843976803
0.0694997538928326,0.06717074454484973,0.0680763085862961,-0.013564794614857864,-0.07804694711474869,-0.0694351787575153,-0.06154503632879499,-0.032528400212339825
0.08049420214566198,-0.02159683226951037,0.08494699933867791,-0.006331515343532962,-0.013551683651697094,-0.014316009144539649,0.0720426310908526,-0.0699567947708184
0.06597185402006671,0.021338513757946043,0.09202103013453986,-0.026730880083378053,-0.045802773617864834,-0.06319581498786705,-0.025488839009469674,0.1470444756424767
0.04377250382783608,0.08208374161074916,0.04662915616795968,-0.06503349513508123,-0.11524739453677861,-0.14413017727612462,-0.11104542579570623,-0.06573101829195327
0.09793220236147619,-0.04085221704477204,0.07664375187286804,0.004479507186967754,0.015271634944053036,0.06402202385741365,0.07243479269980188,0.17074398603005392
0.07914856500278371,0.041826494512244405,0.09257307130285206,0.02655275594562352,0.01834487235428109,-0.04354627285437193,0.038615762630322306,-0.011437714069453264
0.07324725300071254,0.04643750535941127,0.05088335464424523,-0.01688584127432924,-0.08908019437517645,-0.0515410113359584,-0.08329534188789695,-0.02618838590092576
0.055250250869987264,0.07473632976456468,0.06493649308317939,-0.009405785263239569,-0.06552294930243635,-0.03245143322740815,-0.021074523347864096,-0.08305876349434982
0.09244455208065393,0.05016640480387835,0.11217710828983923,0.017576038162018665,0.030526341188338135,0.03964014454127027,0.10783170406658397,-0.1913704622811263
0.10564071436558863,0.052995277141291375,0.097010173056757,-0.02161694195872868,-0.01997645455987823,0.01836269990062958,-0.03267173689647447,-0.22947177038969713
0.04153881909010562,-0.005672023558429107,0.059326861632541555,-0.02123892984148673,-0.13326949860422432,-0.10638619250624565,-0.08681696151794682,0.032839791799827545
0.08063808956604453,0.020490421291755823,0.08577038352397992,-9.75691403373391E-4,0.015771777144404947,-0.01797664721566758,0.11414941401498196,0.04466799981906089
0.0827932658701858,-6.779079049685777E-4,0.09944474975185658,-0.011411781727254572,-0.014410098396969023,0.020018388275403115,0.08478051531069661,0.09706040292884133
0.07426936976201946,0.09821512426042034,0.06604428166801377,-0.012549737374341327,-0.022099249703601886,-0.02597043727748735,0.044713175806642906,0.09624099416304599
0.05906041023515868,0.028915617411161776,0.058144275577056814,-0.04213262197478192,-0.13165263881721,-0.09130499483480857,0.014264039188693851,-0.025700528813964674
0.10161498745653942,0.042510587366440866,0.13378824975015538,0.010473253345735276,0.03875048068215206,0.020935293342817296,0.08646136015138048,-0.28731296362854497
0.05549637704056218,0.024328195578880774,0.10564627195060458,0.015052543598532933,-0.02149982333817982,-0.007211281122884383,0.007689510324987894,0.07632707324451449
0.07882478100328603,0.10278764476491764,0.07116715652275118,-0.04582789950006018,-0.027511539370592863,-0.07408568144312638,-0.04544006915530362,0.028319338644077874
0.07485068750746225,0.07130049647263403,0.07370830426639396,0.012559667518745016,-0.02774618493950301,-0.05045165203152446,0.010169474359255332,-0.2193490133870286
0.07723258538484369,-0.0017622677445485735,0.12652063478812664,0.062010396764337714,0.04696134798910798,0.0693025310693117,0.13470153799736528,0.11615493515473041
0.07512571734482777,0.014615370274893902,0.09105137616893141,0.015962215289849854,-0.013615428294047188,-0.01456754978825009,-0.027314850344404784,-0.13648152675029568
0.06984630027101639,0.0249838382235823,0.05547852636346107,-0.04870801176752716,-0.1182860692519255,-0.1054290933661431,-0.072962755974594,0.14597741333953707
0.0922597696248695,0.056142896323787994,0.13111409316735548,0.06293282365517779,0.014365592150375889,0.07932760571187955,0.07336399765849323,-0.1249882877480637
0.06976724393142665,0.027413970103423058,0.10409925193291888,0.016528867111673395,0.030660596973519583,0.05250332010034242,0.1590883347081276,-0.07793644172560121
0.06140543861657746,0.052435006634219405,0.045894487985528976,0.015216339935296683,-0.055369850788483554,-0.05306199449153953,0.07149925690050081,0.08698764396059477
0.05361251665330191,0.08355687547390644,0.071145909455295,0.0186321051136841,-0.031127586106152877,-0.04285193554973041,0.0257150279301254,-0.3142223328210223
0.10056026613957254,0.08496223491653021,0.11845352123010702,0.07052523909782477,0.03765524289061817,0.08894685510967035,0.17439781720711703,-0.059062714547443385
0.06594454201835644,0.04728762878801085,0.07631110358876131,0.04066012057655009,0.0030916115551482826,0.03120426524594827,0.08425843369976233,0.015797595884339266
0.09857782259481097,0.06177854843948305,0.08697942604301326,-0.007216342567710282,-0.10646672601686716,-0.03138061617519075,-0.02807987395904682,0.2166191568169724
0.07896112076607707,0.11807804430793079,0.1051213217721256,0.04139637288422676,-0.01446205858439148,-0.08897079876849855,0.010706417305180294,0.14600949059314594
0.11032699721424648,0.040667414235757704,0.12587130565297183,0.030233087800367216,0.0015347356593777006,0.09055214773341705,0.11655489507248337,-0.1619120787145354
0.08432579772989905,0.08179237301001674,0.10652067065306126,0.03597537577812244,-0.010123264252016845,0.02044869312130118,0.07705402222187124,0.09491531382357277
0.06022425563675381,0.06480194609884649,0.07952825839076327,-0.013268106814285904,-0.12751813938779533,-0.0701844766763398,1.9986009131882365E-4,-0.009409165393212682
0.10701371634050406,0.07361962809359213,0.13393257236781345,0.06399868837270786,0.02321393519558218,0.05098262707097467,0.07613769037856324,0.05217538961789625
0.09572768953855411,-0.004485536474937657,0.1370733020680652,0.08982389879185572,-0.02039555218719169,0.0226132984504388,0.013228524655719914,0.1774630519017597
0.08125323090123367,0.033073229613771904,0.11559436711290685,0.03606937417239404,-0.05018921045430949,-0.046055457814627276,0.008394548586235784,0.14496194348001623
0.05430856098851619,0.0729226884153582,0.10126735820762914,0.004404200208059358,-0.06493336619729931,-0.015706816914171084,-0.04131717361398948,-0.0034926254061211637
0.10459120499659282,3.853348348537011E-4,0.14928975497935038,0.0811034508281719,0.03261999812763233,0.09318029699963973,0.05465186545274166,-0.0730763044949887
0.08780326867596176,0.06387161085435844,0.12178409978540694,0.025514531171858396,-0.011387064631756372,-0.0013464716791468934,0.13275611088238043,0.19519255569822302
0.06613935434350228,0.021966929803626467,0.07162935410487906,-0.005638797907019516,-0.0756087634516163,-0.05301341824797903,-0.015085767601263053,0.13102621468696185
0.10385909533299938,0.1429588732392486,0.1246188866979196,0.08359224694828574,-3.8871033378784503E-4,-0.00489017359741406,0.12246452252173168,0.12861877934850252
0.12028805515971551,0.04755932823275888,0.12902576946966188,0.07488004183569585,0.09815436303593214,0.08802538705084476,0.1136604782393486,0.10071303439993695
0.08555511270022255,0.057538655461906174,0.12357578230357263,0.049544933009460404,0.02601218513501194,0.07652939916459359,0.07982179292421968,-0.050832884481439855
0.0718390756488846,0.09734237035438875,0.10859675468516611,0.04172220525237891,-0.05919898847894392,-0.008545459179722353,-0.06014864472596981,-0.013826559850707021
0.13381701239235272,0.05033917245811148,0.15456327909158316,0.09129772360979213,0.07466235788284578,0.06552199624216024,0.18104992000369874,0.20419839503541848
0.1350810384154184,0.025393345708015325,0.15054656122817361,0.0864207556376486,0.09282955084197422,0.09221519316026991,0.14599951566349306,-0.02547903835324128
0.1386178265236787,0.04166701741392709,0.14614553874575997,0.09187674168469868,0.02320816934658415,0.028214326416703073,0.016918957469773746,0.06480339464795293
0.1068931605484837,0.04538914071083955,0.13152866907847108,0.043801090022404766,-0.014756340006651075,0.01757025018908484,-0.006287061707238362,0.021675286593600518
0.14840498650105532,0.08086305348731182,0.1704218786898688,0.13682016539155367,0.09350754677067089,0.14792779689323973,0.15682062238123162,0.1398345702025381
0.0,0.0,0.0,0.0,0.0,0.0,0.0,0.0
-0.017021258272407525,0.026138565317881834,-0.053552464523405424,-0.06528939165849011,-0.01325424544638254,-0.13291849448052873,-0.02526821133178074,-0.3034534715478978
0.00577315360095737,0.07461724789079849,-0.0051520467438201795,-0.05332216064082694,-0.04135542828488317,-0.05095669078050591,-0.04685866036658899,0.001420203085489291
0.008670423668167837,0.04796350595376886,-0.005409401900262366,-0.04761241477025752,0.06874259706684971,-0.010247219134783714,0.04808078219992223,0.015710497507448018
0.0183102916757881,-0.0013670543582011696,-0.0025705624904672764,-0.06074725767602621,0.010802222883596335,0.006560480558819415,-0.025108705014561514,5.30766432128793E-4
-0.007894404500785768,0.06663700541142514,-0.047829490166004116,-0.07647141708360444,-0.09072016860700424,-0.11456278669952474,-0.04041919848159625,-0.17586097821785351
-0.0033747780058995536,0.03567473605492388,0.014772616796221764,-0.0418252478581108,0.01247407368045994,-0.04374204468391668,0.018764564439169504,-0.08495905304147211
0.0013806390481512498,-0.015629802859952413,0.02099766514136151,-0.016737971050841197,0.007767279522185977,-0.0331764226228205,0.04614049444315093,0.023680867504911163
-0.005436280419075762,0.06060691741461843,0.02031102963136592,-0.07031739078223234,-0.041836807070232546,-0.05382884428931245,-0.022059259448348557,-0.20277404023220758
-0.009984886471506027,0.05475129996949635,-0.05157180921605796,-0.06720089970952622,-0.04446966795086829,-0.16744367827861045,-0.14213749457189936,-0.02383051122853619
0.03428174309404283,0.029484017612203317,0.011740375840622201,-0.028933256529756687,0.044055398170561144,0.05221218966401431,0.02071330945588276,-0.03673074494297346
0.011203196059078574,0.09997812888096558,0.0011544240060727684,-0.03681082642358065,0.011457660608515163,-0.022955923056312832,0.07488082516477823,-0.03782721760467922
-0.014060314281598957,0.04054914591095837,0.020834347323587604,-0.04253731701722948,-0.08462912710588982,-0.05950684566638359,-0.03862511466700308,-0.04484498777968593
-0.0028727439567104163,0.052672678453246746,-0.004611009432892332,-0.0647753504795155,-0.04176695261493579,-0.07392121245379751,0.04035327683636412,-0.12770391261983782
0.029184897086141776,0.027685666677324416,0.0022817957591788687,-0.015776640220316787,0.040720137873921536,0.05767362075506377,0.09783224293084755,-0.006367381074780631
0.021641855158949647,0.001415949630497959,-0.021043266474700853,-0.015482968893306817,-0.03383467310237881,-9.566498939270751E-4,0.08804823347145152,0.054030398077002495
-0.0234830140732189,-0.07055340135446597,-0.031524891703941585,-0.06955795646929025,-0.07380875959568794,-0.06768991842011657,0.08524332141316118,0.09231525473833813
0.011304930937453966,0.053831751532049665,0.003723538438362442,-0.036602635905836484,0.010811309548934889,0.015942714096624788,0.06549866414943123,-0.050257739142436364
0.020700322331027532,0.08460376033082673,0.026879434003427818,-0.010145813423190361,0.035839998486204894,0.07614581150766386,0.1427934204905963,0.06455535960883019
0.02139457987183019,0.07654174217080811,-0.012711701275748263,-0.0540279733929978,-0.0217808668010393,0.026442514053089505,0.15621868567649977,-0.054264913696337125
5.144392719894086E-4,0.051839677303817666,-0.041580088280761984,-0.09250594671325729,-0.11338937783959141,-0.1249443101648989,-0.07068791128725394,-0.016703803172790188
0.034838824172231414,0.001994032042560878,0.015090906209387418,-0.012086040749463331,-0.016343944822260204,0.004727891263530792,0.10046283055919161,-0.011236794245155224
0.03038240841354048,0.05997599812717613,-0.008976910109244882,-0.009202111950766617,0.024033650031598075,-0.004946087213066941,0.11895799918963204,-0.0355296209603253
-0.003249150022310743,0.0837299326795442,-0.06006510249664332,-0.014707504089858575,-0.007192866952433763,-0.0848870277976223,0.020681307859166095,0.0096706033414371
-0.037577718750812034,0.09412194439807964,-0.03319037546719919,-0.0627355668227643,-0.12814467736041874,-0.05913922047486614,-0.014810885583955425,-0.15149637517156478
0.02506747630983877,0.046954534187849006,-0.003005724577377411,-0.04255832853668354,0.013763864289599359,0.05847773843888454,0.11141294403522214,-0.13137276756487726
-0.011621346871265814,0.03675321498697359,-0.0186035540636091,-0.025262255415751667,-0.05190691955671012,-0.005426074042641504,0.0487350064468157,-0.12849296723609882
0.0031056339093097074,0.013403014706871108,-0.038464520792100984,-0.061936251696417595,-0.07338329009241548,-0.021485641679059364,-0.0012557255717113372,-0.16247380109862597
0.005035296328462946,0.04902753186383535,-0.05036555209703518,-0.05484407783105995,-0.10295188588608184,-0.05817907234138375,-0.027134091143725277,-0.017602577459327584
0.020192810159964436,0.08014093490141105,0.028597132478023653,-0.04215658606561695,0.03654751544184198,0.03523632555872358,0.17210127833041805,0.010911821178154923
0.006562830582174495,0.09608778773767179,-0.0347022241848077,-0.0180965984179871,0.0156803517060507,-0.05219923350664568,0.030758473412390915,-0.09159416762447226
-0.018122595824490995,-0.004017879663427593,-0.0357737546911399,-0.09417958985321595,-0.09895159297364928,-0.13856839524908968,-0.09018539446094143,-0.09471355828492367
0.009609450274029485,0.06690688854978122,0.016866864767323762,-0.04670005239491026,-0.04470534248950159,-0.08487230905579418,-0.022188993986945443,-0.0630292680254847
0.02166352178938244,0.12289085563775082,0.01013431046130299,-0.046384915921890944,0.06386856309706956,-0.011868558369790727,0.05341912873432548,0.10941659996368802
0.0013459448590609768,0.11817455634158724,-0.007142343298350298,-0.03651881805640668,-0.0035566016095588404,-0.021152501718597616,0.03153131576233726,-0.12711700317195795
-0.0198655310055387,-0.016408561413237432,-0.04288521150232705,-0.08584333946127802,-0.14920750789556714,-0.153469750375547,-0.10492011024560807,0.025499749284377593
0.003992996235281099,0.025452070121657844,0.006153673822410673,-0.017377590538791877,0.06539576565102989,-0.03416447819279589,0.07453491553147823,-0.14001103560910444
0.025963650500195196,-0.007762022113031453,0.010801302851768224,-0.03814911225677138,-0.006592654356129879,-0.009613977019063136,0.00921909182273633,-0.2931310556638067
0.01613592725553789,0.06206618456597024,-0.009015414360751955,-0.05707223317557181,-0.00450228497265126,-0.08058560541160542,0.07225414943635347,-0.1004061792308022
-0.015833784273139,0.11354102148143319,6.864389146016281E-6,-0.09337572553759983,-0.12258620612433632,-0.12573563634311155,-0.07676427884289361,-0.14556744717698855
0.032196477539990775,0.05940406283506139,0.05460016445683417,-0.012898742333590521,0.006202883987478869,0.04803191784054772,0.10554689811860146,0.16615436385890892
0.02793416036566157,0.04059483177905676,0.03549587896886369,-0.0440128874357114,-0.008963217294842729,-0.051956988330793485,-0.009435595621607593,0.17143319097525733
0.006491386038108088,0.05819827420978285,-0.009259561533954491,-0.056680807036895445,-0.09374788939709691,-0.12873810182742199,-0.05471814605214194,0.0707152412822527
0.0060583467299422655,0.13329457379242582,0.003976330719707509,-0.09009194627953315,-0.1282394591221417,-0.08840497197238989,-0.05096587152954846,-0.0320880287904286
0.026752585255979067,0.03068052460970838,0.054407901811332024,-0.010608143473770641,0.05836430312524654,0.04140835575580332,0.13680990665456563,-0.14523862299462387
0.044961116055192096,0.006031908021902677,0.0762780260404119,-0.006373416817913806,-0.04551420543110543,0.022904272253434277,0.031736125141716635,-0.2664076213557731
-4.596446735624926E-4,0.10293621408088782,0.05102952757541038,-0.031040539540458358,-0.09183459702515678,-0.1117000022399289,-0.034997379296029994,0.04532703596627119
0.02673664474680862,0.008158501659661255,0.06421561358050118,-0.02341429539962512,-0.02943533159680939,-0.0022978352448388972,0.012254448875122066,-0.06150584257407132
0.04305048457488628,0.04863195534154974,0.09560723042392849,0.04138309905305024,0.008167110700129654,-0.024528087169228663,0.052399571451265704,-0.03322544705156538
0.03117488768610388,0.1002990459858979,0.08056175992763133,-0.01543522650555857,-0.08877649076327929,-0.008215126540497941,0.004460226487795309,0.12143591240173546
0.01804277323791409,0.12424386782843833,0.06660285340780547,-0.015581901141880537,-0.1375386610059944,-0.0991329925084134,-0.03110838872416536,0.17721062712342128
0.0736914759275967,0.04284906637664987,0.1469870344668281,0.04415243607725672,-0.017284766724182388,0.023991036299049084,0.06555596536523758,-0.19351873104259099
0.07384115021081353,-0.011293811567112844,0.12367972517402281,0.03907349442109073,-0.029584851608301266,0.08695478607408202,0.12401734342786117,-0.13366847324551312
0.03797519980090358,0.08896188456315146,0.08842675966700166,-0.013448026055077673,-0.05997257524713362,-0.039596320058231216,0.03825433517326978,0.08727215325799964
0.06231762553002004,0.11430031137249852,0.0823966407738963,-0.015522993652964924,-0.07463632169276221,-0.037318391331700174,0.03570600187378226,0.029382960053823126
0.09819082164444795,0.11730288897865071,0.13590361916453886,0.09142540935038874,0.06502872187592285,0.1100653819435089,0.1544775388189652,0.02844176639689877
0.09181463264823511,0.0296754711238294,0.1410727671974791,0.08874792434562177,0.026191120444321314,0.05953736071479693,0.11779546615724598,-0.029270959696415133
0.055425105898528504,0.07085855669253105,0.09417081912771708,0.010147605598390105,-0.08995935458596785,0.010419808920279994,0.058898798408228,0.034626219973989514
0.08888527536554372,0.005031201181452172,0.12679329832217956,0.0825781671143846,0.050306071548307185,0.06695626898014578,0.15448340727394205,0.12800269966163036
0.09464643218226357,0.07297569773385781,0.1612668496492266,0.10997066356432554,0.056706946840008765,0.1714433628712888,0.1879456437872682,-0.120739596826418
0.06672498527723456,0.0974919518469175,0.12007267299213056,0.098754725070911,0.006475665115811768,0.07028012855697963,0.18496857581640083,0.13567142880968497
0.0586740840040095,0.0759541851455463,0.10342895068284698,0.04826277024148333,-0.0925653691909851,0.030352907146389108,0.1060745769460961,-0.2361218673272445
0.09863017899257434,0.12466455784245678,0.20592283933246375,0.13784948755031756,0.08592594212751337,0.16962254291066625,0.22920814789014884,-0.1818363089511097
0.10734763927074711,0.07426167711253884,0.17019180663854733,0.13225690652999245,0.03360531189457844,0.12918770317656936,0.1836219779220477,0.03554653440106481
0.08502311712415403,0.05794839534227236,0.15534627587272082,0.09012089948848541,-0.0285579583193587,0.07455142748649884,0.12927428884654224,0.09785791044417902
0.07794501666145129,0.025515133142942403,0.1370012145144647,0.06905472518637913,-0.026695122791867698,0.04336877529970595,0.06462961572667994,-0.18348169596260888
0.08981115654917796,0.08102332685346125,0.1548643393204137,0.14861134252329838,0.049778494018077823,0.16790663892466606,0.1554784538674134,0.012521661216367441
0.08570230998586018,0.06310407100488558,0.14328249989306274,0.11427362106061316,0.01654295734658351,0.09191506863903359,0.16122766813416933,-0.09298732321957548
0.05716073167158006,0.03121333424610473,0.13298287464973563,0.07576245355759924,-0.05040208845837474,0.058219397552522256,0.07430638935264339,-0.02925632202326689
0.07596063702151254,-0.02203060121167555,0.14714394010597626,0.13639173553746692,0.021787661832689376,0.07253760612237214,0.1659806104863986,-0.12445586015289756
0.07134673441488779,0.0039229603251826894,0.1459195020759802,0.1188718791931725,0.023288458574441617,0.09620924866458191,0.17098500308011658,0.08089880512145964
0.058005167155589954,0.09748656091596963,0.18196494633084975,0.08502729731592058,-0.05765320254662948,0.055538485831254036,0.18389193073284715,0.13949900022833095
0.0504380815891165,0.04239073513156377,0.11848360218635215,0.09240439843720961,-0.04448871671886187,0.003314687911296854,0.06557623112939986,-0.06781492347529117
0.0948034651201898,0.10556288223597887,0.15741538809676014,0.14224136182151298,0.058542339285372336,0.18189440828097203,0.19453129318792584,0.07812232299498323
0.08424824886697005,0.14843095967379183,0.14905975943574562,0.12030654504678688,7.023984130909433E-4,0.14550667664671219,0.11903115294331673,-0.10967437760658072
0.07421078534033107,0.14705026509383723,0.10815860492579027,0.06086394984009898,-0.05884947820683645,0.003825801822749997,0.1310490051689403,-0.018085171290392665
0.07031222950227708,0.10381304321170681,0.1281872294730499,0.1283838394066814,0.00691564847127929,0.07737010858238536,0.18768579418309808,0.17580402881850166
0.08630555527206249,0.07964754615653336,0.14072584280077904,0.12479301058144375,0.07025638389482242,0.11772787889090558,0.21984996824181272,-0.18848723744037166
0.07699710639986815,0.06839829318305402,0.12958354074324666,0.09796031741855844,0.004555974199564217,0.05621582959074245,0.16116148725570914,0.1382083532506151
