0.0,0.0,0.0,0.0,0.0,0.0,0.0,0.0
0.008985491564368335,-0.0026017111951127866,3.672439542178607E-4,-0.025698187388285845,-0.017656925606997352,-0.02053381600115592,0.0057213660022310125,-0.04803911954802786
0.01108306337322159,0.0070737418372096225,0.01613174120220029,0.03075328470113811,-0.007526582754069484,-0.009012339891926069,-0.012609062521437522,0.003191933655476112
0.004985282783429641,-0.005406974938704755,-0.004255617958988878,0.011614735552682443,-7.855997543601764E-4,-0.0035791477258998033,8.703054791017739E-4,-0.006197911323451613
-0.0013112988670889378,-0.0038229426302976433,0.01954266271681189,0.0065938241497082856,0.007327048272789377,-0.026444277896914142,-0.025734274175210597,0.024777488147471195
0.01515695134965065,-0.015232763057279351,0.002759765958747107,-0.0033985253755345196,-0.01874184603443075,-0.014002065961833121,-0.013234084996486463,-0.0025448756909348495
0.013648941572701016,0.002310917561870733,0.02795299713380768,9.731734478298226E-4,0.0010650485799298184,-0.013464534244909412,0.011786002639646631,0.004293065789723931
0.0060454477840008805,-0.01040972095433744,0.00792651553176274,-0.003956832394649459,-0.012081575149569097,-0.01139535294395412,-0.004968180296531288,-0.011361598469794558
0.01580342359262444,-0.02481991151340951,-0.001021388376658272,0.014948219559367912,0.016015258857852745,-0.028822850583089865,0.015616366458985231,0.024991149272269926
0.004348448536624895,-0.00992165236536112,-0.006201816735796409,0.01885037801623589,0.006739929012322551,-0.006472076623039072,0.02163809011100154,0.04399743522652908
0.005400085904885027,-0.005778157596590082,-0.00974693542176866,-0.0030422150673516946,0.00780263227916627,-0.04502041305577559,-0.006156680799182732,0.01396032907019952
0.007391356002798742,-0.0022009997091229777,0.0013160699077047894,0.008099617095530628,-0.007050109830521241,-0.03805381232365483,0.008813147303908503,0.047951371354257984
0.011283620602015314,-0.019223407991113974,0.025280608755035794,0.010328446717940809,0.008851665212431518,-0.024750241842266818,0.025734036728283533,-0.003909534010586319
0.019398378087870073,-0.01583621823613146,0.040059045698533205,0.0016692804371645498,-0.005004541007062831,-0.019034045989357207,0.010180304949304095,-0.01931777716347096
0.005536373929826394,-0.0021586343114899306,0.016552728266637423,-0.003017362107509594,0.010925020721974397,-0.014369500889759398,-0.003375359465700417,0.02164405638457393
0.010444326285915802,-0.016714258312244434,0.004537426608856407,-0.007800973244789969,-0.0032005093028946788,-0.02955904371262512,0.018320920796673953,0.033578274181865424
6.951286707338189E-4,-0.026337704545818172,-0.03886269987676354,0.002578927825045471,-0.012334965637967814,-0.02906265259661156,-0.012335581674985524,0.00968341800421993
0.007735345390796559,-0.017309101620458935,0.031128735287154652,-0.012978177455595305,-0.0023769146805595193,-0.03380017294208111,0.04383089121098924,-0.02344825559084677
-0.007318886432204838,-0.008489054041714468,-0.02235627279119745,-0.025502964518253457,0.031430938742754204,0.019638482601348817,0.03135707275049107,0.04863590845848941
-0.0021614369935586894,-0.02999660807794606,-0.009106072652781808,-0.01990712400480585,-0.019025220240256758,-0.01531514946450356,0.0011830010954349823,0.03083456597127169
-0.006488363235043239,-0.02276789570136721,-6.18408729283787E-4,-0.002866360278620181,-0.005684481961610928,-0.04610856320960489,-0.02343170008950541,0.012934772160965259
-0.004922141514806834,-0.0283819166211296,0.011885946642407955,-0.03515165605981442,-0.0063224092083337124,-0.018691364091919488,-0.004264497231782335,-0.015477742646485906
-0.0036771275596173894,-0.02378579913866897,-0.002826867883538517,0.010534085014738764,-0.013598533902094076,-0.009855394875339582,-0.04121127964342888,0.028612929543319093
0.00232486894042451,-0.011670814364400262,-0.006166044410288105,-0.009805344743043676,0.010646329285622182,-0.017805384079219916,-0.043299870763417646,0.03028300848355031
-0.01679612338368791,-0.0392530814477809,-0.004289356024842733,0.0046428509789739475,-0.03358477843592182,-0.016895540633267175,-0.037029035209304534,0.028453906850734678
-0.015039913229936482,-0.03284194594495679,-0.021866419507680354,-0.012093340454152071,-0.0028160028014981783,-0.011614293231007669,-0.030238642986007265,0.04121160910815464
-0.030766239707779985,-0.03551858115466145,-1.139358908108512E-4,-0.018038769722889036,0.004657904649346407,-0.02835746089538735,-0.026567013684581996,-0.014627203379936369
-0.03173588731212443,-0.06358473205662897,-0.024927540901304654,-0.016682020246738413,-0.027620942289002734,-0.012843337923011233,-0.04713840010903283,0.007021789366593215
-0.02167724386554455,-0.04586947648368509,0.01035518170428601,-0.01700284523722538,-0.04526661412384988,-0.007469848807079793,0.02007852003760316,-0.004981338008321585
-0.036523616511226965,-0.04386048623642193,-0.026783068224243617,-0.020879230301369678,-0.011996751679695043,-0.04890535513724752,0.002306129220068384,0.03517042158100591
-0.0270811011839303,-0.04716156354576057,0.007298163709980016,-0.033050768861515055,-0.018935343286184642,-0.04441989147265612,-0.029471831409134265,0.007179914741078784
-0.03500670832733892,-0.04238921816882009,-0.018096674032399868,0.005853162230653838,-0.016792547626186836,-0.02877674195526507,-0.0031047880305720144,0.0024262228859646615
-0.0271777883607341,-0.0576869914070486,-0.004477958320418876,-0.01765397211112156,-0.02720988618280411,-0.02758236418892443,-0.0029185210139677786,0.011940866908866206
-0.03304992010232607,-0.03023376454768585,-0.03057530955322734,-0.019007423825131667,-0.007038301389115834,-0.05886804618240216,-0.008708798443525609,1.5775402675236028E-4
-0.039676184912297935,-0.05545237917588213,-0.03284902334749201,-0.02610059643742635,-0.014240580469336753,-0.023095247685852457,-0.018237727363443396,0.04965026249561325
-0.02544372559237263,-0.046508374517939724,0.010263361521974088,-0.030197920379398974,-0.034605643335821126,-0.027338310609662214,-5.130368033949145E-4,-0.012429310530492291
-0.04225664922239164,-0.06255773963144715,-0.01955262161970403,-0.03145639064690481,-0.02898658442157275,-0.01132935437827659,-0.04843922089005214,0.025374767233693904
-0.03495844786296567,-0.0522974198751076,-0.0034041717702926466,-0.0136267536696041,-0.03422833260034212,-0.03611043502031924,-0.038129134482747434,0.016766083543611865
-0.02412849028835351,-0.05151194090760887,0.013599727845536161,-0.04116650551784687,-0.026905884906397726,-0.05724672314027303,-0.028755280795038245,-0.005935375826590202
-0.03423247057430348,-0.04510746509186779,-0.037700854659214314,-0.036698518351185545,-0.028869550562622026,-0.0384268615780895,-0.0205504428178086,-0.041267176322637586
-0.024479307336620862,-0.07292927710628679,-0.018738372589924224,-0.03667611682052791,-0.026859986835305254,-0.04785188778425253,0.019211819981617403,0.01768241183110962
-0.03232352498865556,-0.026136707009967945,0.002875410839052406,-0.021358230330171965,0.0014152084617015323,-0.008443089156640146,0.004571638090675012,0.02723274517069261
-0.029090118022423627,-0.04324852143138391,2.842763288193051E-4,-0.03282357039443626,-0.03202296146252892,-0.042408681209243564,0.005532063786349323,-0.04082017386825309
-0.03081381827118833,-0.056156218159380676,-0.003960811785619259,-0.03363374285253252,-0.012457874732795644,-0.0019242361929809187,0.03728059542466801,0.020150089097792367
-0.029969482498294894,-0.048986338401650786,-9.198814680765749E-4,-0.015506958190485642,-0.01915386512993101,-0.0030589416984221213,0.00216885069758789,0.008904317287704952
-0.04045523625348872,-0.04496701919186906,0.018733732866185515,-0.0140571288914354,-0.005699929498301455,-0.03841601357383282,0.037345145305733615,-0.032859667315745814
-0.04488468572275513,-0.05220417307820992,-0.027298978407277866,-0.012760889490311525,-0.0362038187951072,-0.02244857312871676,-0.002260797978651391,-0.01405421614718163
-0.03192708960934329,-0.048212128692167164,0.01829849326089389,-0.02501910353008223,-0.00942741903119395,-0.026960030060274337,-0.013202651203571024,0.03357588579562642
-0.030632915752164244,-0.0712178108740208,-0.002237485859876487,-0.02566470909227747,0.002919261196477556,0.002928115605167758,-0.05602380127522393,0.024520820151718435
-0.029612908296412766,-0.05976417345613744,-0.01557595305221754,0.005207983081776474,-0.002195641017557766,-0.034199473247964435,-0.02018739582681057,-0.01712436264342533
-0.03583968387983853,-0.03502292008474126,0.017822130301093544,-0.008814416833949582,0.004302920615038078,-0.05057764441538232,-0.0072179863690942855,-0.020070915542349813
-0.009060994187850419,-0.01571240721492434,0.018238075794488065,-0.011618045447205128,-0.00788552228256214,-0.025272553728065403,0.002671558267223109,0.061785775418443635
-0.016503881192634413,-0.047520227339806265,0.029193449879381855,-0.013113359752041115,-0.029967328546559535,-0.04774756548029985,0.028628968670009677,-0.0019194487057951556
-0.0320632433422358,-0.06044349318320901,0.034720676900112254,-0.007167915826183868,-0.04531019101890632,-0.07113135398991116,-0.007364170323208824,-0.018032248684373767
-0.03336703159168553,-0.0715739343985281,0.010257254564737611,-0.004889421723325071,-0.008457294214251065,-0.005114032886367456,-0.013955080409421651,-0.001391357279710865
-0.039800683534943995,-0.08024793673060217,-0.0022639743252362704,-0.016730994598951707,-0.011428763390301001,-0.09276272570776804,-0.021258954765737484,-0.006117536764976374
-0.02664834661874018,-0.0592947623417363,0.01403695055644072,-0.01914471655142215,-0.012366939946151317,-0.04627590020149977,-0.07154843119930737,-0.04179579408296578
-0.04022159205187682,-0.05790809341961842,0.02256871459402826,-0.01544932283512189,-0.024900158212370585,-0.06407320990570059,0.01791340936874193,-0.015832866158342705
-0.03869649373204825,-0.07711688905662852,0.015516865278758604,-0.03253552658488543,-0.022242274004299747,-0.052652467971137124,-0.06528515191364494,-0.004333300841455393
-0.03762933756766283,-0.08146044432959736,0.015948869861597437,-0.03504528621726516,-0.012845570589779233,-0.07631034607359205,-0.031928250954902815,-0.04039062583538326
-0.04716764848761178,-0.06350008775820445,0.006184445220407994,-0.025365678899864283,-0.03726685244674975,-0.044633076902172594,-0.0466002396165818,-0.050441022271694655
-0.048190653641810854,-0.09227361332431494,-0.006873426776802943,-0.05477322189983723,-0.013093435926677027,-0.04467600719185959,-0.007055164336652993,-0.03329663282437992
-0.04827274755206862,-0.09468840515153318,-0.003664844373874543,-0.02686104057617792,-0.005176823435947345,-0.05455817360724138,-0.04524799545689603,-0.03134984436601595
0.0,0.0,0.0,0.0,0.0,0.0,0.0,0.0
-0.002255391593637765,0.014180177686198926,0.0023114779449985717,-0.003931722820362589,0.015440966128945643,0.04304829764642784,0.005333326104590405,0.0416485190294215
-0.004788585182151459,0.009041389445366085,0.01115746327050264,-0.007123856922718226,0.005636458008217885,0.018597392537924067,0.024193544347450746,0.05286429301538305
-0.0037671956422162417,-0.0027630608574205143,0.0118145746635126,0.0015942622119944072,-0.03258447951775616,0.009678863639704393,-0.02034931193799226,0.04104386151783823
0.0031414596544361477,-0.0017749316579112467,0.03317082173597273,0.005353348467405816,-5.356064248068469E-4,0.05045958468613558,7.221441914567334E-4,0.01527332562948526
0.01535434020879791,-0.008812541241526153,-0.006139152468525894,0.0193223650969436,0.004728648667458552,-0.0015815267620775397,0.024997962968848708,0.06126741541124632
-0.00879454236519172,-0.0072088621610855025,0.004036132637788292,-6.034008942007243E-4,-0.007342248212066332,-0.0036715263599798424,0.011215440282426034,0.024078018413912702
-0.0051689057192092925,-0.001979126801387704,0.005503204080152646,0.011628314921223563,0.005731246500083158,-0.027942316883591327,-0.027459469589768186,0.05585940649100951
-0.009404447279267977,-0.01889061378716509,-0.004878020144724576,-8.806194480507831E-4,-0.026177358643106278,0.018379317021013693,-0.022916917706128546,0.06753284190678314
-0.007761614991973392,-0.004095813893554914,-0.022276855344382562,-0.005165029542587678,0.016168591855398828,-0.002066645339207439,0.02154195063143037,0.04117550813958638
-0.012803953855274393,-1.656373498538019E-4,0.006468338254559336,0.02059666312038469,-0.02010574819423104,0.005698610677401964,-0.023447447416513893,0.01861409742630877
-0.009712563398610905,0.004425377486908352,-0.004672807237405693,-0.0011351221821155472,0.01285540549941529,0.004877983704611771,-0.013807779421487316,0.04968822128054837
-0.014981495298593384,-0.02196195376523504,-0.006042056949267405,0.016777174399800712,0.014138463814490496,0.007069798177921156,0.02110485751017188,0.04374817832460456
-0.010539560719025733,0.001010044439809142,0.0038047692637596386,0.01469741413847854,-0.007071926179527538,0.02869949045604071,-0.026057080824082323,0.004516439643325092
-0.010190094152417013,-0.009764976058194416,-0.0032809418127139334,0.017657949949549806,0.01288525817355796,0.024689698118799387,0.04220436828914784,0.05820916893564476
-0.010750819443429836,-0.019580509659595506,-0.01041704579346571,0.0201813620375164,-0.011907659115207813,0.01931789069009666,0.0011592102172356192,0.09952494807704236
-0.012663325025838994,0.007691407899842972,-0.017134880576543374,0.025130474768598435,-0.03580381748664303,0.03996997323161393,-0.012113356693281334,0.051558596965536024
-0.0016466939764527215,3.4507432128132523E-4,0.01946077578529734,0.01441007694883259,-0.004924336137125439,-0.01750045647713494,0.03106081915160183,0.030928709233150012
0.015525463216045927,-0.31626406893426773,0.31491202956158126,0.16197745447726525,0.059923547890821965,0.17577783525477922,0.3789666818103138,-0.5409150295758383
0.03278937143687842,-0.4059026589744374,0.36379674056416705,0.15936445788966086,0.06108361090852056,0.1850115925746625,0.4755458159112894,-0.8069724226344803
0.03851751789223995,-0.4119194225663786,0.3507977756270277,0.16914727679159502,0.043794281843964555,0.20269278305505473,0.4039740011011602,-0.8561651853206039
0.007231729077444164,-0.40227688993683003,0.37553487578896283,0.15900345900214047,0.07768980882944625,0.22070810664360177,0.3903385772841239,-0.8036832734454085
0.04293724160254424,-0.42860366588685533,0.32305315894602027,0.14486782506687668,0.06244938049793848,0.224341779965293,0.44370440983931314,-0.8747963996982597
0.02289642190999682,-0.4142661510697126,0.3583273293738607,0.151597780520624,0.051251130306780926,0.2166720165313691,0.4259071395858418,-0.8432219583715861
0.026696706979692685,-0.4089867841502286,0.3572217381733579,0.13916670717828794,0.04736985338298176,0.20718772328597773,0.41034423786146756,-0.8595907369723831
0.042014693586356525,-0.396169796414269,0.3504126877037123,0.16563908777252484,0.07140494485373176,0.20504369006292128,0.4344023515999047,-0.8286296620932289
0.04955299742343122,-0.4133065634118482,0.3582019787478767,0.14709568568772058,0.05403223460483386,0.1964703754053892,0.4543964026998939,-0.8421022708562608
0.01930362893318514,-0.4098437190207092,0.36128002761994943,0.13409005147993003,0.05246822040112943,0.21011900963932736,0.38939869377544245,-0.8446608149446128
0.014690521849006356,-0.4086248327140553,0.35094203536037305,0.13965147914042286,0.056851266075894455,0.19927731565157142,0.39964917395541744,-0.8314987453969693
0.01814588735566747,-0.4026949746684975,0.347486511126565,0.15010850047351287,0.053842246548111,0.18908642862468386,0.3943427927193144,-0.7920614654879181
0.025512683069918055,-0.4309843430127862,0.3568553669978645,0.12107258480646936,0.06792264597411195,0.17472930709943355,0.44124361960761505,-0.9112700823704708
0.006578027253513253,-0.4405362094752839,0.32420853376248526,0.13448054768053408,0.04188569261883966,0.21876791507070628,0.418566518972186,-0.8290391338411582
0.018953486460684652,-0.41568150686073163,0.3678550623996117,0.1093770090796821,0.07111733817408804,0.21110188692781537,0.42693890719537275,-0.8059594968740863
0.013775032331079122,-0.4251525274310903,0.313857245481356,0.12220081247730323,0.07186784662721729,0.21558226362923977,0.4345359853568269,-0.8512515580436443
0.016042269359975794,-0.4298494922665004,0.33351919389765344,0.14041235798341845,0.05534251948373113,0.22097635363222043,0.43418096562917374,-0.8512418486315269
0.02387535347803482,-0.4276275495488852,0.34495765857966615,0.12854487643762835,0.056107222448493324,0.2011996860495288,0.4406181219607065,-0.7924119402399645
0.022256423938892406,-0.41672876554484345,0.3533397137044061,0.13311147986527838,0.061806592486126175,0.16267448252159647,0.401901900770922,-0.8630633088448978
0.019365410995524353,-0.40615092798607677,0.3594635585931954,0.12637663065548232,0.05093631734292031,0.2125542436822157,0.4085787852577143,-0.8137568239858314
0.025984625209568787,-0.42730406496453216,0.329937608986943,0.12814004356901337,0.06541375578484593,0.20324730356145213,0.48145105791111975,-0.7665780483033683
0.02754095350871236,-0.4010374014507296,0.3629184149192971,0.15554565534321474,0.047318362269058056,0.22756569374591704,0.47591290124294694,-0.8107475628681676
0.02643352786791924,-0.4275169085159052,0.35696911822561406,0.16710896013971532,0.07382087138022324,0.17205319112104675,0.41188768134166065,-0.8829443863023123
0.020589659833230703,-0.4282058178502569,0.3672864794379653,0.14677805405760724,0.03785246192410949,0.19923007307872187,0.4635753184872735,-0.8536725781035158
0.01822107825820966,-0.4127257821311574,0.37380863554760607,0.15464087472177962,0.0760563468641596,0.24291376711905957,0.4585740068355475,-0.8142844952461851
0.03392722182250594,-0.4179681259940449,0.3673204075434572,0.17194140686125708,0.07587844608635785,0.20788988865592653,0.4864404643657587,-0.8066179923949207
0.03716571667964575,-0.38683803226175695,0.3959982351269119,0.17347652009659686,0.07759598342788795,0.20850591381950273,0.46870245479538286,-0.7974960060640761
0.02437004727708185,-0.38823645892879316,0.37330489012669354,0.1599194186001774,0.0750164680330232,0.24380616876051328,0.4660591299125634,-0.815572194114351
0.027159686699638915,-0.4054522615691461,0.3704772792195579,0.1621592450555387,0.06472060972507766,0.1988174679298553,0.41464620806004326,-0.799027345692665
0.02359298728025407,-0.40059526838985476,0.3685854167202887,0.17064104145013953,0.053352472983283356,0.19396969884239276,0.40438217103807583,-0.8183664761465186
0.03195412446999536,-0.3993673927871918,0.3580721184050653,0.18444637872741498,0.09111324757333118,0.2178142298671468,0.4933864353508417,-0.8227770398230774
0.04243586467798922,-0.3936081000941373,0.3476098999386637,0.1657976718662409,0.05848259251995083,0.23976264879492873,0.462290674829825,-0.8396082768007053
0.04579225840980162,-0.39647049173831517,0.38262592963785813,0.17847490620476703,0.059654505775585634,0.23094538894371144,0.4211846956252665,-0.839227391938383
0.03357866310263595,-0.40241338849057673,0.35952471429867183,0.18585231659986928,0.07878354676068866,0.22919428817226642,0.45241410580750274,-0.7709830264528227
0.042054237450397235,-0.38282609602412493,0.3967689414845668,0.19058719793538426,0.07475466915431561,0.21985628901350238,0.47831748614232417,-0.8079186406238111
0.05244683814707556,-0.3736763957460099,0.41638150503815224,0.1989911314136043,0.08509442348251807,0.22597967695595586,0.4577280797827943,-0.8008745097863046
0.04699880151510883,-0.3851763887507915,0.4141863233510324,0.1668551480877049,0.0685761037589385,0.19915194212066684,0.45896141330306917,-0.8380799867938872
0.03252442073275836,-0.3736723951419198,0.3387507186416941,0.17487235428659514,0.06291644827036112,0.23262233628143172,0.4500950788596625,-0.8180365791746198
0.0440536139397056,-0.40201007398994487,0.381546083176192,0.18681544160340546,0.06496558011146031,0.20377345892783005,0.42064123461455705,-0.8416269226420874
0.047743355100491575,-0.39245690549202666,0.3737296270147681,0.17628709444836999,0.062166999189818065,0.17849010894322667,0.4580865769826339,-0.8635347344875156
0.05024535465703877,-0.4043683870079231,0.36690707087113544,0.18919710333842182,0.04232368775071521,0.2009138974895731,0.43126894514786507,-0.8842897368322868
0.04439061590085881,-0.40427483871197883,0.37568112899588463,0.16943461002484772,0.04586765738940349,0.19731302153680041,0.4918508387929731,-0.8408323421701204
0.024550497911989863,-0.39406303877465015,0.36257983440774494,0.1859973100765358,0.05357103891475583,0.1632199076238069,0.4347836108301322,-0.9039759401021583
0.023372581688461173,-0.41755254083367427,0.3744136248662537,0.17563541308034109,0.047329643520839265,0.22599174304134498,0.42777866493676797,-0.8680517153054795
0.017854503085918343,-0.41471411179512946,0.35863843737424683,0.1875124416744568,0.02845844628741762,0.17693262366970572,0.45649857082507095,-0.8433880913955791
0.02622374862004952,-0.441033894986688,0.3906428458866286,0.1733710778491689,0.04947224358173216,0.19126752935086117,0.44067983313427794,-0.8411020248329447
0.01761253851890216,-0.4246319465918282,0.3570542297790522,0.15260747668025287,0.03992168284828035,0.17310134226835114,0.45325707869881826,-0.8434659261148147
0.01245093115503574,-0.4187382971672079,0.3438397398084287,0.15810355967693235,0.042015892668555085,0.2172196678179437,0.4357861955332699,-0.8268860430880527
0.013342549460394863,-0.4259097902168451,0.32670658604535957,0.14526044014647949,0.05693692753582223,0.20691828580227467,0.43011328563795914,-0.8848478602881925
0.026098171343914303,-0.44467476378537885,0.3723479602942949,0.1540745366406957,0.022253063794515113,0.20228708308427373,0.4649041887294666,-0.8550052060858103
0.020475219625346184,-0.42112797840982885,0.31935771540716684,0.15992608020159316,0.0611602616550853,0.2159685791515805,0.46637372345399164,-0.8176255621362258
0.02542854047417788,-0.4274555786618676,0.3539255827126394,0.1499908901498031,0.04958710172582259,0.21163560387310226,0.4414390582197899,-0.8729507235339717
0.014890212949784348,-0.43473844275619633,0.357340491512716,0.1646553295702583,0.03196994770508063,0.16739802129165698,0.4075466507970852,-0.905177545035131
8.834052365177094E-4,-0.4448757936739461,0.35581429727334346,0.1695670172593049,0.058994229414716395,0.20072686311594454,0.45811007806097837,-0.8660083226639091
0.026218267830299923,-0.4284489337780182,0.33928757891157385,0.15719061181799265,0.04422897023596144,0.19442979307415123,0.4009315309832192,-0.8207361875657401
0.018999481063852148,-0.4274419189478145,0.34743504413785564,0.14149658148498562,0.04515651607923564,0.17506466650534167,0.4106369558559475,-0.878059146673195
0.013234667693351323,-0.43202075746579355,0.3499716869225549,0.14826752529595977,0.029751759300430506,0.20530807416179267,0.44060077227195005,-0.8444128968372909
0.026838231439287086,-0.4380983254308106,0.36385567515874034,0.13964246162732763,0.03496512335227567,0.19880872535051017,0.4693234723537806,-0.8311238308690746
0.02035357685861021,-0.41750503314593745,0.32804959387729515,0.14312987815881756,0.051292147894234225,0.1906377453224339,0.42552918174836607,-0.8455385364602437
0.021363730035014964,-0.4383258943700116,0.3381708011174735,0.1472931390343804,0.035691148829879255,0.1741856549977602,0.43697510912754844,-0.8679375185780577
0.010614086914443953,-0.41003378229503396,0.34381592021805135,0.1041846759929732,0.04717128706877974,0.20059487616515415,0.42574305835336723,-0.8450758622406123
0.018953272227955606,-0.4203683288810129,0.37312230611834163,0.12874175683990696,0.060232041035140335,0.20831388761123845,0.44427948357845326,-0.8361376962797993
0.012825059987518827,-0.4288617436432376,0.3384467148366156,0.1208624814406354,0.043050165393682976,0.1760349875457737,0.4109494019572494,-0.8917961543784277
0.021960353327925414,-0.42741439548023336,0.31927804210409966,0.12267925502547884,0.05811562384520094,0.19321265461840006,0.3946047825456124,-0.8000729418825208
0.027280849407186888,-0.4180808531473741,0.35574052647688575,0.14983013582654914,0.07711575659725182,0.17633678893715543,0.3969213035713218,-0.840051735738737
0.021438158230226184,-0.4162086746942213,0.3650757682369321,0.11919220453013689,0.04494881607354363,0.19466845698122895,0.3954747113500574,-0.8414459562646897
0.022251817590976254,-0.43795110238019486,0.33480493671913825,0.12011854188317532,0.03640673614928658,0.16537375855544767,0.41208218512725925,-0.866784329147867
0.02600698359675223,-0.40839625076894476,0.335152404603028,0.12733218048206896,0.05808348028056916,0.20062942943000645,0.40306742729151523,-0.8659013244838499
0.03241327623262304,-0.40905890763051117,0.3593199239162218,0.12193105585912327,0.042618640375003305,0.19567508628703034,0.40841011685619644,-0.8652232369136635
0.03125893757854832,-0.42209038243357927,0.34399143617273026,0.12435386406561537,0.04563008855694063,0.17530240645943249,0.4143592400107077,-0.8985806755426798
0.01869965648645076,-0.4236006390655536,0.3507383453244679,0.1344723817422835,0.04223458137959425,0.1740377470591336,0.3944555405427904,-0.835431391698921
0.03175249393696184,-0.41053989560354165,0.3721833144289641,0.13000088942157528,0.03596779657224351,0.1850180553844249,0.4354355254784241,-0.8664091575813125
0.028915749973323624,-0.43318713048577945,0.34716111360105895,0.12181087453436794,0.03574091874817231,0.19812542380892106,0.3826048081977502,-0.8604156196394843
0.032310213048151896,-0.4258539708161882,0.36659149210333547,0.14354698503795793,0.034382120827455995,0.15918237308078942,0.4107448130040209,-0.9176285047938127
0.03055158609113436,-0.4275997820892532,0.36973684891889985,0.15185850901760045,0.03389425531092999,0.1609550492736265,0.4044894653161911,-0.8483448824547577
0.02664289318361219,-0.4137086633576964,0.3485007398382235,0.15469497607865246,0.051684787174189464,0.18995879365586846,0.45035674278919413,-0.8283710131584083
0.026478110186914195,-0.43422372784030505,0.3651143173531504,0.13367786126183856,0.05232261144379337,0.20582631696861312,0.3732608163036659,-0.9128274734379056
0.02953105772992377,-0.4183957723816587,0.3555324580982064,0.15736726032791254,0.03690010301819896,0.17447149420849084,0.4171096750490696,-0.8716825955011326
0.023009741101830922,-0.4127993926507025,0.36020623521633965,0.15378128545636421,0.03925825907805727,0.1864798718142164,0.4045264863838327,-0.8627077520341849
0.028575910770181057,-0.4093616908561253,0.340850030070063,0.16709570746339042,0.04342172968624522,0.18220392718689019,0.4690392957436833,-0.8361398530031088
0.019652003002677096,-0.4332351891179519,0.3485168093463111,0.15301995488701275,0.0170030371436098,0.1724212009895666,0.43300063045637827,-0.8857204040894315
0.021791798019100344,-0.43013040475794273,0.3638527972850887,0.13451447274999417,0.04321981552319666,0.20044668006273836,0.459812314252099,-0.8605181353566013
0.028190106781770505,-0.42689868159654076,0.36482669084757924,0.17002382402298022,0.02608264242482988,0.2019336378855942,0.42925387575874585,-0.8981501536954395
0.026931610811712605,-0.42718779003421564,0.3652744397539266,0.15696476784965252,0.04279581263178728,0.16822709458233645,0.39420664058170307,-0.8661558556376872
0.02911722614121497,-0.42654441388401115,0.37255563550540394,0.18105966435437676,0.036272100196815704,0.18294195945633904,0.4286233712917522,-0.8678448344669978
0.014565513868170465,-0.42635332204795084,0.367443474226747,0.20328248806876648,0.050395009026985,0.14427335667196722,0.44481382987290863,-0.8220768442827349
0.009498067023008813,-0.4458753498688149,0.36458163272324845,0.1793753831255228,0.040946018292530695,0.1586264067919457,0.4181358908501852,-0.861720989278448
0.03149946494563572,-0.4499608336483212,0.3655569654333646,0.17205957787274906,0.0336425815993769,0.16165705989848309,0.4319359497332804,-0.9114533292939615
0.012428941410151922,-0.4291826986754051,0.38743759219739243,0.19946021294026894,0.032446042465312686,0.17891943428859772,0.4694408528302758,-0.8813687947256347
0.01860798853955155,-0.44742217294189984,0.38926703348629915,0.16929820335909346,0.04145078368250567,0.1569420729081479,0.38321166552148545,-0.8737530187259449
0.017503269590963384,-0.4421532469969832,0.3282539967646409,0.17424985312718633,0.03314197835577824,0.17389239000209453,0.42424313370106714,-0.901854305972859
0.01547440473232152,-0.4431927876788683,0.3304952817617955,0.1764362024260191,0.008651315996209809,0.16319956794911739,0.34828381720628343,-0.9142600012129216
0.016365784080232038,-0.45838824776779746,0.3292404139648431,0.15077412983632127,0.049183306373677765,0.14180331383041783,0.4451454240796995,-0.8878702316574553
0.008919799394625547,-0.4503474648884051,0.3454111193671357,0.16220139089532132,0.02523796058183864,0.1655364160204387,0.4290381360996338,-0.9165939280846249
0.01708981432787154,-0.43843471265506617,0.3680458899320081,0.16705902232667802,0.028131252359582564,0.1887765658362368,0.4189259768591519,-0.9653226606227983
0.01614858195970378,-0.43365643635148293,0.35839353211395614,0.16742414259351995,0.07060749513530859,0.18484804412786068,0.41638372238244026,-0.8705505194245657
0.018533639887888587,-0.4513243959739199,0.3501011057267644,0.19047125399120568,0.016222153925719445,0.160190296873911,0.4334602872676664,-0.8642179621635933
0.016243079293096117,-0.44838090294103594,0.34329918255522024,0.16657124501730758,0.04743766005973632,0.18188447851384046,0.42511757987504584,-0.9026862073867306
0.011400708482753416,-0.44052077619414687,0.35708130664438303,0.18122352594720326,0.036315974543351906,0.17223864840090122,0.42459829343459765,-0.9128684034701117
0.01748018503189012,-0.42155816889947206,0.35670599170342643,0.15931911539624044,0.027031550141936502,0.15902951516354208,0.46486457218667987,-0.9189594716274999
0.017800252478362203,-0.4419337315866398,0.38083356112445094,0.1774786806888602,0.03474705431643059,0.18370718608683698,0.45702638915247595,-0.8967914401060659
0.00826050005158424,-0.4511515336788563,0.3704340350363212,0.1814950404553054,0.020196715862916718,0.17710935128254104,0.44905215360940665,-0.9424202363722615
0.010372405704761396,-0.4264663384832965,0.3423416281770502,0.1583820350829937,0.059299962598094974,0.1564082728143159,0.41435016963520854,-0.8792777323569354
0.024264399529217932,-0.43665816099814075,0.3648809044133732,0.14659964557459154,0.019461862349743866,0.17828639880134908,0.41535762301187384,-0.9184284510306715
0.026893030272689942,-0.44373578208382614,0.37382427533593804,0.1668864806396027,0.03109955127395553,0.1522020148032836,0.44601052420670795,-0.9484002477645005
0.009762158553523966,-0.437332463744101,0.3208250785693675,0.1510598052490878,0.025714920395619786,0.20868520562714488,0.4603418089140724,-0.9103734814677297
0.013431458035391749,-0.4523618346051151,0.3555370692791917,0.15802140245972757,0.0270839699403148,0.1749571422730225,0.4142292719288675,-0.8999586499544883
0.0,0.0,0.0,0.0,0.0,0.0,0.0,0.0
0.0044940833684764675,-0.0033556042529839236,-0.0092514622423292,0.0013034518046255716,0.019292778079887902,-0.02298501232261768,0.027113614398022845,-0.036332118632797394
-0.0032323157838747806,0.016837866995995654,-6.817458018972822E-4,-0.006780316262837205,0.03598976170583275,-2.786415570060763E-5,-0.04388203888254805,0.05551411985720611
-0.0024389040813875794,0.004986091989596819,-0.015213056074547315,-0.0061467710882004145,0.006224706406805471,3.037319828251561E-4,-0.04132612053537599,0.025881743804266
-0.0037257864646245697,-0.005813515696689142,0.016703973923348103,-4.837677421415387E-4,0.03124315689417263,-0.04276093871577047,-0.055605566720860755,-0.04102289151605787
-0.0017405561692706885,0.007055060747987396,-0.014340005020870739,-0.013356626897109397,0.03420457580851341,-0.014657397730397509,-0.04633413741096393,0.01414985524742196
0.0013467262457928716,0.0047029950953138,-0.010995539639904905,-0.0147737444318507,0.041056118798255145,-0.02796594398234553,-0.03997727434023923,-0.03216556132630266
0.001757198355422561,0.0010334697687589545,0.021366165070317966,-0.01889247420060755,0.0066893855731594044,-0.014640237716856186,-0.06628754989177482,-0.035342526563729826
0.0073372644231203266,0.006466368702965075,0.0230349254077859,-0.0029507272270288543,0.0018693708773934899,-0.04637552737472975,-0.06410349724415393,-0.026841041464579662
-0.008280102312607548,0.0058812018169936975,0.03778278544448993,-0.024851406597992676,0.03420811649012229,-0.01764269365802415,-0.04587666107187105,0.006090298295353458
-0.0032038586404127788,0.006922339430024904,-0.011487594246136934,-0.0129247539050458,0.046979831246616546,-0.04598941616683369,-0.07859839506526017,-0.027021311386571267
-0.005545435430336875,0.0167937605851165,-0.009633541698358394,-0.0030652086747849916,0.03060484861790173,-0.03444756204197222,-0.05321109363931048,-0.0036190235880880772
0.014122470594708569,0.01428724378450813,0.012719960530774455,-0.026205556865112917,0.01993834286384998,-0.046439756940177684,-0.055961609060441675,-0.015217911762596126
-0.0057609904320079265,0.010370131934035576,-0.01196504005733584,2.7644934300380397E-5,0.03074869827136972,-0.03383657923342631,-0.024272759752467732,0.002127637776706104
0.0028306325901253475,0.014504178466445528,-0.016802730235129182,0.0031541317340791075,0.0370377433959716,-0.025438079559444493,-0.045206908342467156,0.003437230351862386
0.0024142354154000657,-0.002179340620956538,0.003640593102636369,0.004615252549374199,0.008905554584665156,-0.033595626803337386,-0.06825239939738731,0.007289709200934191
0.004843064642910837,0.024965795321443718,0.030617223436572583,-0.00804292801826978,0.028333869880037558,-0.033083126226385845,-0.029161602852746826,0.05135310753276312
-0.004856035950678045,0.02581140702907303,0.012683605584798141,0.005110265309729994,0.04720287039614761,-0.048768737595632716,-0.039406083778656675,0.032003471346314316
-0.003916656419825342,0.005235475339166962,-0.005511455115807529,-0.020240256052783706,0.0032012987829325365,-0.045674858939618534,-0.0887425806195099,-0.03585156116274868
0.004301910373297406,0.019704641494463493,0.006454583673717151,-0.006524162590857002,0.010548713136182743,-0.05469952584875937,-0.047997999660499446,-0.057455446608021044
-0.005648173686021701,0.009620480569168088,3.6414724032429735E-5,-0.011298112847636321,0.03515765340436308,-0.04980132139131285,-0.044398301368576254,0.016761613406529707
-0.003575859782574284,0.013400336286893133,-0.0011101858131903897,-0.00147807056943966,0.016971607022599842,-0.052565685087084424,-0.017329707949865547,-0.01357741943277102
0.012547436895561839,0.008203292204259027,0.015314866529977988,0.011405954250776645,0.037529398242562684,-0.06568138074938942,-0.04665252034699224,-0.09049873178475254
0.001370572582881948,3.5406332094795046E-4,0.022172376817635342,0.013866432361795106,0.01523089612489419,-0.008992346910571214,-0.05871146314098746,-0.0688883880729767
3.8945074684602204E-4,-0.0012639316952415824,0.026852071984200532,0.023303816139699868,0.0160670422914999,-0.013238630201661827,-0.08855997461279164,-0.024513907174550043
0.009523220413781602,-0.022645204710233457,-0.0030204653344041987,0.007742123412718405,-0.009050367856494405,-0.0526288342633591,-0.06542424309041395,-0.08201455908471367
-0.01444215749904662,-0.007881423853671854,0.025432595550329784,0.03036765511584899,0.0016767046309671026,-0.03969003378455688,-0.07981329966093631,-0.05616717271959937
-0.0057651488351451105,-0.019273908263566453,0.032260686321527454,0.030390940947825046,0.010013710850516454,-0.03864882912878154,-0.06737580112138791,-0.05262564995522956
0.006535000572819364,-0.011179921117305203,0.04003770873867413,0.03188785320825582,0.01326324207620545,-0.06116449973527377,-0.0661512455629773,-0.095582347826072
0.004757840847261611,0.0023483971045958896,0.04714102167711948,0.03681699468630556,0.0069145748249586185,-0.01765668986604274,-0.05572196415193714,-0.09886078405414334
-0.01697107177792941,0.008381297629136641,0.030750382541225973,0.05609944934344499,0.02041146577341744,-0.05150144584574343,-0.04252161938649962,-0.05465566504938568
-0.006977650541445075,-0.02495677912061023,0.0056423497804504175,0.05488617761970155,0.01392760047450867,-0.05732232043619262,0.013394397377852085,-0.07035253051607682
-0.009992786642814147,-0.005877302987054078,0.022901095050183673,0.0641400098389378,0.003162999133990107,-0.042413389510285004,-0.09229944656404393,-0.06432014598650615
-0.015515753142410795,-0.02191074708870666,0.0025449382268483145,0.036008566499488165,-0.006628842715353071,-0.062354490586204014,-0.033463673054259735,-0.09303448986180696
-0.003887850251950667,0.013947419296855945,0.02382131212102062,0.03778817466201423,0.013145181173013807,0.02972256639866422,0.016972125548084693,-0.0393240879055935
0.004256094086210426,-8.788805960943669E-4,0.01568953441682619,0.053837241584314494,-4.485221262400113E-4,-0.034866490396520455,-0.01737450972623772,-0.08956869767906217
6.795200244452126E-4,-0.024819295498834326,0.00468984076577178,0.04922214094816793,0.0118933214015348,-0.03486051207125862,-0.03147841069659457,-0.11465431140089777
-0.012312603368209833,-0.025930699889919695,0.02254522520306268,0.06207433253336736,0.01476953338504709,-0.04211123335208719,-0.03287296895744363,-0.060817724169985876
-0.013289003921216534,-0.02346986711436716,-2.888214623305019E-4,0.051208334190265825,-0.006544074099929541,-0.015525133829296017,-0.022069872968167537,-0.05395153404472253
-0.006368659144240936,-0.011407596463335778,0.009051434905800737,0.07276471096401871,0.0043680448172296014,-0.04339348202122301,-0.004326754842312874,-0.06945297947847995
0.0017564008948301978,-0.026204539879421507,0.04994672517132043,0.05202885636277077,-0.014540696518887463,-0.052795626722595995,-0.0161689958105809,-0.08562627455896532
-0.005674186669855117,-0.025419646159853038,-0.022431384056542658,0.03919691355570609,0.016050991962073855,-0.02808636306836529,-0.022509982545642737,-0.08420309493864608
-0.01176014915943922,-0.03146304514968934,0.005299378647058928,0.055568551165656316,0.006462036996880017,-0.017386938353150333,-0.05132834279452331,-0.08899133271229731
-0.007551411917663498,-0.04997078051676973,-0.015809374203679394,0.057347765380891175,-0.010464873408457734,-0.06207227867430476,-0.046634974396850326,-0.088211848317018
-0.014377678632846556,-0.02616842997008295,0.00562921654469406,0.05619698590716912,0.030001810971675934,-0.029195686210961552,-4.604393573831578E-4,-0.09114191558178963
1.0738954146985447E-4,-0.021808069632935245,-0.0022966739133321035,0.04854088119410008,0.023263469730159286,-0.034696516082550616,-0.01192943435509991,-0.1062161282893399
-2.0525716299056238E-4,-0.007067074374120075,0.024963245670007794,0.042062458400962205,-0.01674829938421625,-0.020708326275920452,-0.024136656476994867,-0.08654978910521205
-0.004079528368659026,-0.024318687028289654,0.018509116078516297,0.05157285955984686,-0.005679926672925776,-0.04215263302662542,0.017562847895901013,-0.0813265923508355
-0.013744249915432995,-0.041027560117843476,-0.008809904535299451,0.060453716783459954,-0.003865382468976424,-0.003800864200218218,0.007212087499662123,-0.05387355614273259
-0.019004072991094103,-0.026279557565620615,-0.009403673221286935,0.05837101464372724,0.009492398622660301,-0.04277621099692802,-0.028076186848533913,-0.050889670503388995
-0.015946788973295104,-0.04317596032505466,0.00574794763473957,0.03399236526593577,-0.003422320101977183,-0.05914146176579285,0.0017384012235191482,-0.08585634476861248
0.0019144891461235596,-0.023303015774760016,0.00881606578916283,0.03989434951686316,0.0026378771149562566,-0.0038509354710352384,-0.007635853229594258,-0.059470642603167034
-0.010795119031235355,-0.0321771833875667,-0.006364650968364249,0.04211582003084999,0.023749158116103255,-0.013183456535052401,0.016733191497803723,-0.09782961861754935
-0.011663824627890779,-0.03257355734731604,-0.006998952760524202,0.042210053109166534,0.003801415088142794,-0.013211122205726122,-0.0011699276254454327,-0.10869745934490416
-0.0075760417852840795,-0.044595436531353005,-5.670923658537275E-4,0.034551957417978924,0.004611685936139004,-0.04577233217597734,-0.01745872862136455,-0.09183290371367892
0.0034843285000937946,-0.026190369610727515,0.002466668244439252,0.03933770445237919,9.553712969123662E-4,-0.014517874723025098,-0.02862852651390463,-0.05332309689094661
-0.00789643635716497,-0.03523816841231131,0.030153992939031538,0.03160513896090128,0.01827835951811217,-0.04006840766128508,-0.041387975495291995,-0.0771765829863964
-0.015952117396074564,-0.011741698614093243,0.016762405252077672,0.051773398930303305,0.02889378427411735,0.01586722007370983,-0.00799262363477743,-0.05556423250561182
-0.01223872425606062,-0.023038168720881158,-0.004896451369171717,0.027314203175711815,0.025849650994613244,-0.01757457327907841,-0.021320148083795454,-0.03463932602735076
-0.012256939230923412,-0.033714950785356024,0.0245045400676433,0.023503919763707443,0.03279270419581362,-0.028408674205991025,0.008852965707896066,-0.0826879391716886
-0.005795645920716609,-0.049645065982974135,0.02034149626388876,0.028657534677930335,0.024411323900772403,-0.013341968021430756,-0.002608404131676678,-0.09320893576594003
-0.006806203297120122,-0.0164672636209916,0.027411063054903373,0.03546786736522678,0.012251316828727609,-0.040401183448682654,-0.051382751059104226,-0.04880169968646819
-0.007024695068842417,-0.024191321445792946,0.012160629215378804,0.04116173334077455,0.0189257193946057,-0.02792421544102283,-0.005993552489173326,-0.024189185306099037
-0.0022461716264044577,-0.018096636316459802,0.049725949872298836,0.03432188586457505,0.03672706963762423,-0.024825748649303564,-0.049464546059149794,-0.023374462147972674
-0.014665445831653745,-0.02501136686332983,0.0171036861294544,0.04084456217064347,0.029206704502444423,-0.0033677198304347677,0.0022978334652507537,-5.947482409570659E-4
-0.006893821796138731,-0.01976047428518818,0.0018476416666245998,0.04016751362651455,0.030203677972174787,-0.024378508979385982,-0.005090563226399392,-0.049750220954541735
-0.012409059765543668,-0.023516932412479097,0.010476723816452538,0.08355570606077989,0.014101928542021799,-0.04829194482231469,-0.03496931386324076,-0.07519712112672217
-0.0011276252369725667,-0.014012385327807686,0.004014261644315065,0.024605079429193988,0.0172220328077661,0.013430267922426214,0.0031062369845510918,-0.025660844529076576
-0.010385484764428174,-0.006819282295459195,0.004344333274047263,0.01946934750958859,0.01512792214645706,-0.043436233951939435,-0.03691258468226216,0.01947167228631974
-0.0016738245886573112,-0.03636888836031593,-0.02006972207554686,0.03395732941192259,0.005509788264030174,0.0034482482806323655,-0.03230531770445133,-0.0725190898737389
-0.009565530646140514,-0.01212968023898775,-0.015192068201607734,0.03054769931254836,0.007218567689026834,-0.022432594138822204,-0.04996181862309479,-0.05315507245869777
-9.764578701973135E-4,-0.010225601693727548,0.005040439712663214,0.02280335500021191,0.034598346115294026,-0.026433533924627023,0.011261753404243513,-0.06787521738429936
-0.01510244489592098,-0.025899772011783506,-0.013853625546031145,0.003761150541725128,0.01519513092903019,-0.029337990006943204,-0.06290262161158772,-0.05762291536204733
-0.0032163119517469863,-0.028128006974466158,0.006607554950706251,0.020231290827142895,0.0287636040026179,-0.023142330088134155,-0.03394035697660913,-0.06677160097480139
-0.001844307936224674,-0.010726328806254237,0.011624328198861278,0.036612010528057154,0.05565615731309442,-0.038216939605464434,-0.05921060180397558,0.03077402144214325
-0.014505500864084942,-0.021400706108124556,-0.01810608082486026,0.029935268482357308,0.032843748622042215,-0.01754263128376271,-0.0019934167157951155,-0.08010003971097879
-0.018802393004791234,-0.011500537464168792,0.031076602519338026,0.018067858849317026,0.007753076899475495,-0.032937807900316085,-0.09153065792367582,-0.07287234041763146
-0.013512478011728475,-0.01833667182951204,0.0017241057266683124,0.021658192333897153,0.010666588972697687,-0.05166385503629753,-0.03611215987016747,-0.03509562966341562
-0.006312827953833738,-0.03005593676334939,0.0017099365176965198,0.03198200565328965,0.02744550347143118,-0.05703876427709109,-0.061546468577034996,-0.014429860861608246
0.002939257714682314,-0.023732057967508546,0.027892882129441188,0.030076592468353203,0.013531518384148598,-0.0458097578514203,-0.07853456041038054,-0.026546584490719782
-0.0065845642751560865,-0.03000047972848363,0.01105248910887735,0.0028181244387184556,0.033310187429125754,-0.04887839031909544,-0.08165145719339223,0.03739403054513579
-0.01301617448744438,-0.012937949674957594,-0.017628365526794032,0.012248764727130546,0.033440402145351655,-0.029401237120747603,-0.07336629603935635,0.008991127358689344
-0.012575560395258808,-0.029092371541469708,0.011003353134053317,0.006470251050364834,0.00414206557585604,-0.04999977638936065,-0.0529901690776452,-0.025086835098566906
-0.011841583601817198,-0.03356714074028533,0.01305387146074527,0.028123898848204154,0.029628033476464,-0.04889115170625946,-0.061739439407844376,-0.024386815575587972
-0.005640134116210234,-0.015247948862685379,0.011911333329576002,0.015053948872584572,0.05036922140026569,-0.03685603235357998,-0.07975368021842194,0.011839305251432952
-0.0066925941429391515,-0.030332340705367944,0.002794687570961296,0.02717925413438821,0.011825247246741253,-0.004699882963905333,-0.04479598182457223,-0.036947969074146325
-0.01094747248814064,-0.03274053127490728,-0.002382817630989076,0.011882547583936393,0.02560833483104581,-0.05705063789362991,-0.0782295542710264,-0.05029898960514945
-0.008149620121069304,-0.02544949179979006,-0.015390587737769301,0.03716281966803414,0.030495461998459043,-0.022146937437549696,-0.044590775347396305,0.0014954287476448558
-0.01681078363381962,-0.023868225568724144,0.027768237299380327,-0.004546977213635284,0.025967258406707824,-0.06015105267603618,-0.06764628233056702,-0.05586184736808031
-0.014065232822845873,-0.027188155977502015,0.009689588778609703,0.00203574005085963,0.017380497683060093,-0.0046741748635140135,-0.04283410089559331,-0.05518246450613673
0.0022694866615228133,-0.04297515504760818,0.01168413046063016,-0.010591801144734375,0.024177204543962456,-0.03801870422843498,-0.01713580319559166,-0.032669115506334556
-0.009347911750799031,-0.021144707889361014,0.005673512761464494,0.021479366083000606,0.03029544990343001,-0.05298049075520189,-0.045770295247454684,-0.0437458742622453
-0.0019143695530076492,-0.013945115331592206,0.028405657625347136,-0.012120870357246238,0.041877600590731034,-0.045320487333704806,-0.06463063881811365,-0.06191869565736252
0.0,0.0,0.0,0.0,0.0,0.0,0.0,0.0
0.009495224929288199,0.026518729718845058,0.031763337005188075,-0.01491756204187955,0.03169071504728983,0.02948414388948839,0.0027551330392470708,0.027103888747757376
0.008008251403425908,0.0370443330607077,0.031759982215365856,-0.012495764387033176,0.019556661737830397,0.008427146931739349,0.007994364667935294,-0.06755397910656502
0.0073678999605849525,0.03960302785589509,0.024662126579036214,-0.01809388427559716,-6.115462161376609E-4,-0.005505654078761607,-0.003374062485332008,-0.06681984019716214
0.02080896103458205,0.04124880890588056,0.045510768853336936,-0.025720485661144987,0.0011680010228624707,-0.004895450862081097,0.005050900101775835,0.04172323305266856
0.00975757467264178,0.019743546872166784,0.019501524411006887,-0.024998997401159545,-0.006157699897945242,4.163783387569342E-4,0.04226655666602297,-0.028261161800281598
0.006780385727840638,0.01138562864561371,-0.0055842092959379475,-0.029043612669757468,-0.02072335351528634,-0.01293155969780388,-0.00490144839306722,-0.013851257247413429
0.005236236738777173,0.026318951473848107,0.009632797973393337,-0.03139393313948763,0.012631096648850204,-0.024598229266261568,-0.0029023350387059055,-0.016622201215368282
0.01957348581169824,0.004090741233103601,-0.005034042678463302,-0.0338864590279061,-0.006723787585978476,-0.016122049394896754,-0.06291315501930367,-0.022173448036180377
0.004000850190315337,0.01368344480158834,0.015366208751044275,-0.049465866383497925,-7.767579063390345E-4,-0.037507304992636575,-0.03123336078427963,-0.012961017752201376
5.094081367946895E-4,0.03523583441131928,0.024011965482167164,-0.04890850821910142,0.009172160204270183,-0.01772429552569252,-0.03922026028900011,0.054576533489234746
0.01998984559168097,0.013037373546575526,-0.0010583169681679383,-0.05463706504020316,-0.013579749582477041,-0.029636900481290945,-0.051080230099361745,-0.004535998788132822
0.0022990758834105715,0.020255324384390982,0.004296669364320549,-0.05870556774291519,0.008913458628049653,-0.029290107413912442,6.801824705464088E-4,-0.02612185496626729
0.007840619032563095,0.014971427281580851,0.001727868076747796,-0.06438112972805973,-0.011788429391108239,-0.007761157547581665,0.018423000695549807,0.004624006543505144
-0.0020648905357768827,0.019661979006727448,0.008522061531071046,-0.05881103086679268,0.00374633570741488,-0.03287681042160351,0.0301825274749441,0.08442497864998655
0.017902469743761754,0.014933601194636492,-0.006848561199991943,-0.040049468476333144,0.013813267714048338,-0.029667510199384822,0.008799876537729956,0.05136666174746052
3.6907098794057916E-4,0.01491328379363649,0.011992898811387542,-0.045428758661742924,-0.014749189329927435,-0.050257062967974137,-0.021792970506536724,-0.04033527001875992
-0.009199298982422104,0.024992950781430046,0.0057199383967415085,-0.052919260300614335,-0.0013524811634536213,0.004649769960355321,0.0040479259253542454,0.018439651329301254
0.017313831704848962,0.015571396231077117,0.032865162109208534,-0.03807182903384282,0.0062463915777691975,-0.01906204385045307,0.017344739576918677,0.012846634281309277
-0.010191576315360079,0.01341537868252668,0.003282332865718829,-0.04318028706576521,-0.015633612920294686,0.006452472526891406,-0.004691269246319407,0.01254985757762106
-0.0059317592534942724,0.0022393537332328073,-0.014205652590767892,-0.022218800339902978,5.187805289573813E-4,0.008816602457729139,-0.04084998361231312,-0.02200112749120464
-0.005037095007525864,-0.0025496829591996617,0.0037862333178236285,-0.037414277534176366,-0.011824824233547991,-0.05530302886376731,-0.021329871123047073,-0.013470416976684718
0.010559519103871984,0.020569407597236078,-0.0031611399609488,-0.01747538364940035,-0.013507696922080717,-0.022571922261016036,-0.03130347187577792,-0.043384272073721974
3.951642959080376E-4,0.01646847594070816,-0.012205880292761706,-0.02338233220845834,0.010809039448583954,-0.012138158640231128,-0.03133158510313189,0.005292661264529208
0.0020335746165026924,0.008994860687725814,0.017107651819087966,0.004075157848986571,-0.00661841800912015,-0.016055970997614966,-0.04800657344504927,-0.0067155412876679366
-0.002617113606705199,-0.004217928398830839,-0.025761040972718363,-0.03192702493011759,0.006715423914128327,-0.02186589079615156,-0.023068118974554463,-0.017425347211251774
-0.002959410690640445,4.6728202933177254E-4,0.029870953217638496,-0.02881111771076003,0.008377847083086087,-0.007026888814396393,0.010025876635677222,-0.025135594454875565
0.0037240901678435717,0.006828502398522951,0.024701141388686287,-0.03498508270933848,-8.588690012585123E-4,-0.022472316422176092,0.0509175488789797,-0.037973574543561095
0.002105026948628564,0.0016701441541042694,0.011936596192926474,-0.029623815191929748,0.02211510377656059,-0.021562380279440546,0.04926892421422274,6.521807567331228E-4
0.0072772001990268655,0.003800908556190419,0.012224381561302289,-0.029171367131367032,0.008466842457688126,1.487028746762209E-4,0.014566019116149631,0.0330623567012851
0.00781703541654416,0.011673163545998011,0.010181898898407704,-0.02157248903703321,0.0028603195508084198,0.00556049883514273,-0.021688129387358313,0.06750832576771482
0.003774860796602844,0.020956630726346626,0.013845531548257906,-0.03747746577587041,-0.006899255442336626,0.007670597335308615,-5.116978733659128E-4,-0.030554133557080143
-0.00786220755356704,0.0225950640941307,0.022594902696562003,-0.04830288310600303,-0.010004258522672747,0.005333079870258911,-0.02447508202311449,0.006954818901102167
4.37970179687705E-5,0.01510144297729471,-0.00688113243754318,-0.033796105491187,0.0073591131508571744,0.007128711145547834,-0.030864460271318506,0.002811050927076675
-0.007656431965253932,0.01526049055506018,0.02438765637316037,-0.04755656639900169,-0.0018232114070550129,-0.018118163022418227,0.0050943279233069405,0.027494082957738475
0.00808922499885303,0.02088014746062078,0.001559789401464562,-0.029432871255816534,-0.013349746165366161,-0.04752898988969104,-0.014082771276148709,-0.029741119070910038
0.012688796171512976,0.009041970462102311,0.020261676191971778,-0.038810454659379906,0.006849521216396495,0.007759929864068343,0.011250213528362307,0.04676764633064534
3.706217763533304E-4,0.016477008958603212,0.017447857573719416,-0.01802745849931403,0.010445720217489116,-0.011812768699793808,8.869095124251491E-4,-0.0028282858091677188
0.005491159215283873,0.013679963331130862,-4.014838752674499E-4,-0.019043453333634525,0.014982446448706804,-0.025795932344537115,-0.01634928880393549,-0.00495259358120359
-0.006158494901232254,0.01070750451264496,0.026547253738469445,-0.03884658299922192,-0.005213405472292633,-0.015818145101830133,-0.0023616838478703883,0.045654010484686425
0.006804024133585607,0.024103642510333867,0.007553946946385559,-0.027573436914694854,0.03331768285398015,-0.010070663857541517,0.009377308398014483,-0.038175665443084594
0.00522102454341326,0.01281590643716779,-0.0027207469295218445,-0.013610623357324048,-0.016282311208703555,-0.01608006297125869,-0.03347862763836923,-0.02695256522727807
0.005168179792382013,0.0012452454104457944,0.05025314701743089,-0.011456792793418352,-0.0035463924508465777,-0.006119424631202047,-0.005279467472649013,-0.01772407024530731
-0.007809655033144045,0.02261698581818411,0.014041607637377718,-0.02852354586934705,0.005828894884612912,-0.0074674122486544925,0.007697243822301969,0.01755713055675079
-0.0016690106088887956,0.00927410175444432,-0.004706059933844042,-0.01180140237731575,0.020879139594801616,0.008590826413942682,0.04779245212827926,-0.07326201536336974
-0.0021965239376913574,0.001828604775114262,0.014686382545617882,-0.01910663920049474,-0.00157549306271057,-0.004525618894050731,0.04460769131241388,-0.03902802595552679
0.011052770761783973,0.01984759256164681,-0.015273825013357167,-0.02430090865245954,0.002698460956854873,0.012004438737253181,0.04322886425141498,0.028442324946226227
0.0036729386285421183,0.027131517399569982,0.017847174495138562,-0.04394397430187791,0.008457651308865527,0.018106531902154138,0.03357518620453087,0.0083781264550572
0.0018688974509851984,-0.001245740972302567,0.010065768781727213,-0.024921401274263982,-0.006965089923171595,-0.003960154914688291,0.011918058197829262,-0.08551744594341482
-0.0040363065619680154,0.015149182165465902,0.018757102833568517,-0.020301929079397568,0.017920087136413618,-0.00831814434420472,-0.0017716417008862284,0.03917824294955863
0.0094635101958832,0.020567990446751505,0.025131870505650467,-0.036343736236675084,0.017658106435310697,-0.008101241170809848,0.01650560555385866,-0.01565453436548392
-0.0025027094961101778,0.006372496040501496,0.010579744689526327,-0.02895085685980911,0.00730950805745223,0.014898953483752364,0.023483591269785664,-0.032114595607209195
-0.004032315201774033,0.016718388590562516,0.024995299756848888,-0.009677945487529843,0.009640912922062442,0.01474971917800802,0.03310145772101364,0.049795377367047644
0.0049303593467479555,0.005255946906654985,-0.01582195259709679,-0.014877340911454734,0.027450340161185638,-0.005176701723624388,0.055981322539909006,0.028352183397328146
0.016157261085410077,0.019329571158832104,0.021837053193325795,-0.022417329435151095,-0.008806834856209395,7.27920142009425E-4,0.028275360572938446,0.009474591195440363
0.0026982636968174607,0.012747234581721056,0.020189809232271816,-0.03406548894819214,-0.0027648802197298636,-0.02463111745989388,0.0067164306870305945,0.0018190991160604852
0.008431621781056824,0.033301647511741805,-4.2052678393006415E-4,-0.030618511112530722,0.0051147638401159295,0.029273258977159655,-0.0028719789694793274,0.02498647955996136
0.014844279816400806,0.016381277669459016,0.031189219009184643,-0.06209675300689252,-0.0016285197773239501,0.006501989386512336,0.03208913404323571,-0.04186354255571334
0.003301521725809886,0.011122869822089765,0.028656282621430662,-0.039445835545741104,0.031589238596803154,-0.027819618118392453,-0.002023899830543574,0.017188367800094695
0.0018339534271920171,0.02670663001796908,0.011458478296337116,-0.011553199390641367,-0.012638697176083243,-0.006333834840657582,0.05606307247563591,-0.007800659983106972
0.003945222171286868,0.019411571344610856,-0.0050826034456466496,-0.03022986854602036,-0.01129761467117002,-0.01726877316220668,0.03230741266675785,0.032576317510188524
0.0067359847125100444,0.011445580964648594,0.00411179747049828,-0.037832813471703114,0.022070467874042876,0.01367154544176477,0.0080739330591027,-0.0052454377178520195
-0.002793951845539046,0.027731477701340823,0.013218420833262357,-0.032108052903555645,0.023391227883665114,0.020189083722295997,0.03355767256014042,0.05940983714728576
0.014640157283758868,0.033877764087090145,0.02524724592450439,-0.024330336619087012,0.01448634636707019,0.01695015881194853,0.05089677888294547,0.04497128948577189
0.0027186741847083293,0.003248127334296913,0.030669652610648468,-0.04707008856488312,-0.0190437700385815,-0.0011791411428532794,0.035121928176301165,0.04128576055409683
0.0014332092682990578,0.010649893208026506,-0.003954652643417211,-0.04231620565735075,0.002131041191614856,-0.016056824353210986,0.03144368977188772,-0.02431178316785909
-0.006493097046085505,0.02804389414747277,-0.019229396543343602,-0.051620762622126504,0.016792008307211517,-0.004877826910987454,0.02436647863597835,0.033530715973424274
-0.0034311655968942804,0.014474605659885453,-0.030161942388655105,-0.05916366456171912,6.913109331579334E-4,-0.01316311357670591,0.019581230011823103,0.027989637342726637
0.002233298077894099,0.024814276955253345,-0.004475364941910809,-0.0220355283770306,0.01614347463261022,-0.018243973747191694,0.003509357025457349,-0.003973626127605212
-0.003262325532560598,0.01686902156401876,0.017538743175200544,-0.026787357691949537,0.01845100274751761,-0.0390824769534974,-0.008453231385334325,0.0649076449190017
0.008729480129194351,0.03179734349210184,0.03839684884134564,-0.04317457531598348,0.020569502141090545,-0.045540903516609194,0.04001149320182268,0.04432876062380886
-0.0027811604351208347,0.013560728627551866,-0.015387419054036455,-0.044943926984962246,-0.016279137148839558,-0.014495130689552355,-0.023087870668816957,0.03863524546684716
-0.003108858098309705,0.0073148148444190375,-0.016269849802802605,-0.0474459331504912,-0.01394975370966696,-0.008766926947767456,3.6964890635937664E-4,0.029681358748783082
-0.006188426030115636,0.013094566996069035,0.0016130683877606522,-0.05497457935789862,0.006464721093288897,-0.014562533727081967,0.042504536639464685,0.03845916612003453
2.2607741718065275E-4,0.018286034928876316,0.015051707671411785,-0.05783924740363372,0.004978510136715998,-0.021629056070415903,0.039978153383113,0.006292656201479452
-6.32775363170468E-4,0.004512768153721702,-0.01436095973883239,-0.06586952063340132,0.017762419987243844,-0.007449190428575836,0.023642893211796634,-0.04237669369895458
-0.013688869515243575,0.02999402489297487,0.004000557797768922,-0.06750269422856703,0.021689326368087722,-0.03269389485670415,0.056483564199968195,0.001233889263676402
-0.005462953738100105,0.009829630003808043,-0.018373934479261667,-0.04673271053191855,0.002317455323461122,0.01447763531795615,0.04531444591302386,0.0385769572293867
-0.012816272594825498,0.014472382263660377,6.708594501932952E-4,-0.06337444837438921,-0.0020951089172285553,0.03367611985388361,-0.016206262137755778,0.00837385486969
-0.012293883371628626,0.017097777768343703,0.00841874760354111,-0.04585674093277026,0.025725506723964953,0.014018112428879514,-0.032246808950917305,0.0057484260208522375
-0.005571895215260379,0.011859009942763177,-0.0015272276001634943,-0.05253724717897543,-0.014239508284167958,-0.012255854941728483,-0.005293484021978934,0.05214231099753752
-0.004106386155958548,-0.003422477965313697,0.01770274431503177,-0.08280844916839011,0.01679341376403247,-0.0014225480279255742,-0.019360363441564055,0.01459715718634913
-0.010749040803749098,0.0011419309060215488,-0.012018437765123291,-0.0761275668874565,0.0066910729507235756,-0.03579809380884405,0.0025767730601525263,0.0037601264063436
-0.006737233381548663,0.008806590277016024,-0.006702321605232542,-0.06820522634810874,0.022291318539103613,-0.038587338402767235,0.00810264609770145,-0.00659915883656359
-0.008876449207589138,-0.005411031772724506,0.0010976887774096222,-0.06019664285954657,0.0013267526046362305,-0.009614806743639404,0.018495185721780827,0.002787493674036301
-0.010093917102086084,-0.004417303879343248,-0.010492437496913143,-0.07069474467320047,-0.004173211035173263,-0.02614276371640975,-0.01585215575505733,0.03657900010978765
0.002588849077316789,-0.008796751889724508,-0.016848971172685412,-0.0699842562724248,-0.011370857328857148,-0.005651994612564437,0.019609053603962645,-0.004595110641261169
4.2623840711493097E-4,0.00808226161933523,0.0034704913792708014,-0.06789575826883057,-9.995143547253393E-5,-0.01084755534122217,-0.014858972712394114,0.001545348503460997
-6.444446850644436E-4,0.004406824754213945,-0.007023814708129628,-0.046051960507206974,-0.0020253492333132533,-0.03469947617330407,-0.022085045386929514,-0.025937331756433535
-0.0026039377309298103,-0.018084243585367976,0.0058771757981485595,-0.06047360390001047,0.00801800198070235,0.016060204956225538,0.03352150371551371,-0.03652441055976907
-0.011255203155582573,0.00985384227553654,0.002439801201538805,-0.054905079957293046,0.014778819643298635,-0.019566557443509408,0.02658038804729379,0.031909966131455136
-0.008453430535709888,0.006291920773369708,-0.017791617850322516,-0.07764893205695869,0.0019496533101800093,-0.015640639146013408,-0.019361928742228696,-0.0189277131476574
-0.005410890574788805,-9.32411884977058E-4,0.01475918368820539,-0.05307090491525515,0.0022178142125015357,-0.02910604539178316,0.005734781267594136,-0.012916576964170257
-0.007231166334127832,-9.525334724852508E-4,-2.1838298131626743E-5,-0.0719115156871559,8.154906713374321E-4,0.012180554948196226,0.024996978352340937,7.813226890337477E-4
-9.987254650159344E-4,-0.010951140278468885,-0.028990157730635346,-0.06081831636637877,-0.0027956164792773963,-0.010922388999704269,0.07070454613439553,-0.021314808056937862
-0.011010991403207899,0.010139007195959449,0.01536883213525736,-0.0834812061004501,-0.007751719928568948,-0.04601026895952459,0.005568625631886537,0.0017749025898633475
-0.016259146319678446,-0.012197361307050403,-0.04540752660645947,-0.06726884289098348,0.012242771311959763,-0.02021469287095451,0.009336320362065997,0.011064304029649086
-0.019094814865940925,0.008971717396296874,-0.023680416194276077,-0.08820531540410292,-0.007165315352603105,-0.016891428645232298,-0.009781568703706889,0.038187595959608855
-0.009262281580362247,0.017662277067506338,-0.030469124674104453,-0.0813893220436972,-0.013694109657323775,-0.028614886139328666,-0.010771805473168639,-0.003849761738395574
-0.006816695315972069,-0.006387050018660134,-0.018426100496000908,-0.0642795790642165,-0.017636349639863567,-0.032321201025150875,-0.01435071477762534,-0.04192755444572904
-0.004395236036086481,-0.003935863011160112,-0.012487651281775813,-0.08200922238271105,0.013104262190150831,0.004674629678811382,0.04997983521078192,0.01875787736568424
-0.002373051477150714,-0.005704098844082295,-0.018443719938314895,-0.07561395035473467,-0.010926924948916367,-0.028370748766638115,-0.013931731108666745,0.04722703439717513
-0.005367133518026755,0.007944342173043184,-0.018796857456763794,-0.07911620623847326,-0.010427758785834206,-0.0030959052383283947,0.011145815796839098,-0.022169123718914663
-0.00858236831569496,9.37852649571802E-5,0.003079529294312322,-0.08290851342111472,0.003066932565227304,-0.05548821219560496,-0.001961346522266594,0.10302320418580557
-0.012674725003057108,-0.001736466628938782,-0.03254333151178401,-0.07761493982468218,9.762419373625167E-4,-0.05296843148299915,-0.009632435650963,0.007160017549922348
-0.0013925325765550868,0.001982195006937193,0.0029463734016299536,-0.0848593960863834,-0.011172503106816611,-0.0386656698277745,-0.017005091121868765,0.008774241397059623
-0.0030605801737844645,0.004418289739508863,-0.03767027608761553,-0.07502276264563762,-0.0015054014329559107,-0.024911260729063384,-0.02698936095981641,-0.06450658003699983
-0.01282206544366718,0.003655524575260194,-0.013169869137333368,-0.10230915218299132,-0.009406078195631315,-0.02022874267384131,0.010700543572841559,0.012488510351949644
-0.006093254046769541,-0.0075906891711455815,-0.034562123762817254,-0.048728162914404544,0.00910683511838789,-0.02587481675024894,-0.00922055720450482,0.017849050853320114
-0.009431252371655985,-0.01002242250579255,-0.023442101589690456,-0.06590190571582671,-0.01250384053960038,-0.0594974605358119,-0.0357931518011792,-0.002279085764135491
-5.332954592642374E-4,8.455207104397511E-4,-0.02859269734285963,-0.07530027056485492,0.0059399679605424555,-0.032113249180290376,-0.0016846736050684097,0.010460356832763917
-0.027197564009638617,0.006258781834383331,-0.03373056798809143,-0.060013638411655607,-0.004635529539539732,-0.03789400833326856,-0.03134393707555666,0.04939441624756835
-0.012011593730863631,-0.0078100850548995515,-0.0286121400265808,-0.07109764987939424,-0.019745066567763987,-0.04239517211028715,-0.03546041823498258,-0.031031401087219246
-0.010011455629556888,-0.013899986739002057,-0.042860797086983704,-0.08683631859675206,-0.0066897966825292254,-0.0736997052747084,-0.0466061377190502,0.009146363734763185
-0.016459122920636626,0.0037854507393191295,-0.014778846712835025,-0.09411474589317273,-0.01985012370698517,-0.05157801530423409,-0.031281211228610994,-0.009117508461129686
-0.01759513740637544,-0.02126239318144363,-0.006670056349635467,-0.07006850314293167,-0.021343133739784186,-0.02958766487636133,0.019522273735459506,-0.011677299478176417
-0.011261494893507501,-0.013625604197570418,-0.0180767650948514,-0.045170487074894516,-0.014614802392928047,-0.04174323164181648,-0.013699045292174195,-0.047706140337715586
-0.012593331195003115,-0.004256968935595573,-0.004569673624710002,-0.07476001438089377,-0.01368315813775705,-0.04830557491548493,-0.028875176796826774,-0.02835821983148068
-0.0140402587519327,-0.011932966345925,0.007753334778160703,-0.08521446182007439,0.009748922907463112,-0.029449799164655982,-0.001482249459972329,-0.02759178231095738
-0.011144876417163186,-0.008114027941996449,-0.030103451722945207,-0.0616882674713293,0.001214635840193018,-0.024019341806801653,-0.01632082093231496,-0.01906887082768116
-0.019941521711477818,-0.0022033606393022653,0.007697458702186466,-0.08516028572801704,-0.0036889271656008957,-0.03923157927398599,-0.022110515540258002,0.032159698677151516
-0.009073903540084576,-0.017608023771893966,-0.028447827302869544,-0.07253587473449633,0.0025302812108884618,-0.02992892057986915,0.02387813489415369,0.03772768545980454
-0.008997491212920136,-0.00390801012461206,0.005138857829217858,-0.055970693776753205,-0.011748258474810341,-0.02409668990627023,5.823465749015266E-4,-0.011446917941055124
-0.021850587867387868,-0.018622725799274042,-0.006480495779291384,-0.07018635334794834,0.010646305406782547,-0.031590301346003685,-0.06305087868608866,-0.05195020473933354
-0.014021683839999697,-0.018616920328636044,-0.025542080205690154,-0.07897638351519676,0.006973288713070028,-0.023099173314424015,-0.04597008214205445,-0.044302680330020716
0.0,0.0,0.0,0.0,0.0,0.0,0.0,0.0
-0.015330789648517012,0.01757894456176079,-0.005290564882151738,0.01191284293910505,-0.017997321755938052,-0.03286077284870084,-0.030393473536961924,-0.05626239330604532
0.0027434086459141947,0.014216336636751703,-0.0024965549438899504,-9.319505368162451E-4,-0.015311446837530718,-0.05608566260247491,-0.008963628562436432,-0.009568292322951866
0.0010949192844647744,0.016707073215860402,-0.004832916398794962,0.00782013753659111,-0.035054765757091676,-0.05695416795590699,-0.0366053941297701,-0.020543414977130747
-0.0155790565927734,0.007471116375327158,-0.0028819277239160446,0.01880710219180881,-0.02716704581564998,-0.020227818573891082,-0.02592967478421504,-0.064604450446756
-0.0018898822054647718,-0.0014287348418062784,-0.016386693646196993,-0.006001614785353604,-0.01928083524176768,-0.03199718733192661,-0.057614439942324625,-0.008432943651188407
-0.009393574340280313,0.017297780099275295,0.012075298727309502,0.005037167992303915,-0.011412792328246983,-0.06447453670476222,-0.0211917272895093,0.055833130579440615
-0.005486171252019045,0.0057537246603374115,-0.0313760766594296,-0.021679054943879367,0.0030455488949441833,-0.022430306936355643,-0.01726691901611388,-0.0013077840190588441
0.006424937948073427,0.0014885371090144206,-0.018675197159817025,-0.0039184674603615355,-0.030049061261555807,-0.04380785793311209,-0.0654812054339518,-0.05618758950510605
-5.148078194208202E-4,0.027351777521147036,-0.01102848795541439,0.004654636010023139,-0.02570352641428421,-0.05053524138561172,0.018874313666318976,-0.005756937499302395
-0.004671975184880918,-4.347230270150826E-4,-0.01809732186763857,-0.027978998516978798,-0.028858235368818243,-0.005669718573227234,-0.07646220204894,0.0335198394262044
-0.024665861622916514,0.0064557589536726745,-0.025396348742247443,-0.035203118831525534,-0.020999258209337193,-0.04176654129774501,-0.039509338811499706,-0.01336453615562283
-0.010085065026284387,-0.010431576855527425,-0.0295250843365652,-0.004012998292564213,-0.02191243310178717,-0.03975823367378639,-0.04874195315786195,-0.039045618295880935
0.0023547931676137952,0.008577350782118076,-0.008268722687394758,-0.004660030271532417,-0.01995272902918973,-0.056207428302578855,-0.060301567383664656,-0.007869697202017134
-0.01760221555109462,-0.011457765719422253,-0.04337937852255769,-0.03856255843163518,-0.03788598776684053,-0.04976996890861221,-0.04460099815665414,0.011548463941095544
-0.009362120681994855,-0.008312650843809721,-0.01938266043528092,-0.0251271287708585,-0.015839034600508617,-0.05825960107340428,-0.0485755352998159,-0.021463859567416588
-0.011024346219649355,-0.0037938008475049134,-0.032003979661580195,0.009335404932257513,-0.020968978283083785,-0.021905063993296503,-0.02491319238875689,0.008821249862457248
-0.0024355896072962863,0.00608197762410867,-0.048047964604083115,-0.007434995308566256,-0.022363244525901105,-0.02271187402380584,-0.03755306062054148,0.007097771243041784
0.003412084080014843,0.0012246831075182207,-0.01472870419504202,-0.03338369844673901,-0.011398159868864124,-0.0464370146817594,-0.03436156015105846,0.0019930528082754417
0.0049237626536861,-0.01079753762907043,-0.026213059894392376,0.010776984722661143,-0.026610649337204396,-0.04532190216600915,-0.01875575617085168,0.014802796932651963
-0.007082011248091851,0.003479533676472135,-0.032947376831090947,-0.0457154530449987,-0.02328798992806247,-0.04779899357691256,-0.047241070045934364,-0.012650282564046655
-0.0023611351499167096,0.01079457959705632,-0.04940936744907376,-0.023647302606852272,-0.014585604358831362,-0.07788173438432926,-0.06698019219957313,0.020285675161588412
-0.010235089562518023,0.004444504084339607,-0.02953716476660323,-0.01276662744373444,-0.03425768507692895,-0.05051608260467355,-0.0432368541089988,-0.061625415737248446
-0.003515180032280728,3.2819731090483195E-5,0.0018617294808626061,-0.011245355586125938,-0.022160461022650166,-0.04466228596102492,-0.04097581868980149,-0.04043183624097235
-0.003102776461067441,0.020519716637705465,-0.009656075528301833,4.5449127361052444E-4,-0.010634476167507408,-0.007884727772376088,-0.003055520766316655,-0.04426546536538478
-0.011222020958235998,-0.00548252665242821,-0.014893320011333255,-0.02462433992993801,-0.03641385420589619,-0.05544482503290421,-0.04120661172554951,-0.06438081368802884
-0.006981174140648167,0.006522339515834252,-0.02002520781094108,-0.012225003510110966,0.001977961561682562,-0.023113561795097964,-0.03346337957013501,-0.012989882229384131
-0.012148181357574575,-0.001017792629850467,-0.016694490358522107,-0.01119600203343682,-0.007471502911012562,-0.05659031465620401,-0.032569944813284124,-0.0222026901875525
-0.001463258058048993,0.00591566780253161,-0.018054002103959133,-0.02314399254919028,-0.01946359059484487,-0.06279576019066904,-0.08068790608419563,-0.06021428844541732
-0.005752210970606221,-0.012010213807737147,-0.005531892298540508,-0.014801805472257984,-0.019239292918337078,-0.07282841992701646,-0.02836283036136439,-0.04684861222762593
-0.01287447386908062,-0.0026068230989715335,-0.038876177131943135,-0.011687088432667109,-0.03172124141753847,-0.05098786375712064,-0.06220308718620532,-0.0033756001022616777
-0.010804988039193898,0.0026413900020907377,-0.03541367494754305,-0.006639036009944033,-0.007853422271199083,-0.05921143514829516,-0.04075348875038198,-0.04249021049527346
-0.0068005638146765935,-0.003807792203814664,-0.029334256416340854,-0.035558835437658545,-0.030852116782343834,-0.07013540087829154,-0.03895534102787035,-0.002082035335417287
-0.006669272407485559,-0.011709232510496825,-0.031513071186447195,-0.041250489492418316,-0.009373386279754939,-0.027131392186095532,-0.058264578446991344,-0.03836213060248894
-0.005769981139374029,0.019049617061925983,-0.013521292549804886,-0.033644116393409446,-0.028752423785453514,-0.04676938384095594,0.006746419022086336,0.05536229646551194
-0.010129393261655888,-0.014984772367889643,-0.011022145649889847,-0.04557321066828558,-0.031283529971774124,-0.046631543188071556,-0.04784055049795838,-0.04761455329253894
-0.008687894604457184,-0.004350233266998127,-0.052387053519055427,-0.051282975062943825,-0.0492599426867163,-0.06698691851204297,-0.017370870157953855,0.006579646305566733
-0.012893161364230084,-0.0021139647101565684,-0.01145602860905659,-0.029845330062995223,-4.115423533707363E-4,-0.056783522690393634,-0.04800366547696833,-0.06618318073642993
-0.015246295152722897,-0.022808137219032854,-0.015160159655222383,-0.027696542571589017,-0.02948722717903561,-0.05329397423110577,-0.04493157982641788,-0.042881107156191534
-0.018738962528959024,-0.01128563641495639,-0.046381176642176,-0.032815790836611416,-0.031184719517410905,-0.07569852478302212,-0.07602989046537145,-0.03690637309416944
-0.012482579601803389,-0.011399672684952789,-0.03059772835719604,-0.033495974092686565,-0.03311951393603893,-0.06284753570038243,-0.03765218355701633,0.02846275855640168
-0.01772614662904872,-0.001060101766382937,-0.03291099017710625,-0.04194818312167606,-0.01594926157561414,-0.07878650831656717,-0.09518058112172073,-0.04926183897052816
-0.019256991025307847,-0.01558828776293042,-0.03388663081878407,-0.023102590925252214,-0.05026663074792702,-0.09054829325618773,-0.09169298672229487,-0.057626104136627054
-0.023803094338239086,-0.014281159488793937,-0.07436973535387442,-0.05031329616734148,-0.03854570467228097,-0.05966569497302662,-0.06886753986534938,-0.05261036005733488
-0.024880106869458254,-0.006361929908695552,-0.03571187343991783,-0.05950580148372803,-0.02109156704363118,-0.03414689102762697,-0.05697762982777815,-0.009990760556617961
-0.0107240952359753,0.0022021765096063017,-0.056797938542377024,-0.041687290969377344,-0.035631114612915155,-0.06891366700894938,-0.08160043235802683,-0.011312569226074709
-0.029042432038827233,-0.013268030009172205,-0.04176738340009245,-0.037736886489781296,-0.03439244218637143,-0.06635010542804334,-0.06349063061400151,-0.005604228348916163
-0.02774672348307322,-0.015935828657946516,-0.025233919199164123,-0.04414006570154966,-0.021107344977158493,-0.058853805291696315,-0.0799592915620378,-0.051252158471515985
-0.011518462517124446,-0.040108084405757305,-0.029295358259103343,-0.030015924522838272,-0.03740565670411068,-0.05666337253712567,-0.049544858347398024,-0.03238791099151761
-0.02767015030299655,-0.0233949829133554,-0.05244250458603189,-0.04067806982404158,-0.05540300182734306,-0.07012052662063975,-0.07654663849392973,-0.07385694635784756
-0.023899333371558217,-0.011233104389182014,-0.014765357662534118,-0.03397362514501248,-0.010523137687660188,-0.07007510773967593,-0.09351692297485692,-0.03563555144732211
-0.008911218058553915,-0.011884606275594622,-0.039776398828063886,-0.044301694251160775,-0.036925476916566724,-0.016717321104791794,-0.03284974164881577,-0.0672270605031422
-0.030131634430955755,-0.020166617957615318,-0.05227370928448566,-0.02130822632377255,-0.020408140054531884,-0.046089062234265565,-0.011729800275215474,-0.09876828440723595
-0.024394468006258087,-0.021965798457153296,-0.028413268948530357,-0.05038928412876861,-0.05481609375406791,-0.06461099363741507,-0.03246651677571771,-0.07757470613207862
-0.02777586738607834,-0.030504354101188347,-0.061446853305856586,-0.04198114158128835,-0.04550546796160475,-0.06447270974750721,-0.01482092332758811,-0.041379328200510934
-0.019627120956919358,-0.007882129714940622,-0.023560366228200402,-0.026840709013274983,-0.019076189277281747,-0.0671332778760424,-0.08247730114127233,-0.0852635593812987
-0.02801237763208103,-0.02938686736395535,-0.03460585830770174,-0.03104541589528785,-0.049702067350669545,-0.05585815175197689,-0.04828018259388578,-0.06890016744312888
-0.026201161767768745,-0.027652219546894785,-0.030418310624534206,-0.03653210167593551,-0.035499845201522315,-0.04670780876608724,-0.01745816645498105,-0.08574306265633314
-0.030412436513483396,-0.026498146333408856,-0.034221455564839354,-0.03082005580415792,-0.016384851400507633,-0.08572579017583377,-0.05004265500667815,-0.06638595162713234
-0.01544632957993133,-0.035282780270593284,-0.03958028396822694,-0.006313419930908004,-0.04226624836683254,-0.04683905953865547,-0.057402144676018896,-0.08417538454482232
-0.027002494409590627,-0.02374559375330554,-0.04474108813702643,-0.024904242594892628,-0.03321330394809836,-0.06269051136506917,-0.07003055958070825,-0.04149600859516345
-0.03518304963424156,-0.04582077067359713,-0.04904871340384154,-0.029757168713688317,-0.05293333040111768,-0.06686684801706028,-0.05012197494856019,-0.0713045418239806
-0.029240669106271003,-0.03625118708452646,-0.028960946121513065,-0.010443422760196719,-0.04438941196702626,-0.04382083342750784,-0.10152379719002325,-0.11033415582879158
0.0,0.0,0.0,0.0,0.0,0.0,0.0,0.0
0.001049917778421918,-0.002022813833826409,-0.0021900237352054375,-0.00950996052591506,0.030618908764330436,0.012643946395643257,0.05792683343252453,0.039250979335901715
0.015800206053918166,-0.003344500251342364,0.010790410278742946,-0.004035083982133952,0.021328330153737564,0.015547702734613283,-0.005310071452452159,0.05696705873214036
0.0031716982746501157,-0.0031362438588087294,0.0045863338919109875,0.008133825525651783,0.005624912845336595,0.011602505416476283,0.013313248492365148,-0.03961798287335161
0.01471584584593939,-0.004416929429063132,0.03315304116669354,-5.7748436990121E-4,0.010894768527674065,0.014630286081798671,-0.0017511162671348668,-0.005979833203705542
0.004067318644832948,-0.0022927613998194873,0.025084222499958064,-0.013447996207394744,0.024977369231485087,-0.014762347119958566,0.02448943131454856,0.040304373740068344
-0.004908188624778542,-0.016616426051480837,0.0022850077306827976,0.0037557213738617923,-0.00365233804724449,-0.0013174271600934068,-0.017903504382530577,0.07116206852728313
0.0074885464378938345,-0.009533626239484394,0.01270355623224284,-0.0031043773481446157,-0.005259615500732018,-0.012066817945938169,-0.004862846376342489,0.017769819262924758
-0.00348556421904285,-0.03729122522305717,0.018481084013403204,-0.01940596540829767,0.010291247069230175,-0.029248586977045146,-0.0013111563285613248,0.038087759416228995
-0.004552400021457709,-0.051811243173584764,-0.008678944372598418,-0.038788274626750566,-0.015819086218177916,0.007740079939024036,0.006364774132614048,-0.010663259586375595
-0.018409249876592676,-0.0352034465445078,0.013376853774719533,-0.018157605408904084,0.005591669226314497,-0.02970807869608824,-0.0030120546524455283,-0.020066687010216633
-0.0035976309620055075,-0.03390618822747726,-0.008544215833922342,-0.006336335354172856,0.008470132510393538,-0.03788871446895958,0.024048707482935805,0.021297176780283644
-6.012083066796042E-4,-0.023478606333786955,-0.011777530811291792,-0.006911459010144172,-0.0073787742415546064,-0.029222835804047373,0.012707518566894227,-0.019297601338990722
0.004813411971815024,-0.03169287347582239,-0.016455912254583427,-0.030898749994325264,-0.015720720453262706,-0.027716925085937358,0.03488021072523401,-0.039465958650036326
0.002215283982680862,-0.011622278293585642,1.0045366737709838E-5,-0.015520382160016083,0.030261214021759516,0.016554637950385392,-0.07238184181216956,0.005501448321507674
0.008120622480443544,-0.011214633261919849,0.015622608951922246,-0.01170122060146847,-0.009511091686955402,-0.005014342333412802,-0.08026028028955245,0.025653298148488934
-0.0013482155108380384,-0.03324108415267124,0.02094740497983477,0.009896189358473362,0.002494824043980849,-0.05042040612043351,-0.023294147174569513,0.008933443285941589
-0.0050623809296845845,-0.030284129900267964,-0.006395689769030377,-0.009876887699230036,-0.004048647796223382,-0.047826420102292266,-0.041727092318837644,-0.07873078971749581
-0.006993315385887391,-0.02922202446253719,0.013852488387786355,-0.026247403465135127,-8.737470727437527E-4,-0.018552740389533695,-0.04456617022393761,-0.0290518155958448
9.002873422973845E-5,-0.018407655600535255,0.013699188472108548,-0.019460868244541088,-0.0057919060932747225,-0.018798224368137356,0.0010088800494489902,-0.05135323042282436
2.062635191540027E-4,-0.030315512190859484,0.03239973168344834,-0.031996106584227565,-0.0031465608885891555,-0.048523402284709596,-0.03243661578701146,-0.0015095035970378312
-8.730330218714617E-4,-0.03909240406521253,-0.03656705141216876,-0.0164159254035514,-0.0023563829667539622,-0.04446526964596105,-0.02972489063017114,-0.06407388702661176
-0.0057312544355541326,-0.048181384631246216,-0.008166566368680572,-0.016624829218034473,0.001647634478107121,-0.03790651190970354,-0.0160303883126377,-8.41871288098428E-4
-0.012156678071629422,-0.04163875036776199,0.01500941718956278,-0.005707806691369166,-0.009838854852980878,-0.031620909244940806,-0.016476645591194827,-0.08734526810272403
-0.004959249172245807,-0.026898474784334825,0.007024487861798823,-0.0025889144595077906,-0.030683416846559546,-0.06562148906854376,-0.03466514413309807,-0.07026444796513465
-0.01945942170542165,-0.0344792813319339,0.020229226248610344,-0.013611490005664681,-0.007995092570463349,-0.05391886270100378,-0.020619245522535135,-0.056191726534185804
-0.0019425992849039508,-0.024931644857423496,-0.010007679599806085,-0.02699980860029362,-0.028592552191963265,-0.026497203160922647,-0.018088319906270245,0.009925665637530834
-0.009938784131461154,-0.04975776701086132,-0.037665596542833635,-0.010728180944848606,-0.007368559113107477,-0.04278225197800624,-0.05800176569846055,-0.05757703679532722
-0.009826438731849192,-0.04093175951110506,0.0011417975465743968,-0.034952335804178655,-0.011112319620973983,-0.08575869088844043,-0.0351873614938078,-0.013902009753294031
-0.0026464600802270505,-0.017137853967412187,-0.04322390148793337,-0.005131070729449766,-0.03584429632926381,-0.02692469952883192,0.0169872178021212,-0.019868043537035085
-0.002167769428365947,-0.043435945968417045,-1.971613661093663E-4,-0.02911157204000618,-0.03986297703759892,-0.010074946006361635,-0.03949454063700253,-0.0456506938071346
-0.01027914697148797,-0.04605341365500548,0.007764370216163774,-0.015571180304913668,-0.019891749907047278,-0.05565156237679646,-0.016942834183267252,-0.053488238389678866
-0.02101780938832007,-0.06341836918831034,-0.010975693207595005,-0.00640290126429946,-0.017305345124288826,-0.04644095096673535,-0.01453181798996489,-0.06775819061135824
-0.008926800562519661,-0.038692061013773316,-0.0019253710000144975,-0.018039270094806673,-0.007141045882814424,-0.04641555933217667,-0.05421209528616405,-0.09325810230743015
-0.01848629490349108,-0.05266064583324903,0.0024320837063711576,-0.012367003153140835,-0.01672064010034579,-0.03924238804283603,-0.05216167297374352,-0.11230921154344076
-0.014515135684804607,-0.053108289099094264,0.005639463878649609,-0.0017171305458362485,-0.0056737416367262485,-0.04980172574372618,-0.030433313250097016,-0.05871452303658975
-5.271872398643351E-5,-0.047342225405402005,-0.02536533157072307,-0.03194958066726293,-0.004636710419555462,-0.062003979438411044,-0.007494937548305658,-0.06129476318010374
-0.0148904100317876,-0.06516070605215807,-0.015454027558169325,-0.03730043964136186,-0.018519242519481054,-0.06288696157171422,-0.06559509718686846,-0.07151094470216335
-0.015017456766681474,-0.06185755351208455,-0.005452748771840765,-0.01324963099390268,-0.007891540327934309,-0.03284161841910209,-0.04693515596672043,-0.13402476219103732
-0.020795589343046872,-0.04696954432904499,-0.002661390064461533,-0.049841303511252155,-0.002700655472904848,-0.026715744742931882,-0.023189651998159644,-0.06872692227105359
-0.02306386665802819,-0.05991769923040913,-0.011847465899563758,-0.01040273521813874,-0.003981311681919735,-0.03060446764983693,-0.03490930101882955,-0.03663371576085095
-0.011677490191465321,-0.04924821993068773,-0.014626167140726731,-0.029090994064344525,-0.014719148937029646,-0.05344347725773031,-0.014264095363917872,-0.06591309949251278
-0.015975820970260943,-0.06101415584436709,-0.04754200075861281,-0.020012424708585067,-0.020872126964990766,-0.00731697404650096,-0.014926285400426398,-0.03795153740944368
-0.0223353866068515,-0.0542745416190753,0.022869401013432877,-0.0348105532558554,-0.013935207569441018,-0.06367396715060102,-0.03245055892594623,-0.013440304884742904
-0.010689420882665238,-0.05455145893384017,1.7608508388833322E-4,-0.014120247350581691,-0.001095476946702411,-0.05706086263413862,-0.034030166489339375,-0.07053607948441787
-0.0012822521427360636,-0.05105454269430232,-0.017004946942480503,-0.03865080945960303,-0.02994136937732001,-0.03558150821091004,-0.014183322753980432,-0.07000265916187542
-0.009381973635856904,-0.04881391726028739,-0.013195458091890544,-0.02446621342177216,0.008234186681461685,-0.017537002746433716,-0.030977492245187033,-0.04964431658158586
-0.011229581150617542,-0.044638602911436176,-0.0017407694773470817,-0.021176974252072822,-0.03439035172487541,-0.039350754396108176,-0.054051642490986596,-0.08426914716343092
-0.010351165862785151,-0.036656978033523635,0.003832182849591026,-5.189012060473064E-4,-0.017740573573807143,-0.05211323751489105,-0.024197511706610164,-0.10340789127681704
-0.02195221844688843,-0.05628387491483211,-0.001000981051353378,-0.02698348607753083,-0.018981890831972926,-0.026840031666911915,-0.022500545484373802,-0.057061694165434274
-0.016230305274366717,-0.0637872916624519,-0.015450034862534101,0.0024454580889812783,0.008798525410395547,-0.023361926425209747,0.008599495511844857,-0.08816581417373781
-0.01225387001917938,-0.07719804043674383,-0.006371855204581112,-0.02094353477377027,-0.009006612849393816,-0.014236269188633646,0.021000894046051932,-0.04238779087357014
-0.015346944727898888,-0.062075921362263586,0.01029715511863244,-0.012426086800517627,-0.015462607699253976,-0.018587462018713405,-0.03496094017137863,-0.07737712159313492
-0.016903726549453456,-0.035244184103340404,-0.00644824546674555,-0.022466686017191345,-0.009653097838343543,-0.04917444304481225,0.030568198139762748,-0.024351843196214418
-0.0016456589982827147,-0.05490123667181401,0.01810945705575545,-0.005338864378254954,-0.005198436715166304,-0.0025081402994748675,0.031027475214055356,-0.06224582685867186
-0.007261755123893231,-0.04653063354465836,0.03949504122289926,-0.011797842649740584,-0.01700790438089208,-0.039700083800894015,0.017273300028018912,-0.0222606669061145
0.00833161706477406,-0.028882096917746125,-0.02610383510916392,-0.005581680148218915,-0.017404178231162748,0.023911282069563722,-0.006128688664982007,-0.053696750895800394
-0.001672424288428842,-0.04662221820669887,-0.009870814623263613,0.017768982423262136,-0.007473354818198435,-0.053303534124886226,-0.038570910963298954,-0.03492087416550649
-0.0022409404464044103,-0.025274565740643573,0.006100860246467055,-0.015394312262896212,-0.02239710098744486,-0.009339416352620783,0.03832562227168018,-0.046977912687490964
0.007880667069402107,-0.04572511042401728,0.014065056829047018,0.0038287934591099138,0.002919003003109371,-0.020990406519415764,0.014416952740492706,-0.034503753709321794
-0.008460539022591619,-0.050335450219736955,0.035692475394551504,-0.014733310743637304,0.003602475693718422,0.026846597691206703,-0.006810681729716828,-0.04869973721210652
0.0024780569081911848,-0.0492640873915291,-0.016468285577078412,0.013333987818841542,-0.022065079110966886,-0.022251201484349212,0.037711272926477135,-0.0874640765368715
0.005073406460444747,-0.027898984771977386,-4.1650730548953296E-4,0.0029797198722401053,-0.020830444686106498,-0.024148000629430066,0.016081380883691487,-0.045615537819460705
0.0,0.0,0.0,0.0,0.0,0.0,0.0,0.0
0.0010774286845744094,-0.021831872706481903,-0.010494160790762763,-0.006537587827340374,-0.004450029048400214,-0.02771142703810088,-0.044657951353600345,-0.020607741989022488
0.0013678908519014939,-0.023554294095209816,-0.046420075469604416,-0.01766243941399165,-0.015502161919299588,-0.0108727135048559,-0.052585524459934196,0.0014177199067106905
-0.012791460589218817,-0.01848358584831722,-0.03818496487271761,0.001800179864444612,-0.005368519493852024,-0.007320753179409958,-0.013300189964813136,0.05263882322173319
0.009843137104972713,-0.01039170859809646,-0.02206844784849299,7.263367407678301E-4,-0.010014576003061965,-0.019476720556374144,-0.06144508545624999,0.05003647585382365
-0.010659194381626318,-0.024109979081223698,-0.028497426160397077,-0.0016159814136566253,-0.017963173650354363,-0.02258589786025174,-0.02669374454126322,0.032323015423527224
-0.005141069858045709,-0.024025511932729726,-0.04571216513814785,0.0030870061840568286,0.01863126305669424,-0.007694021568473097,-0.024103038952876465,0.00246771765716014
-0.006993572895701447,-0.021739678046233224,-0.027881933796043312,-0.017958226283102577,-0.0012468792044728503,-0.0024353561298085524,-0.03628705638069607,0.040282926191698154
0.003829405208726138,-0.013550870292875938,-0.03255938606986114,-0.012046349682706486,0.02741830985803847,-0.040737506319102085,-0.016120892152910737,-0.002791686650271963
-0.009666896536003923,-0.02771333635641937,-0.04822541435414651,-0.0058209799207352,-0.016875557737075008,-0.023928911318601268,-0.060396535570554466,-0.00998469613901376
0.003317956162520626,-9.199150599693562E-4,-0.026812920239347393,0.0028298376146599358,0.021028767228270663,0.0027726060035473676,-0.005065595529163358,0.01965410482843777
-0.011611079757451112,-0.02079446023627507,-0.034507480574429816,0.003939467188214252,0.008410135719815528,0.003692293606469693,-0.03520645172868897,-0.008532125693435422
-0.00916268170765687,-0.01963763713175848,-0.027756348683397825,0.024598276166494043,-0.011930842340782385,-0.048483751717915885,-0.026376468222143012,-0.028942783449518394
0.0025666451071765933,-0.014819889936187214,-0.010141121319238333,0.013066522745102616,0.015017317961865612,0.0035324772914241964,-0.03820285348076191,-0.016525948718171923
-0.006012029114855551,-0.00728394699532342,-0.03500618603003108,0.023931144172253144,0.03122409574736476,-0.038461537966022266,-7.06494703460292E-4,-0.04776255807162033
0.005310693403455604,-0.011253902623797996,-0.024593918854294017,-8.156334194436565E-4,-3.055941973375614E-4,-0.027971741236534703,-0.008099158986264787,-0.055381232635614897
-2.2762419833213116E-4,-0.03027296687112535,-0.01348363023025917,0.0011826386142718692,0.008965647258788309,-0.026256156187096952,-0.04175709746844658,-0.004469570691427505
-0.001669763620913152,-0.025175250738029065,-0.0299273982014861,-0.0021968975224359866,0.020735825810787617,-0.04441975641752936,-0.055890355050862595,-0.023331371409509805
0.00395180715805659,-0.018183109207961068,-0.007424859006867679,0.03760576121341047,0.02500283125751802,-0.02388964743639957,-0.03713913740465996,-0.015296561482261772
-0.020033458578324108,-0.0014691769017778356,-0.011481723257365128,0.0023846754408951565,-0.001848548418409597,-0.045165106062288296,-0.03277827073795497,0.0024936314954602246
0.0017793736076968415,-0.019154837490758636,-0.0024354192594466806,0.024173655061639626,0.013813225933468821,0.013180946592700776,-0.04966802489578798,-0.02787957875388747
-0.009069944848936674,-0.011208787431503664,0.0016791181739316818,0.012212244664889488,0.0022276841958067456,-0.04040756900924021,-0.04656350645145202,-0.028057403142977666
0.0036709157045204527,-0.02270970458581678,-0.019348096977251594,0.01548226263355948,0.006214462361158851,-0.021922947525465142,-0.049587085941821374,-0.03857537563095792
0.0031046881602611494,-0.04654386849299097,-0.01725866278253463,-0.020865078635167608,0.01998217354740738,-0.014884421069803047,-0.003969819817026765,-0.004561537163631613
-0.008256464247560422,-0.0028549859482822626,-0.01936818150362185,0.0283375020980719,-0.01347634736485388,-0.06489220965915736,-0.060597139153123813,0.00969550635726657
-0.005417585019943362,-0.013305245659911091,-0.01662798999510151,0.02214430978145787,0.021218876254412426,-0.0383359159002226,-0.06172913472677782,-0.035606769817263295
0.005889865339924624,-0.036532178811372606,0.0014014805755018789,0.0254397515950143,-0.004737749005922887,-0.051036620170656063,-0.07476584511836859,-0.07233300850552604
0.003390299559695102,-0.03832532643749742,-0.005661612455904685,2.9681480738055765E-4,-3.30057069579023E-4,-0.03637041029048525,0.027998293511611483,0.005986668740609158
0.0038218553708668883,-0.009838876386698225,0.001712431121255631,0.041991871165079075,0.002053655875807729,-0.03516490340539269,-0.04619446977605174,0.018191834054205103
0.0066829578760709205,-0.014216307327872935,-0.028980534512650702,0.012706362353245765,-0.00989925523653552,-0.009519537543648718,-0.03457873335464451,-0.032086245338574404
0.0013316455616137063,-0.014642623015911349,0.013401010276436698,0.044979695945070036,0.006947422097486069,-0.018149687839611656,-0.040481692211197406,-4.7424578183474786E-4
0.0025516067689772305,-0.02114680675325653,-0.007941283459887316,-4.5330221238010227E-4,0.011856367300417527,-0.020954262235792165,-0.08160845923315274,-0.015603949012337859
0.008273627954341056,-0.008954146561335197,-0.016730999865243734,0.012388005245704076,0.012442718538780487,-0.03118410471217753,-0.07404964723881419,-0.038431699944992515
2.540772486468758E-4,-0.007775507673266291,-0.013112281893958688,0.04042009435189858,0.0022290187560117976,-0.018324047822094236,-0.06055270669538182,-0.0631483157192172
0.009984895305870302,-6.909056950924475E-4,-0.02477000155970277,0.03520289758607273,0.00479697702111845,-0.013237583621231924,-0.03378477010455916,0.016886637728960707
0.013585849244499796,-0.019374798296730167,-0.011677241318794829,0.006564476839084704,0.0016878896974004895,0.006178789074095387,-0.0311435397116675,-0.04203801397294438
0.014729156297956878,-0.01862190584557477,-0.012478262224289327,0.03708205957300753,0.01930796725917379,-0.03629237081761022,-0.02758442236928005,-0.02503355460426615
0.016340763138918028,-0.0212886192075058,-0.011692037571390979,0.014093835507741848,0.008896108802285418,-0.01481462306448289,-0.045252689181847716,-0.04527503999357996
0.016294994737787956,0.009890172386496476,-0.009259507543573187,0.002834762412692121,0.027985649978260037,-0.018717661202510602,-0.044175401906632994,0.05602024919240933
0.007757174989937412,0.0030231849943493927,-0.023043577714458807,0.0335566133087446,0.008048717531437462,0.017832192821514492,-0.03327371261995887,-0.020073951624934194
0.0240708243820285,-0.014318749704813394,-0.03526163547802513,0.022996272809250817,0.01802253715910495,-0.04227798089102923,-0.05289629606251661,-0.005750683195370865
0.010682134515154706,-0.00200609022870335,-0.014164555138300283,0.029632944381569604,0.038581218372999264,-0.021953875424038913,-0.045666060788592866,-0.005234683972339171
0.018609995762258573,-0.005689485253147608,0.032510611901561515,0.04379231888643667,0.02460771404532055,-0.020367778044267926,-0.002369876172517771,0.016923691953824704
0.02034507355956964,0.003450328725002172,-0.017869881410713384,0.03461972453758394,0.00881886384630674,-0.04084819033540832,-0.04472660634890563,-0.029763951639039554
0.017955735393676342,0.0020466506504025483,-0.017893087455268852,0.030587149512666834,0.00322978492290936,-0.02827758909972776,-0.03108516507279363,-0.03943661563613565
0.02321378727402246,0.008506979833409756,-0.03415827868800847,0.04120139222712976,0.022955303695859908,-0.015273154066628228,0.04174221246571336,-0.004402804944462657
0.019365638540826926,0.01433445852603088,0.014334087768757109,0.03236952286713965,0.013059364320063396,-0.0054970551728176775,-0.02132674443155902,0.037966466636032425
0.009611781969606922,-0.0041886010588598754,0.011345105072924855,0.036075657257073124,0.03733474320882009,-0.026516568545894376,-0.07391639437714231,-0.06210092280752777
0.026295814270617574,0.0029689087210502674,-0.016221442052507695,0.06281640128130755,0.025729087057866598,-0.014029158639356304,-0.026626683844413468,-0.02211986224003537
0.012474929573116019,0.005595448579108875,6.452346514966845E-4,0.03190736257199972,0.013719704314620185,-0.011589161318761393,-0.02472713668081622,0.029525149291726782
0.02057180774673697,0.0038010981975046265,0.004395549361104423,0.026698407640380978,0.0042360600158134285,-0.01757182776556597,-0.02833734710577157,-0.04346630053985301
0.014202144459680818,0.0046479368244830566,-0.01307436243501231,0.03791059319118484,0.022365437012062343,-0.019214672362163898,-0.008540954611530815,-0.030900175436274324
0.006727528025071806,0.015951535369801317,-0.006569700824091418,0.026162787226284484,0.032057966521141984,-0.002344394232531549,-0.006551036675066124,0.0012801799878487952
0.0048174051022945585,0.0034929590939493105,-0.018144072774638975,0.05811044433283952,0.024049447042037504,-0.0058081511748330344,-0.0051847294657841325,-0.03848401638305465
0.020149391035443217,0.011595685803210354,0.02962385286724356,0.049300759857601795,0.020058456602823904,-0.010281057448455491,0.0054523654177684455,0.003803859695165057
0.019426480255645882,0.009616999160534268,0.024515848659053763,0.04737289831717878,0.024072933919930904,-0.0057731325184536275,-0.03507338395580506,-0.015472941207597568
0.02464942739440801,-1.577205060487863E-4,-0.018984022344743112,0.07036052052249811,-0.006412416014515502,0.014106013818498186,-0.02771845671633766,0.012631157442025476
0.02314512927753296,0.014384377156248296,-0.018543977652510313,0.036435579613843194,0.027952172692718623,0.00560176421016656,-0.018982858459445806,-0.028408435645451258
0.030345961874786408,-0.0036024539555161716,0.01004572951612942,0.053279709293978655,0.0305897792769447,0.0235947444699503,0.005684858648971225,-0.01003032697184425
0.023190521975802507,0.026325323622140684,-0.011862451412636199,0.033694252772740296,0.02955077221132643,0.016024459225455562,0.0024053048380124897,0.022472639628946967
0.026117435691735694,0.020103561037861484,0.014742704319612221,0.04823243112413256,0.019640690471854027,0.024490796285661504,-0.006521036143472159,0.014112133951306172
0.029133603978603963,0.01514003742059944,-0.01926191721861986,0.0467599522396851,0.012997954968735983,-0.014075684301992478,-0.01808285464783488,-0.03759016562640638
0.015181178238613367,0.03244154001173816,0.005714219125382725,0.02641932771885072,0.04417555552997634,0.00757187525710365,-0.04745693520774402,0.04064180327811995
0.02385793399522379,0.013417458436995156,-0.016477047047296967,0.03133028382687175,0.021120350712231686,-0.03270374386740457,-0.0042275510960209095,0.02855876806044888
0.02426029010550131,0.004136168290530762,0.010405124075913597,0.02607908281186605,0.01732563047612577,-0.015973368702271423,0.021451949551609895,0.02110276824852475
0.023497962302355898,0.024812424128617727,0.009839520800076329,0.03324040264378375,0.039693861954343254,0.007299490192339969,-0.016319927477554064,-0.038707813365995714
0.03722325094195522,0.021695640707378283,-0.02298175448109102,0.03007670154130604,0.01654344685341102,-0.009985872458530914,0.05342517969737087,0.017546545187791196
0.026538872315005974,0.0089401371457285,0.01845017475605515,0.031244897888304785,0.028959154578104742,0.016056522359528036,-0.017012472865687356,-0.040113786612020474
0.038522208869653705,0.0174557572191536,0.02600507154393078,0.03395487240566944,0.03251988449081351,-0.03859867631254549,-0.05181250091618739,-0.004902448275856397
0.03567760854923705,0.029167665234760998,0.0018050949956649465,0.04053949851439545,0.018296964534645785,-0.018247515154905428,0.045589827507870495,0.0329850640385243
0.032507856135925155,0.02472079331256183,0.0016971039297343227,-0.003240332610774929,0.011129589380625287,0.01873680591930796,-0.005633946040334792,0.017366753158676085
0.029055858715989237,0.05172843752790479,0.014300898492095926,0.03456927408465704,0.03549014824857018,-0.02034730862082293,-0.04565000169715733,-0.05913827705906427
0.035005118420309164,0.019678205309742514,0.009648368937592855,0.04731458802981228,0.02475842230045075,-0.008367707679623443,0.0011413727665790518,-0.012183290451242668
0.033378396809423665,0.04865382600406343,0.014462445578043326,0.048866825486943655,0.03954457740236151,0.012240346428309401,-0.0015666331108846743,0.0176290251476805
0.02818590601064981,0.011868795536785326,-0.0019387079599745838,0.027051332525272448,0.03770768353046243,0.007976400565579633,-0.08065888940709137,0.022554623077861935
0.01906950328272868,0.018776867009881015,-0.011053598057168323,0.017428369356078666,0.018626555237031977,-0.010165056986361984,-0.03737285666964718,-0.01760787425216148
0.021467099976542187,0.022746026095372462,0.009642812122864719,0.05071579169602561,0.04390654668464497,0.0257937267725476,0.014182709112776803,0.031152550470241236
0.02402510320291763,0.04798384561732916,-0.00247049182791248,0.04408643523954717,0.04376640223677841,0.011489821695217395,-0.0369742235220617,0.039768744143167556
0.0352594536825456,0.028655345746953276,0.0039006698951919994,0.04318180933724236,0.03537758394340486,1.4391934912297288E-4,-0.007657008858368453,-0.03024420143739226
0.01932984502797197,0.013446155311311325,0.01685792241914963,0.05835211845562921,0.034600109255085665,-0.0019346673256183944,0.002822727653323698,0.010873291514245986
0.023075319360495776,0.04724876247098497,0.02363874922887349,0.05517465563765803,0.04875573805469049,-0.006653188180757483,-0.009045808543291067,-0.02290404171241045
0.029862958457253605,0.034396457602712927,-7.06921480262912E-4,0.029279627889528814,0.014413579332775069,0.042472418618361596,-0.011968230380929812,0.0295856927029976
0.02986795333850092,0.02925281634669208,-2.454459714026358E-4,0.030791336478311976,0.02611374220687459,-0.012446092324174263,0.0036603052867542063,0.00999342494715405
0.029654073729077163,0.014560543602535003,0.011619607064389692,0.02943605838715918,0.033685318473932066,0.00438881436741248,0.014917794505295623,-4.773159181696851E-4
0.022023871310214077,0.020526585517587903,-0.01723764621627416,0.030451236655579583,0.03174337849881338,0.017585792756465463,-0.023377249935098376,0.04508837501154317
0.009760083018147465,0.025160029501836156,-0.013643902769547966,0.03522349643274936,0.025551699393751535,-0.015702646733586165,0.030209979665658748,0.06792407819940793
0.026770056720894428,0.02373647771424492,-0.017725522264062155,0.03129583503561173,0.03569151102072034,-0.0109066354967699,-0.01544456651672027,-0.03563870333311625
0.020912929346979386,0.03926432536950497,0.024788842613245488,0.05103984113638346,0.03160990291451052,0.014671863469514435,-0.029223372308075368,0.002352667708306999
0.034904636594614506,0.03320637665909498,0.002916839962859963,0.05555234205312082,0.04418806270089217,0.012689804571538343,-0.03964525561518917,-0.018386588193300968
0.02194336968316765,0.008066978391132462,0.026767780906754024,0.043081654038250455,0.02271991220298814,0.005655308121345487,-0.042747069857393294,-0.01936005087189452
0.013816545556776295,0.01560779618201047,0.014407183719863659,0.03180981262681601,0.03479155594245626,0.023024726373722326,-0.053883219375742364,-0.00987876416587019
0.01954127425706435,0.02257001784229462,-0.009775749102993114,0.03073895812149402,0.023026711999191717,0.01678841005832804,-0.009460274092830734,0.07333256227479867
0.024989759763900242,0.03043294391965623,-0.001387681637003202,0.030077799325943316,0.035202269018885915,0.003193482673994885,0.03922874292452616,0.01318718782080519
0.012829540555010031,0.010148142176910957,0.005343261388021936,0.035463344137407316,0.005639899383403616,-0.01517505463073214,-0.027864868618946936,-0.012574590070556058
0.02650350264217191,0.019526247752261083,0.020006918887572056,0.01609785895797608,0.017517919560641124,0.03113654337797564,-0.013369502139993272,0.06424151198683625
0.015437712861196582,0.03412921553872328,-0.020986048438337845,0.006596302003683274,0.01921633106759247,0.002041862950220713,-0.06039871093554938,-0.012714614865591
0.018264510693486818,0.02474053215846661,-0.002627311542570787,0.039534809245644786,0.026978481059961576,0.012628390335373774,0.021314556710886223,0.03680419753253106
0.01870218137350567,0.020052787670406635,0.001528147089777332,0.04960659321481439,0.029357333189658264,0.026932986698091632,0.004890391724702625,-0.045339579548547615
0.01715576759545124,0.022794592446476303,-0.016006169225189937,0.011944521057577456,0.05368260539124982,0.011740641556570702,0.0068965282575392806,0.054616901401039364
0.021209047090118997,0.03339872052129533,0.008792350883259081,0.03987861186339475,0.03327804969453897,-0.001616906575892807,-0.040198568869892204,0.026649992506437847
0.02411287173388087,0.00895891948109806,0.032868725940556065,0.012801986075531763,0.023906812368841297,0.01389598140221679,-0.049673177514391764,-0.0062731070254580246
0.028061927300111755,5.050414803555725E-4,0.00832498155852962,0.018859798542924355,0.02283930232172186,0.023760434743009762,-0.016642924107695967,0.08744337289513893
0.02748140184215584,0.014524740132882297,-0.004246315055162264,0.019219323560986906,0.035945593078437296,0.009771091515991343,-0.03805631246003982,0.050955094527684874
0.033167808860311926,0.023338942278851138,0.022970730099629688,0.03321916417373602,0.03874066758969245,0.02431650658642151,-0.022401306093337403,0.017978365908742466
0.00959064837685637,0.020225387938952344,-0.014972782249816408,0.03115204992768683,0.04278244676581935,-0.011543996930016981,0.010753498278822216,-0.0343924137234366
0.016418941204971463,0.011865691500831388,-0.018053379589094254,0.012821445979227852,0.03780390430505257,0.052405333552826144,0.014134946435001794,-0.0077855685379435435
0.016621593714150625,0.02231441184080385,0.00929109994388877,0.03863155147606051,0.04807742514380511,0.004796376066286162,-0.027443670784154883,0.06210366049761551
0.01811953017345931,0.011987119913130284,-0.014230718186172553,-0.0032977088894371315,0.034994257752470406,-9.899613591470846E-4,-0.023975427882004352,-0.008885287773607198
0.027098832742944015,0.024083422383653907,-0.005221186300848946,0.03008985895166566,0.028407654595256186,-8.893387571941302E-4,-0.015921939964813003,0.014400790897263871
0.019555191226290073,0.020438964253932213,-0.012102819766498074,0.033187625441060936,0.030789647690890758,0.007692811714779979,-0.0018870369454295766,0.03026043279370172
0.01947756770764611,0.038904428335899355,-0.022882638446459713,-0.020479515581859717,0.04105475718095427,0.0072101207583589455,0.049699812940237065,-0.01677235736862559
0.014162619730323907,0.01970372323377967,-0.02029564261172101,0.016335659082947235,0.03548941188187048,0.019389124513768174,-0.002353191661145282,-0.02833851987977698
0.030760168725845808,0.013534318270610246,-0.021263932094252536,0.008816112540193516,0.040444974281184536,-0.004418629761314893,0.05435074032055737,0.020392055705860335
0.024437096549706744,0.03264213492460932,-0.009214260782669292,0.0109926685467924,0.03996981439996321,0.0058603063843931935,0.03433515801582937,0.05496314589826068
0.02862026185917158,0.019615640064834072,-0.006678545025107396,0.024342202188299217,0.04386653622818014,0.02221740454436255,-0.06129935879272702,-0.01310137807989964
0.031340086361939884,0.03026335355904175,0.00599883836647358,0.033572378070457265,0.047992450732962315,0.013761360908404185,-0.010460819978469982,-0.04693598388370712
0.023737156701579148,0.008985038970460435,0.005624057300417928,0.011964052653161944,0.04844162432098675,0.02682342586580655,-0.009783539530537844,-0.0027505953140622985
0.016170814003352213,0.023720300736659317,0.005125990564526228,0.020281678569188777,0.036204724714004585,0.01989814229731357,0.012452735159855843,0.026940049827437695
0.028021646427163795,0.01904618053162699,0.0012994153506320494,0.018008811955694703,0.024363621104829356,-0.006677959953057144,-0.019272818019126392,0.047695636778346095
0.023350747632991692,0.005853958485062649,0.011935667323544064,0.019715504680269474,0.027188061384865958,0.0011636504176650575,0.03576911060782184,-8.774319663227281E-4
0.013552893296136407,0.030055702661443973,0.009377121452916581,0.024816254543661792,0.0528106838006714,0.04732446128113249,0.006129829234429507,0.020791511818931907
0.022042744682113407,0.02853385236798256,0.002289800046661128,0.020286490624442738,0.03263793534016819,0.0081037936541489,-0.012498730616638254,0.04062849984934669
0.009751712951879824,0.03476911972630703,-0.005083408222313068,-0.004377692663247043,0.04654425859517825,0.007568605058761224,0.04380179095799336,5.312954007155035E-4
0.015444924397855808,0.019864932519058742,0.010911537353607559,0.03591131188916097,0.029925079536356505,0.007420467334810638,0.033496782531151514,0.013458311283524038
0.014171343830054126,0.02178029917448998,0.024435013705108533,0.014177138201902695,0.04073206729905067,0.020485387434886343,0.023781637035316328,0.04697736491334181
0.0,0.0,0.0,0.0,0.0,0.0,0.0,0.0
-0.0031169554339510307,-0.004176596791297338,0.013014631910647612,0.02132274788282988,-0.0443943726054089,0.02757397413302859,-0.03666288569699039,0.05549031177035957
-0.003331631614182649,-0.023187052505886152,-0.024631499378486854,0.012130055720277852,-0.004945843332351794,0.027053375651264533,0.005199183372657679,-0.009215375195312348
-0.0038341382936257946,-0.013853248711882538,0.012071517666742415,0.04230521972485836,-0.029567708804706085,0.02982441508938577,-0.028090983638075273,-0.002406888563768028
-0.016065648324925685,-8.562856751069825E-4,-0.013559068294405452,0.0286685749406783,-0.008310681170373844,0.008045691911953035,-0.01618596225423863,-0.019080575525738164
-0.010975263958981695,-0.022910167761593603,0.012155730887406901,0.037143885083801106,-0.033455680848945304,0.0030447623334111107,-0.06634019682892467,-6.153035872364931E-4
-6.090574834615656E-4,-0.008410398468993496,-0.001208071097215102,0.017737587839524102,-0.008718033877236731,0.05074720192439994,-0.03393516974967142,0.008909711623723782
0.0024913665054216074,-0.004925664177243383,-0.02796588626246188,0.02576647952501311,-0.01356504344478593,0.010378928148395333,-0.04427272771105689,-0.02961453136000558
-0.0038768117905408316,-0.025751525567238254,-0.025240475175047627,0.04739114325682113,-0.012013031158822109,-0.012269114569435052,-0.03883558135082765,0.03930790772233328
-0.017794239044731836,-0.015270461891694898,0.017862096401861594,0.01906038467394909,-0.034860241916839965,0.003794787322526569,0.006435699592431288,-0.03311508893138071
-0.0258035827443889,-0.010400607393921124,0.001383048136645637,0.02287323104211171,-0.005897225114871778,-0.01568172945491432,0.027629111638396542,0.015756301943516737
-0.013036560342233394,-0.020778706306474937,0.007056656331419164,0.03655308818256807,-0.002492469822671036,0.010665509978357413,-0.0313613946267558,-0.012188820655242294
-0.013084075104656378,-0.025905491408908632,-0.028042656994466897,0.03232639977353459,-0.004053794584828591,-0.03810913909936958,-0.036305048989918265,-0.029277881901609293
-0.009191535625557527,-0.012285378366394872,-0.011362258650653434,0.03416542653135789,-0.007654213310036722,0.004158221382941404,-0.0647256419026489,0.003518337565762808
-0.008742874501106732,-0.010980949487531366,0.009647991485515428,0.025133461257098075,-0.02182865144876509,0.011481925062934578,-0.05173642751774904,-0.018504270886290364
-0.010268590134295711,0.005099316401953491,0.01333822562070297,0.0374979215504483,0.01212099159820082,0.013834851925164149,-0.0685158667560814,-0.02041646296299615
-0.005313245656792925,0.00932343793264423,-0.009652335970548487,0.022721275420509293,-0.03820518302379403,-0.023589179209945937,-0.08915669848322305,-0.05950372324954745
-0.012893411204763592,-0.015359535984413641,0.00814836926559781,0.04250878520552821,-6.361601015186374E-4,0.003578537299509535,-0.028251372269030683,-9.889481039977444E-4
-0.0033727537936800965,-0.022355533239603265,0.004064102459012342,0.043950105180004626,-0.016525100954427774,2.029663935686904E-4,-0.06897930976614208,-0.020358308195739916
-0.015588891802444247,-0.020304260224966675,0.0046230001099513696,0.053723686591309924,-0.009104052845613244,-0.009663428175498631,-0.10219908259242572,-0.014873728900662408
-0.014603861677619557,-0.03260358582919731,0.022748237200214516,0.03872008101589204,-0.015362420513648629,0.014253458509581818,-0.036808024942427686,-0.060835012392084664
-0.016102779272942583,-0.014793340624944196,7.393304423088387E-4,0.04875588992642178,0.006927378236420485,0.007350266280516188,-0.024818938024666004,-0.014954421292666442
-0.018655816194072368,-0.022026100303272567,0.011322974070275438,0.054461504680943365,-0.005708657364618203,0.00537053845157251,-0.04491404362682999,0.004712392069558646
-0.015813899193793297,-0.02932916828879184,0.011604230086260103,0.011423497063403079,-0.04068116817600195,0.0034226801771374826,-0.05844618928959794,-0.030197765046251268
-0.01711962717246056,-0.037108164478637184,-0.007937380861842591,0.025116918628977677,-0.019290705681061726,-0.043208330635915226,-0.050589935112276774,-0.017696557813825065
-0.022565720445703045,-0.013880856699790223,-0.00706884280385256,0.04848283312583328,-0.007534884276082416,-0.026764194305736802,-0.052283019765657524,0.0075950964780628905
-0.007945734862581467,-0.020599071549395,0.003205129626243308,0.04005159223216377,0.011983129982519422,-0.0053061117710945516,-0.035652418482233994,-0.012618728257854706
-0.018771828551810747,-0.012699701105843175,-0.008098967865581008,0.04471971518104982,-0.011074823075155064,-0.051950155816140695,-0.03283273095332745,5.669177826308491E-4
-0.018959022923067774,-0.02341685312599262,0.025856504046410433,0.019891380165944564,-0.021116355705339263,-0.045000292593437394,-0.05121100559817898,-0.02559867471791155
-0.017723557535461117,-0.028849504337372323,-0.03345490434673937,0.044283936386379716,-0.016196519912073368,-0.005783668818978585,-0.08712343847297743,-0.01783048514276553
-0.015456497699935744,-0.02984019083852596,0.01635932917340821,0.013681886910700145,-0.02384194417702172,0.005162358958480717,-0.03773424707771522,-0.026155512215617405
-0.015243843021541737,-0.013807588177688679,-0.013656357140337472,0.03831479008851783,-0.02411624086588154,-0.02031369361005922,-0.03385262138812295,-0.046856095039793155
-0.016376798233109537,-0.02648830510275968,-0.03759731034998437,0.03352790364314527,-0.010651760504615436,-0.0013060516555604834,-0.0011282864011330496,-0.028705706022295052
-0.00825668377203226,-0.03654020373444811,0.007741687803402286,0.04420877854544163,-0.04585664155873592,-0.03582228968141073,-0.05359536435714318,-0.04502734933817809
-0.008565120279114005,-0.029564546796269964,0.0052490422896139255,0.03163106233512082,-0.026356844823365606,-0.04149308651694247,-0.05107849932918823,-0.005297490187581744
-0.008759320881033707,-0.009945691732306083,0.022788164734125427,0.0400369515896931,-0.012085152468767332,-0.013279553916670697,-0.026143919935350424,-0.062203461496318724
-0.009486389546223896,-0.010098763295218083,0.03528585111979038,0.030402670920522082,-0.047559840379643184,-0.004213225486079844,-0.03953600623245396,0.011398673455664365
-0.025658428729866435,9.095361143918179E-4,-0.011424357133112184,0.04364952645860369,-0.004200465690628832,-0.0031794891716154794,-0.011472541466978348,0.04882212891231186
-0.02503069245723986,-0.02631418435011179,0.0073201511781690876,0.04358116669678784,-0.029895690585911575,-0.01600718494139984,-0.08765431909564564,-0.017485423890452934
-0.015341331251103565,-0.039094127379165844,-0.017670201535030128,0.057376148996384976,-0.01966567236759607,-0.04772987336861703,-0.046116125400795294,-0.041346452569617
-0.010524706540630143,-0.018056292757139936,-0.020238335031397714,0.037947285609322715,-0.013703057450469652,-0.021135272762727017,-0.04921041531318643,-0.05229309864583542
-0.014378282902225287,-0.006513006950119693,0.007954627746200704,0.06438705916282682,-0.03353773825104551,0.004364996242214522,-0.0014377799465196128,-0.07219772806231894
-0.007204169775671676,-0.01462292203205895,0.016893728602922098,0.05875004894094378,-0.033360834617623195,-0.0067595553090140925,-0.03466516185929974,-0.0672118772578627
-0.014567107505607059,-0.03306748013542049,0.011023563422616678,0.0663322618389114,-0.024358257056244944,-0.027439838054748214,-0.013239079199794446,-0.055884666859424614
-0.012125617478931268,-0.008495391009035402,-0.012472808396815138,0.05329112006520682,-0.04397379100731231,-0.029874124955064654,-0.06964876982502055,-0.0019742873011638906
-0.012530068888539646,-0.0028078407992813137,-3.6502804804228184E-4,0.038754824957971376,-0.020322369597858277,-0.03750905169261688,-0.07743768819515245,-2.2081874735824236E-4
-0.017922514771596707,-0.03543696440423483,-0.01812995775574311,0.05182972826152331,-0.03168791691713968,-0.018242013029985807,-0.03895149324921504,-0.07381823442889557
-0.015271716156786477,-0.004073474881048922,-0.012739932662958586,0.048796138912510764,-0.032964923260742476,-0.035387558747668635,-0.07030742457223238,-0.04118509954860339
-0.019754698812941927,-0.013634285485042197,-0.005287074356023103,0.02524349501624483,-0.03493019625978666,-0.027522096118897027,-0.03069387875724494,-0.03706830623168855
-0.013794586537765715,-0.02350350978203186,-0.01341543289676006,0.03835720971603217,-0.03498057415887654,-0.04759184481497018,-0.05825820574194335,-0.07954465162263591
-0.008747716537844081,-0.033527423763481834,6.742833584332253E-4,0.03732154255495147,-0.04525665112041388,-0.0682727153302085,-0.07605563155236161,-0.11246879530425358
-0.019237428633169195,-0.009838226419719542,-0.04188175150468493,0.04699968126328018,-0.016885811497956975,-0.021997706448361645,-0.01968392504606964,0.014213150715775669
-0.01887198051701248,0.0034689633018764043,-0.009393713828725614,0.03458825080310372,-0.019779020297536323,-0.05202911375542327,-0.08531596312815776,-0.02592862062943202
-0.009666192847297946,-0.022189548219609723,-0.005370573321561267,0.060448298053172936,-0.02403467041536776,-0.04660200374219159,-0.07921505278122865,-0.0911005891110972
-0.027239421308280224,-0.021938960524487072,-0.01872566942196746,0.04982884100172748,-0.019168820108016276,-0.030641731634198255,-0.05601179510742149,-0.05393497227608468
-0.0259331509989223,-0.017188655631715455,-0.027103892413426534,0.012134965725657074,-0.030924961067854695,-0.0529888735056301,-0.037020409542073085,-0.034480689780295615
-0.017959831515025237,-0.009746122415325131,-0.015425833072755912,0.010190025629723251,-0.032463123791299335,-0.05445563050876222,-0.09093782207665824,-0.03622814100027649
-0.021439377845859652,-0.025703838660840583,-0.009585428440515187,0.039096905478957736,-0.027147201162898902,-0.08179142823553037,-0.10057284296345143,-0.06614644557596838
-0.015307829132424233,-0.004094502454358384,0.0010144610468745818,0.03167719691189026,-0.04568829797575159,-0.03540718533383415,-0.09820277453881965,-0.06914109876759644
-0.015953250600474724,-0.006534487178670556,8.100315196423735E-4,0.030801981674259335,-0.04184529071550948,-0.10623052549047807,-0.10163713563203325,-0.03257782138813026
